REDsignal,IRsignal
0.6835636138916016,0.8623392105102539
0.6804548263549804,0.8623620986938476
0.6804548263549804,0.8623620986938476
0.6804365158081055,0.8596286773681641
0.6804365158081055,0.8596286773681641
0.6839624404907226,0.8645856857299804
0.6839624404907226,0.8645856857299804
0.6783485412597656,0.8630035400390624
0.6783485412597656,0.8630035400390624
0.6846330642700195,0.8615335464477539
0.6846330642700195,0.8615335464477539
0.6810882568359374,0.8642017364501953
0.6810882568359374,0.8642017364501953
0.6820089340209960,0.8616313934326172
0.6820089340209960,0.8616313934326172
0.6847017288208007,0.8682546615600586
0.6847017288208007,0.8682546615600586
0.6799180984497070,0.8621435165405273
0.6799180984497070,0.8621435165405273
0.6851016998291015,0.8632329940795899
0.6851016998291015,0.8632329940795899
0.6828592300415038,0.8656202316284179
0.6828592300415038,0.8656202316284179
0.6824380874633789,0.8652173995971679
0.6824380874633789,0.8652173995971679
0.6853019714355468,0.8661827087402344
0.6853019714355468,0.8661827087402344
0.6796211242675781,0.8617664337158203
0.6796211242675781,0.8617664337158203
0.6850633621215820,0.8622207641601562
0.6850633621215820,0.8622207641601562
0.6814189910888672,0.8660367965698242
0.6814189910888672,0.8660367965698242
0.6808444976806640,0.8591537475585938
0.6808444976806640,0.8591537475585938
0.6828884124755860,0.8615112304687500
0.6828884124755860,0.8615112304687500
0.6775136947631836,0.8563808441162110
0.6775136947631836,0.8563808441162110
0.6812587738037109,0.8586021423339844
0.6812587738037109,0.8586021423339844
0.6777963638305664,0.8565885543823242
0.6777963638305664,0.8565885543823242
0.6764436721801758,0.8521282196044921
0.6764436721801758,0.8521282196044921
0.6794557571411133,0.8544050216674804
0.6794557571411133,0.8544050216674804
0.6733697891235352,0.8525939941406250
0.6733697891235352,0.8525939941406250
0.6775245666503906,0.8498359680175781
0.6775245666503906,0.8498359680175781
0.6744380950927734,0.8512470245361328
0.6744380950927734,0.8512470245361328
0.6744792938232421,0.8474218368530273
0.6744792938232421,0.8474218368530273
0.6764917373657227,0.8529830932617187
0.6764917373657227,0.8529830932617187
0.6711959838867188,0.8462848663330078
0.6711959838867188,0.8462848663330078
0.6752843856811523,0.8469606399536133
0.6752843856811523,0.8469606399536133
0.6733177185058593,0.8488483428955078
0.6733177185058593,0.8488483428955078
0.6728908538818359,0.8483636856079101
0.6728908538818359,0.8483636856079101
0.6756517410278320,0.8490686416625977
0.6756517410278320,0.8490686416625977
0.6706729888916015,0.8458757400512695
0.6706729888916015,0.8458757400512695
0.6759630203247070,0.8471151351928711
0.6759630203247070,0.8471151351928711
0.6731712341308593,0.8521368026733398
0.6731712341308593,0.8521368026733398
0.6732662200927734,0.8464765548706055
0.6732662200927734,0.8464765548706055
0.6757627487182617,0.8502067565917969
0.6757627487182617,0.8502067565917969
0.6718059539794922,0.8471729278564453
0.6718059539794922,0.8471729278564453
0.6762845993041992,0.8511028289794922
0.6762845993041992,0.8511028289794922
0.6738332748413086,0.8508184432983398
0.6738332748413086,0.8508184432983398
0.6739969253540039,0.8479339599609375
0.6739969253540039,0.8479339599609375
0.6774324417114258,0.8515817642211914
0.6774324417114258,0.8515817642211914
0.6721996307373047,0.8512590408325195
0.6721996307373047,0.8512590408325195
0.6771560668945312,0.8497209548950195
0.6771560668945312,0.8497209548950195
0.6742824554443360,0.8520114898681640
0.6742824554443360,0.8520114898681640
0.6751962661743164,0.8492689132690430
0.6751962661743164,0.8492689132690430
0.6778741836547851,0.8556758880615234
0.6778741836547851,0.8556758880615234
0.6730487823486327,0.8497306823730468
0.6791118621826172,0.8497306823730468
0.6778684616088867,0.8510393142700196
0.6744764328002929,0.8510393142700196
0.6758840560913085,0.8534385681152343
0.6758840560913085,0.8534385681152343
0.6756523132324218,0.8532199859619141
0.6756523132324218,0.8532199859619141
0.6787279129028320,0.8543849945068359
0.6787279129028320,0.8543849945068359
0.6735328674316406,0.8513362884521484
0.6735328674316406,0.8513362884521484
0.6792783737182617,0.8526535034179688
0.6792783737182617,0.8526535034179688
0.6765941619873047,0.8579034805297852
0.6765941619873047,0.8579034805297852
0.6767503738403320,0.8523754119873047
0.6767503738403320,0.8523754119873047
0.6797990798950195,0.8562166213989257
0.6797990798950195,0.8562166213989257
0.6754531860351562,0.8531673431396484
0.6754531860351562,0.8531673431396484
0.6800365447998047,0.8572225570678711
0.6800365447998047,0.8572225570678711
0.6778032302856445,0.8570920944213867
0.6778032302856445,0.8570920944213867
0.6773162841796875,0.8542419433593750
0.6773162841796875,0.8542419433593750
0.6814195632934570,0.8582124710083008
0.6814195632934570,0.8582124710083008
0.6762571334838867,0.8578113555908203
0.6762571334838867,0.8578113555908203
0.6812822341918945,0.8565032958984374
0.6812822341918945,0.8565032958984374
0.6789813995361328,0.8591211318969726
0.6789813995361328,0.8591211318969726
0.6794797897338867,0.8563562393188476
0.6794797897338867,0.8563562393188476
0.6822893142700195,0.8628404617309570
0.6822893142700195,0.8628404617309570
0.6773992538452148,0.8569713592529297
0.6773992538452148,0.8569713592529297
0.6818664550781249,0.8584007263183594
0.6818664550781249,0.8584007263183594
0.6804576873779297,0.8608354568481446
0.6804576873779297,0.8608354568481446
0.6801143646240234,0.8607210159301758
0.6799364089965820,0.8607210159301758
0.6830720901489258,0.8618837356567383
0.6830720901489258,0.8618837356567383
0.6782329559326171,0.8586999893188476
0.6782329559326171,0.8586999893188476
0.6835739135742187,0.8601150512695312
0.6835739135742187,0.8601150512695312
0.6810253143310546,0.8652563095092773
0.6810253143310546,0.8652563095092773
0.6811346054077149,0.8596378326416015
0.6811346054077149,0.8596378326416015
0.6836460113525390,0.8635625839233398
0.6836460113525390,0.8635625839233398
0.6796566009521484,0.8606117248535156
0.6796566009521484,0.8606117248535156
0.6842639923095702,0.8646245956420898
0.6842639923095702,0.8646245956420898
0.6820981979370117,0.8644065856933594
0.6820981979370117,0.8644065856933594
0.6820747375488281,0.8614145278930664
0.6820747375488281,0.8614145278930664
0.6856830596923827,0.8653455734252929
0.6856830596923827,0.8653455734252929
0.6802757263183593,0.8645668029785156
0.6802757263183593,0.8645668029785156
0.6850833892822266,0.8629331588745117
0.6850833892822266,0.8629331588745117
0.6820621490478516,0.8651081085205078
0.6820621490478516,0.8651081085205078
0.6826074600219726,0.8612600326538086
0.6818761825561523,0.8612600326538086
0.6848773956298828,0.8668991088867187
0.6848773956298828,0.8668991088867187
0.6792938232421875,0.8597906112670898
0.6792938232421875,0.8597906112670898
0.6834011077880859,0.8596017837524413
0.6834011077880859,0.8596017837524413
0.6806648254394531,0.8604995727539062
0.6806648254394531,0.8604995727539062
0.6792949676513672,0.8583864212036133
0.6792949676513672,0.8583864212036133
0.6813560485839844,0.8576265335083008
0.6813560485839844,0.8576265335083008
0.6746572494506836,0.8524492263793945
0.6746572494506836,0.8524492263793945
0.6795747756958007,0.8519559860229492
0.6795747756958007,0.8519559860229492
0.6758296966552734,0.8552953720092773
0.6758296966552734,0.8552953720092773
0.6748289108276367,0.8481204986572265
0.6748289108276367,0.8481204986572265
0.6771057128906249,0.8505678176879883
0.6771057128906249,0.8505678176879883
0.6716285705566406,0.8460988998413086
0.6716285705566406,0.8460988998413086
0.6756196975708008,0.8489376068115234
0.6756196975708008,0.8489376068115234
0.6727128982543945,0.8477926254272461
0.6727128982543945,0.8477926254272461
0.6717344284057617,0.8439971923828125
0.6717344284057617,0.8439971923828125
0.6752054214477539,0.8471918106079102
0.6752054214477539,0.8471918106079102
0.6695302963256836,0.8458133697509765
0.6695302963256836,0.8458133697509765
0.6740501403808593,0.8437877655029297
0.6740501403808593,0.8437877655029297
0.6714008331298827,0.8458625793457031
0.6714008331298827,0.8458625793457031
0.6716680526733398,0.8427040100097656
0.6716680526733398,0.8427040100097656
0.6742956161499023,0.8489364624023438
0.6742956161499023,0.8489364624023438
0.6691434860229492,0.8429563522338867
0.6691434860229492,0.8429563522338867
0.6736639022827148,0.8440023422241211
0.6736639022827148,0.8440023422241211
0.6722534179687499,0.8466991424560547
0.6722534179687499,0.8466991424560547
0.6718305587768555,0.8463792800903320
0.6718305587768555,0.8463792800903320
0.6749942779541015,0.8476095199584961
0.6749942779541015,0.8476095199584961
0.6699331283569335,0.8444217681884766
0.6699331283569335,0.8444217681884766
0.6752483367919921,0.8457590103149414
0.6752483367919921,0.8457590103149414
0.6727678298950195,0.8508522033691406
0.6727678298950195,0.8508522033691406
0.6726928710937500,0.8451856613159180
0.6726928710937500,0.8451856613159180
0.6753799438476562,0.8490451812744141
0.6753799438476562,0.8490451812744141
0.6711696624755860,0.8458190917968750
0.6711696624755860,0.8458190917968750
0.6758096694946288,0.8496528625488281
0.6758096694946288,0.8496528625488281
0.6735471725463867,0.8495944976806641
0.6735471725463867,0.8495944976806641
0.6719667434692382,0.8511377334594726
0.6719667434692382,0.8486274719238281
0.6719667434692382,0.8486274719238281
0.6752935409545898,0.8468845367431640
0.6716972351074219,0.8468845367431640
0.6759778976440429,0.8509597778320312
0.6759778976440429,0.8509597778320312
0.6717464447021484,0.8458385467529297
0.6717464447021484,0.8458385467529297
0.6774730682373047,0.8502485275268554
0.6774730682373047,0.8502485275268554
0.6727792739868164,0.8501615524291992
0.6727792739868164,0.8501615524291992
0.6759944915771484,0.8484529495239258
0.6759944915771484,0.8484529495239258
0.6751762390136719,0.8521511077880859
0.6751762390136719,0.8521511077880859
0.6738567352294922,0.8474109649658202
0.6738567352294922,0.8474109649658202
0.6783811569213867,0.8517654418945312
0.6783811569213867,0.8517654418945312
0.6733406066894531,0.8518215179443359
0.6733406066894531,0.8518215179443359
0.6749691009521485,0.8496603012084961
0.6749691009521485,0.8496603012084961
0.6770553588867188,0.8535902023315429
0.6770553588867188,0.8535902023315429
0.6744129180908203,0.8488025665283203
0.6744129180908203,0.8488025665283203
0.6785974502563477,0.8533281326293946
0.6785974502563477,0.8533281326293946
0.6724142074584961,0.8530162811279297
0.6724142074584961,0.8530162811279297
0.6770112991333007,0.8513895034790039
0.6770112991333007,0.8513895034790039
0.6781299591064452,0.8555660247802734
0.6781299591064452,0.8555660247802734
0.6755744934082031,0.8509094238281250
0.6755744934082031,0.8509094238281250
0.6782775878906250,0.8551935195922852
0.6782775878906250,0.8551935195922852
0.6749977111816406,0.8552438735961914
0.6749977111816406,0.8552438735961914
0.6783662796020508,0.8535518646240234
0.6783662796020508,0.8535518646240234
0.6792446136474609,0.8578273773193359
0.6792446136474609,0.8578273773193359
0.6750394821166992,0.8527170181274414
0.6750394821166992,0.8527170181274414
0.6807638168334961,0.8572374343872070
0.6807638168334961,0.8572374343872070
0.6762073516845702,0.8570966720581055
0.6762073516845702,0.8570966720581055
0.6791913986206054,0.8555477142333984
0.6791913986206054,0.8555477142333984
0.6784767150878906,0.8593076705932617
0.6784767150878906,0.8593076705932617
0.6773471832275391,0.8545669555664063
0.6773471832275391,0.8545669555664063
0.6816925048828125,0.8590764999389648
0.6816925048828125,0.8590764999389648
0.6770713806152343,0.8591222763061523
0.6770713806152343,0.8591222763061523
0.6787691116333008,0.8571023941040039
0.6787691116333008,0.8571023941040039
0.6811214447021484,0.8613452911376953
0.6811214447021484,0.8613452911376953
0.6786655426025391,0.8564054489135742
0.6786655426025391,0.8564054489135742
0.6828947067260742,0.8612199783325195
0.6828947067260742,0.8612199783325195
0.6767354965209961,0.8608160018920898
0.6767354965209961,0.8608160018920898
0.6812599182128906,0.8589282989501953
0.6812599182128906,0.8589282989501953
0.6820724487304687,0.8628650665283203
0.6820724487304687,0.8628650665283203
0.6793916702270507,0.8577987670898437
0.6793916702270507,0.8577987670898437
0.6817657470703125,0.8615621566772461
0.6817657470703125,0.8615621566772461
0.6782146453857422,0.8608045578002930
0.6782146453857422,0.8608045578002930
0.6809932708740234,0.8580499649047851
0.6809932708740234,0.8580499649047851
0.6810785293579101,0.8610031127929687
0.6810785293579101,0.8610031127929687
0.6761924743652343,0.8542499542236328
0.6761924743652343,0.8542499542236328
0.6808050155639648,0.8570949554443359
0.6808050155639648,0.8570949554443359
0.6752054214477539,0.8552507400512696
0.6752054214477539,0.8552507400512696
0.6772258758544921,0.8515005111694336
0.6772258758544921,0.8515005111694336
0.6755035400390624,0.8532194137573242
0.6755035400390624,0.8532194137573242
0.6731786727905273,0.8464742660522461
0.6731786727905273,0.8464742660522461
0.6764951705932617,0.8490640640258789
0.6764951705932617,0.8490640640258789
0.6708990097045898,0.8475488662719727
0.6708990097045898,0.8475488662719727
0.6712446212768555,0.8438135147094726
0.6712446212768555,0.8438135147094726
0.6727724075317383,0.8466127395629882
0.6727724075317383,0.8466127395629882
0.6694141387939453,0.8404918670654297
0.6694141387939453,0.8404918670654297
0.6730173110961913,0.8438753128051758
0.6730173110961913,0.8438753128051758
0.6662687301635742,0.8425844192504882
0.6662687301635742,0.8425844192504882
0.6699314117431641,0.8398847579956055
0.6699314117431641,0.8398847579956055
0.6705768585205077,0.8429483413696289
0.6705768585205077,0.8429483413696289
0.6674057006835937,0.8376726150512696
0.6674057006835937,0.8376726150512696
0.6696126937866210,0.8410955429077148
0.6696126937866210,0.8410955429077148
0.6661891937255859,0.8407802581787109
0.6661891937255859,0.8407802581787109
0.6688945770263671,0.8386848449707031
0.6688945770263671,0.8386848449707031
0.6697883605957031,0.8426124572753906
0.6697883605957031,0.8426124572753906
0.6654779434204101,0.8371210098266602
0.6654779434204101,0.8371210098266602
0.6708154678344727,0.8414228439331054
0.6708154678344727,0.8414228439331054
0.6661130905151367,0.8410257339477539
0.6661130905151367,0.8410257339477539
0.6685203552246094,0.8390275955200195
0.6685203552246094,0.8390275955200195
0.6675573348999023,0.8423297882080077
0.6659757614135742,0.8423297882080077
0.6656541824340820,0.8369636535644531
0.6656541824340820,0.8369636535644531
0.6694187164306641,0.8409593582153320
0.6694187164306641,0.8409593582153320
0.6646390914916992,0.8406526565551757
0.6646390914916992,0.8406526565551757
0.6655780792236328,0.8381887435913086
0.6655780792236328,0.8381887435913086
0.6678096771240234,0.8421277999877930
0.6678096771240234,0.8421277999877930
0.6652994155883789,0.8368343353271485
0.6652994155883789,0.8368343353271485
0.6693025588989258,0.8413364410400390
0.6693025588989258,0.8413364410400390
0.6630392074584961,0.8407150268554687
0.6630392074584961,0.8407150268554687
0.6671476364135742,0.8386178970336914
0.6671476364135742,0.8386178970336914
0.6681009292602539,0.8426885604858398
0.6681009292602539,0.8426885604858398
0.6653766632080078,0.8375307083129883
0.6653766632080078,0.8375307083129883
0.6678834915161133,0.8415166854858398
0.6678834915161133,0.8415166854858398
0.6648044586181641,0.8413427352905273
0.6648044586181641,0.8413427352905273
0.6677278518676758,0.8393817901611328
0.6677278518676758,0.8393817901611328
0.6687005996704102,0.8434610366821289
0.6687005996704102,0.8434610366821289
0.6641784667968750,0.8380182266235351
0.6641784667968750,0.8380182266235351
0.6697671890258788,0.8423532485961914
0.6697671890258788,0.8423532485961914
0.6652650833129883,0.8422250747680664
0.6652650833129883,0.8422250747680664
0.6678571701049805,0.8403505325317383
0.6678571701049805,0.8403505325317383
0.6670085906982421,0.8439233779907226
0.6670085906982421,0.8439233779907226
0.6659866333007812,0.8388118743896484
0.6659866333007812,0.8388118743896484
0.6702644348144531,0.8431131362915039
0.6702644348144531,0.8431131362915039
0.6656124114990234,0.8431863784790039
0.6656124114990234,0.8431863784790039
0.6663322448730469,0.8409198760986328
0.6663322448730469,0.8409198760986328
0.6692390441894531,0.8451684951782227
0.6692390441894531,0.8451684951782227
0.6666515350341796,0.8399402618408203
0.6666515350341796,0.8399402618408203
0.6709516525268554,0.8447027206420898
0.6709516525268554,0.8447027206420898
0.6646871566772461,0.8444137573242188
0.6646871566772461,0.8444137573242188
0.6690908432006836,0.8426496505737304
0.6690908432006836,0.8426496505737304
0.6707702636718750,0.8468793869018555
0.6707702636718750,0.8468793869018555
0.6679046630859374,0.8420625686645508
0.6679046630859374,0.8420625686645508
0.6701225280761719,0.8462236404418945
0.6701225280761719,0.8462236404418945
0.6676826477050781,0.8462482452392578
0.6676826477050781,0.8462482452392578
0.6705619812011718,0.8446294784545898
0.6705619812011718,0.8446294784545898
0.6718706130981446,0.8489976882934570
0.6718706130981446,0.8489976882934570
0.6671213150024414,0.8437562942504883
0.6671213150024414,0.8437562942504883
0.6735099792480469,0.8483396530151367
0.6735099792480469,0.8483396530151367
0.6693386077880860,0.8484031677246093
0.6693386077880860,0.8484031677246093
0.6717813491821288,0.8468130111694335
0.6717813491821288,0.8468130111694335
0.6707147598266602,0.8505672454833985
0.6707147598266602,0.8505672454833985
0.6701717376708984,0.8455427169799804
0.6701717376708984,0.8455427169799804
0.6744592666625976,0.8500659942626952
0.6744592666625976,0.8500659942626952
0.6702283859252930,0.8503847122192383
0.6702283859252930,0.8503847122192383
0.6706048965454101,0.8482269287109375
0.6706048965454101,0.8482269287109375
0.6739151000976562,0.8523611068725586
0.6739151000976562,0.8523611068725586
0.6715650558471680,0.8472513198852539
0.6715650558471680,0.8472513198852539
0.6755584716796875,0.8521287918090820
0.6755584716796875,0.8521287918090820
0.6691640853881836,0.8516429901123047
0.6691640853881836,0.8516429901123047
0.6735219955444336,0.8500780105590821
0.6735219955444336,0.8500780105590821
0.6749353408813477,0.8540897369384766
0.6733148574829101,0.8540897369384766
0.6723627090454102,0.8491870880126953
0.6723627090454102,0.8491870880126953
0.6743362426757812,0.8533864974975586
0.6743362426757812,0.8533864974975586
0.6719409942626953,0.8531175613403320
0.6719409942626953,0.8531175613403320
0.6745325088500976,0.8509346008300781
0.6745325088500976,0.8509346008300781
0.6753547668457031,0.8548616409301758
0.6753547668457031,0.8548616409301758
0.6702066421508789,0.8485673904418946
0.6702066421508789,0.8485673904418946
0.6758634567260742,0.8521001815795898
0.6758634567260742,0.8521001815795898
0.6708864212036133,0.8506370544433594
0.6708864212036133,0.8506370544433594
0.6725383758544922,0.8474212646484375
0.6725383758544922,0.8474212646484375
0.6707136154174804,0.8495389938354492
0.6707136154174804,0.8495389938354492
0.6690130233764648,0.8426193237304688
0.6690130233764648,0.8426193237304688
0.6723524093627929,0.8453498840332031
0.6723524093627929,0.8453498840332031
0.6668970108032226,0.8438924789428711
0.6668970108032226,0.8438924789428711
0.6662830352783203,0.8398956298828125
0.6662830352783203,0.8398956298828125
0.6686285018920898,0.8427394866943360
0.6686285018920898,0.8427394866943360
0.6651117324829101,0.8363279342651367
0.6651117324829101,0.8363279342651367
0.6688499450683594,0.8398818969726562
0.6688499450683594,0.8398818969726562
0.6617488861083984,0.8385234832763672
0.6617488861083984,0.8385234832763672
0.6655626296997070,0.8356664657592773
0.6655626296997070,0.8356664657592773
0.6666011810302734,0.8391414642333984
0.6666011810302734,0.8391414642333984
0.6633510589599609,0.8334634780883788
0.6633510589599609,0.8334634780883788
0.6652862548828125,0.8370237350463867
0.6652862548828125,0.8370237350463867
0.6625087738037109,0.8364578247070312
0.6625087738037109,0.8364578247070312
0.6645721435546875,0.8341964721679688
0.6645721435546875,0.8341964721679688
0.6658515930175781,0.8384897232055664
0.6658515930175781,0.8384897232055664
0.6609712600708008,0.8326778411865234
0.6609712600708008,0.8326778411865234
0.6669456481933593,0.8370180130004883
0.6669456481933593,0.8370180130004883
0.6627187728881836,0.8369482040405273
0.6627187728881836,0.8369482040405273
0.6647832870483398,0.8350976943969727
0.6647832870483398,0.8350976943969727
0.6642837524414062,0.8391523361206055
0.6642837524414062,0.8391523361206055
0.6632337570190430,0.8338703155517578
0.6632337570190430,0.8338703155517578
0.6676391601562500,0.8384290695190429
0.6676391601562500,0.8384290695190429
0.6673679351806641,0.8401565551757812
0.6634334564208985,0.8401565551757812
0.6619726181030273,0.8367851257324218
0.6619726181030273,0.8367851257324218
0.6673467636108398,0.8379072189331055
0.6673467636108398,0.8379072189331055
0.6656261444091797,0.8437637329101563
0.6656261444091797,0.8437637329101563
0.6646997451782226,0.8367433547973633
0.6646997451782226,0.8367433547973633
0.6671905517578125,0.8412139892578124
0.6671905517578125,0.8412139892578124
0.6628807067871093,0.8378660202026367
0.6628807067871093,0.8378660202026367
0.6672214508056641,0.8420745849609375
0.6672214508056641,0.8420745849609375
0.6659860610961914,0.8413421630859375
0.6659860610961914,0.8413421630859375
0.6649555206298828,0.8378059387207031
0.6649555206298828,0.8378059387207031
0.6688550949096680,0.8423372268676758
0.6688550949096680,0.8423372268676758
0.6632537841796875,0.8425289154052734
0.6632537841796875,0.8425289154052734
0.6681512832641602,0.8402349472045898
0.6681512832641602,0.8402349472045898
0.6663671493530273,0.8429466247558594
0.6663671493530273,0.8429466247558594
0.6665880203247070,0.8394882202148437
0.6670806884765624,0.8394882202148437
0.6694564819335938,0.8473840713500976
0.6694564819335938,0.8473840713500976
0.6642299652099609,0.8408946990966797
0.6642299652099609,0.8408946990966797
0.6690027236938476,0.8418176651000976
0.6690027236938476,0.8418176651000976
0.6683572769165039,0.8447038650512695
0.6683572769165039,0.8447038650512695
0.6670286178588867,0.8445453643798828
0.6670286178588867,0.8445453643798828
0.6703565597534179,0.8458711624145507
0.6703565597534179,0.8458711624145507
0.6646013259887695,0.8425912857055664
0.6646013259887695,0.8425912857055664
0.6704235076904297,0.8438804626464843
0.6704235076904297,0.8438804626464843
0.6688888549804687,0.8499309539794921
0.6688888549804687,0.8499309539794921
0.6680540084838867,0.8432167053222656
0.6680540084838867,0.8432167053222656
0.6712806701660156,0.8477462768554688
0.6712806701660156,0.8477462768554688
0.6666360855102539,0.8446517944335937
0.6666360855102539,0.8446517944335937
0.6708606719970703,0.8490612030029296
0.6708606719970703,0.8490612030029296
0.6699136734008789,0.8485410690307617
0.6699136734008789,0.8485410690307617
0.6682416915893554,0.8448801040649414
0.6682416915893554,0.8448801040649414
0.6726121902465820,0.8496059417724610
0.6726121902465820,0.8496059417724610
0.6669376373291015,0.8498611450195312
0.6669376373291015,0.8498611450195312
0.6718723297119140,0.8476741790771484
0.6718723297119140,0.8476741790771484
0.6707771301269531,0.8504899978637696
0.6707771301269531,0.8504899978637696
0.6704212188720703,0.8470727920532226
0.6704212188720703,0.8470727920532226
0.6732885360717773,0.8549308776855469
0.6732885360717773,0.8549308776855469
0.6681335449218749,0.8485353469848632
0.6681335449218749,0.8485353469848632
0.6723844528198242,0.8497049331665039
0.6723844528198242,0.8497049331665039
0.6724124908447265,0.8525762557983398
0.6724124908447265,0.8525762557983398
0.6709613800048828,0.8522724151611328
0.6709613800048828,0.8522724151611328
0.6743991851806640,0.8536657333374024
0.6743991851806640,0.8536657333374024
0.6691349029541015,0.8506599426269531
0.6691349029541015,0.8506599426269531
0.6745262145996094,0.8516710281372070
0.6745262145996094,0.8516710281372070
0.6730693817138672,0.8577003479003906
0.6730693817138672,0.8577003479003906
0.6721258163452148,0.8510198593139648
0.6721258163452148,0.8510198593139648
0.6750486373901367,0.8558349609375000
0.6750486373901367,0.8558349609375000
0.6708354949951172,0.8528549194335937
0.6708354949951172,0.8528549194335937
0.6752964019775390,0.8567928314208985
0.6752964019775390,0.8567928314208985
0.6743219375610351,0.8566583633422852
0.6743219375610351,0.8566583633422852
0.6732707977294922,0.8530872344970702
0.6732707977294922,0.8530872344970702
0.6770084381103515,0.8578725814819336
0.6770084381103515,0.8578725814819336
0.6716205596923828,0.8575681686401367
0.6716205596923828,0.8575681686401367
0.6763034820556640,0.8558378219604492
0.6763034820556640,0.8558378219604492
0.6749507904052734,0.8585620880126953
0.6749507904052734,0.8585620880126953
0.6745994567871093,0.8549314498901367
0.6745994567871093,0.8549314498901367
0.6776035308837890,0.8622488021850586
0.6776035308837890,0.8622488021850586
0.6722831726074219,0.8562429428100585
0.6722831726074219,0.8562429428100585
0.6767246246337890,0.8567035675048827
0.6767246246337890,0.8567035675048827
0.6761014938354492,0.8589889526367187
0.6761014938354492,0.8589889526367187
0.6742395401000977,0.8571264266967773
0.6742395401000977,0.8571264266967773
0.6768968582153320,0.8581672668457031
0.6768968582153320,0.8581672668457031
0.6707874298095703,0.8538242340087890
0.6707874298095703,0.8538242340087890
0.6755601882934570,0.8532794952392578
0.6755601882934570,0.8532794952392578
0.6733234405517577,0.8580293655395508
0.6685981750488281,0.8487831115722656
0.6685981750488281,0.8532669067382812
0.6685981750488281,0.8507938385009766
0.6717990875244141,0.8469881057739258
0.6717990875244141,0.8492591857910156
0.6717990875244141,0.8499326705932617
0.6717075347900391,0.8430782318115234
0.6693426132202148,0.8430782318115234
0.6697397232055664,0.8459672927856445
0.6697397232055664,0.8459672927856445
0.6664186477661133,0.8449916839599609
0.6664186477661133,0.8449916839599609
0.6677999496459961,0.8418188095092773
0.6648880004882812,0.8418188095092773
0.6690164566040039,0.8455112457275390
0.6690164566040039,0.8455112457275390
0.6641939163208007,0.8389245986938476
0.6641939163208007,0.8389245986938476
0.6693500518798828,0.8427406311035156
0.6693500518798828,0.8427406311035156
0.6652593612670898,0.8424425125122070
0.6652593612670898,0.8424425125122070
0.6667436599731446,0.8399631500244140
0.6667436599731446,0.8399631500244140
0.6665245056152344,0.8435491561889649
0.6665245056152344,0.8435491561889649
0.6650974273681640,0.8380531311035156
0.6650974273681640,0.8380531311035156
0.6690994262695312,0.8423091888427734
0.6690994262695312,0.8423091888427734
0.6650768280029297,0.8424934387207031
0.6650768280029297,0.8424934387207031
0.6653383255004882,0.8399917602539062
0.6653383255004882,0.8399917602539062
0.6682542800903321,0.8442398071289062
0.6682542800903321,0.8442398071289062
0.6656839370727539,0.8389463424682617
0.6656839370727539,0.8389463424682617
0.6696659088134765,0.8435274124145508
0.6696659088134765,0.8435274124145508
0.6643255233764648,0.8433866500854492
0.6643255233764648,0.8433866500854492
0.6675790786743164,0.8415309906005859
0.6675790786743164,0.8415309906005859
0.6695577621459960,0.8458539962768554
0.6695577621459960,0.8458539962768554
0.6669393539428711,0.8407968521118164
0.6669393539428711,0.8407968521118164
0.6691246032714844,0.8448120117187500
0.6691246032714844,0.8448120117187500
0.6668111801147460,0.8449195861816406
0.6668111801147460,0.8449195861816406
0.6688465118408203,0.8430238723754883
0.6688465118408203,0.8430238723754883
0.6705081939697265,0.8475620269775390
0.6705081939697265,0.8475620269775390
0.6660518646240234,0.8418279647827148
0.6660518646240234,0.8418279647827148
0.6715885162353515,0.8463123321533202
0.6715885162353515,0.8463123321533202
0.6677907943725586,0.8464891433715820
0.6677907943725586,0.8464891433715820
0.6696332931518555,0.8447170257568359
0.6696332931518555,0.8447170257568359
0.6697008132934570,0.8485622406005859
0.6697008132934570,0.8485622406005859
0.6684207916259766,0.8434049606323242
0.6684207916259766,0.8434049606323242
0.6727466583251953,0.8477542877197265
0.6727466583251953,0.8477542877197265
0.6688648223876953,0.8482646942138672
0.6688648223876953,0.8482646942138672
0.6687480926513671,0.8457841873168945
0.6687480926513671,0.8457841873168945
0.6720685958862305,0.8502931594848633
0.6720685958862305,0.8502931594848633
0.6694656372070312,0.8450443267822265
0.6694656372070312,0.8450443267822265
0.6735054016113281,0.8498685836791992
0.6735054016113281,0.8498685836791992
0.6679389953613281,0.8496236801147461
0.6679389953613281,0.8496236801147461
0.6714260101318359,0.8477806091308594
0.6714260101318359,0.8477806091308594
0.6735448837280273,0.8523147583007812
0.6735448837280273,0.8523147583007812
0.6708074569702148,0.8473520278930664
0.6708074569702148,0.8473520278930664
0.6728862762451172,0.8513299942016601
0.6728862762451172,0.8513299942016601
0.6709081649780273,0.8519033432006836
0.6709081649780273,0.8519033432006836
0.6726648330688476,0.8498857498168945
0.6726648330688476,0.8498857498168945
0.6748231887817383,0.8547695159912109
0.6748231887817383,0.8547695159912109
0.6702775955200195,0.8491247177124023
0.6702775955200195,0.8491247177124023
0.6758005142211914,0.8535982131958008
0.6758005142211914,0.8535982131958008
0.6724388122558593,0.8539855957031249
0.6724388122558593,0.8539855957031249
0.6740833282470703,0.8522512435913085
0.6740833282470703,0.8522512435913085
0.6741394042968750,0.8561582565307617
0.6741394042968750,0.8561582565307617
0.6728788375854492,0.8510925292968750
0.6728788375854492,0.8510925292968750
0.6769300460815429,0.8556873321533203
0.6769300460815429,0.8556873321533203
0.6734590530395508,0.8563453674316406
0.6734590530395508,0.8563453674316406
0.6733194351196289,0.8537372589111328
0.6733194351196289,0.8537372589111328
0.6770095825195312,0.8583160400390625
0.6770095825195312,0.8583160400390625
0.6744764328002929,0.8532835006713867
0.6744764328002929,0.8532835006713867
0.6784543991088867,0.8579967498779296
0.6729623794555664,0.8580093383789062
0.6729623794555664,0.8580093383789062
0.6761020660400391,0.8558023452758788
0.6761020660400391,0.8558023452758788
0.6781082153320312,0.8604200363159179
0.6781082153320312,0.8604200363159179
0.6754880905151367,0.8553726196289062
0.6754880905151367,0.8553726196289062
0.6776138305664062,0.8594112396240234
0.6776138305664062,0.8594112396240234
0.6755086898803710,0.8598020553588867
0.6755086898803710,0.8598020553588867
0.6773288726806640,0.8576608657836914
0.6773288726806640,0.8576608657836914
0.6791667938232422,0.8622728347778320
0.6791667938232422,0.8622728347778320
0.6746063232421875,0.8566692352294921
0.6746063232421875,0.8566692352294921
0.6801744461059570,0.8611673355102539
0.6801744461059570,0.8611673355102539
0.6764162063598632,0.8616096496582031
0.6764162063598632,0.8616096496582031
0.6781923294067382,0.8597991943359374
0.6781923294067382,0.8597991943359374
0.6784120559692383,0.8637279510498047
0.6784120559692383,0.8637279510498047
0.6771074295043945,0.8585575103759765
0.6771074295043945,0.8585575103759765
0.6812015533447265,0.8628519058227538
0.6812015533447265,0.8628519058227538
0.6772441864013672,0.8634401321411133
0.6772441864013672,0.8634401321411133
0.6772092819213867,0.8607227325439453
0.6772092819213867,0.8607227325439453
0.6805423736572266,0.8651041030883789
0.6805423736572266,0.8651041030883789
0.6776081085205078,0.8595886230468750
0.6776081085205078,0.8595886230468750
0.6815105438232422,0.8637554168701171
0.6815105438232422,0.8637554168701171
0.6757272720336914,0.8630544662475585
0.6757272720336914,0.8630544662475585
0.6783885955810547,0.8599874496459960
0.6783885955810547,0.8599874496459960
0.6801486968994140,0.8636089324951172
0.6801486968994140,0.8636089324951172
0.6766571044921875,0.8572374343872070
0.6766571044921875,0.8572374343872070
0.6780939102172852,0.8599668502807617
0.6780939102172852,0.8599668502807617
0.6753330230712891,0.8589466094970702
0.6792835235595703,0.8589466094970702
0.6735385894775391,0.8553577423095703
0.6729022979736328,0.8553577423095703
0.6774770736694335,0.8586502075195312
0.6774770736694335,0.8586502075195312
0.6721830368041992,0.8513763427734374
0.6721830368041992,0.8513763427734374
0.6768671035766601,0.8543912887573242
0.6768671035766601,0.8543912887573242
0.6728559494018554,0.8535066604614258
0.6728559494018554,0.8535066604614258
0.6737331390380860,0.8503194808959961
0.6737331390380860,0.8503194808959961
0.6733543395996093,0.8534145355224609
0.6733543395996093,0.8534145355224609
0.6716955184936523,0.8472541809082031
0.6716955184936523,0.8472541809082031
0.6752946853637695,0.8509082794189453
0.6752946853637695,0.8509082794189453
0.6714334487915039,0.8510072708129882
0.6714334487915039,0.8510072708129882
0.6706804275512696,0.8476501464843750
0.6706804275512696,0.8476501464843750
0.6742784500122070,0.8517723083496094
0.6742784500122070,0.8517723083496094
0.6715822219848633,0.8461990356445312
0.6715822219848633,0.8461990356445312
0.6751544952392577,0.8505083084106445
0.6751544952392577,0.8505083084106445
0.6696269989013671,0.8502874374389648
0.6696269989013671,0.8502874374389648
0.6729097366333008,0.8482234954833984
0.6729097366333008,0.8482234954833984
0.6749902725219726,0.8527496337890624
0.6749902725219726,0.8527496337890624
0.6724456787109375,0.8478950500488281
0.6724456787109375,0.8478950500488281
0.6742292404174804,0.8515085220336914
0.6742292404174804,0.8515085220336914
0.6724262237548828,0.8519823074340820
0.6724262237548828,0.8519823074340820
0.6740667343139648,0.8498502731323242
0.6740667343139648,0.8498502731323242
0.6760459899902344,0.8544067382812500
0.6760459899902344,0.8544067382812500
0.6710552215576172,0.8486921310424804
0.6710552215576172,0.8486921310424804
0.6765953063964844,0.8528766632080078
0.6724090576171875,0.8528766632080078
0.6730012893676758,0.8533607482910156
0.6730012893676758,0.8533607482910156
0.6745439529418945,0.8513282775878906
0.6745439529418945,0.8513282775878906
0.6745508193969726,0.8550619125366211
0.6745508193969726,0.8550619125366211
0.6734498977661133,0.8497776031494141
0.6734498977661133,0.8497776031494141
0.6773860931396484,0.8540147781372071
0.6773860931396484,0.8540147781372071
0.6737972259521484,0.8545927047729492
0.6737972259521484,0.8545927047729492
0.6731386184692383,0.8519147872924805
0.6731386184692383,0.8519147872924805
0.6769912719726562,0.8563013076782227
0.6769912719726562,0.8563013076782227
0.6741926193237304,0.8511348724365234
0.6741926193237304,0.8511348724365234
0.6781299591064452,0.8558000564575196
0.6781299591064452,0.8558000564575196
0.6725538253784179,0.8555768966674805
0.6725538253784179,0.8555768966674805
0.6758382797241210,0.8533681869506836
0.6758382797241210,0.8533681869506836
0.6782455444335938,0.8578874588012695
0.6782455444335938,0.8578874588012695
0.6752517700195312,0.8529985427856445
0.6752517700195312,0.8529985427856445
0.6769083023071288,0.8566349029541015
0.6769083023071288,0.8566349029541015
0.6751424789428710,0.8573690414428711
0.6751424789428710,0.8573690414428711
0.6767572402954102,0.8552181243896484
0.6767572402954102,0.8552181243896484
0.6792079925537109,0.8601156234741211
0.6792079925537109,0.8601156234741211
0.6742143630981445,0.8542894363403321
0.6742143630981445,0.8542894363403321
0.6798831939697265,0.8586599349975585
0.6798831939697265,0.8586599349975585
0.6766696929931640,0.8594198226928711
0.6766696929931640,0.8594198226928711
0.6781774520874023,0.8574228286743164
0.6781774520874023,0.8574228286743164
0.6781780242919921,0.8613601684570312
0.6781780242919921,0.8613601684570312
0.6771760940551758,0.8564535140991211
0.6771760940551758,0.8564535140991211
0.6809474945068359,0.8606529235839844
0.6809474945068359,0.8606529235839844
0.6777013778686524,0.8617630004882812
0.6777013778686524,0.8617630004882812
0.6770713806152343,0.8588510513305664
0.6770713806152343,0.8588510513305664
0.6811569213867187,0.8633565902709961
0.6811569213867187,0.8633565902709961
0.6786106109619140,0.8585798263549804
0.6786106109619140,0.8585798263549804
0.6822532653808594,0.8629188537597656
0.6822532653808594,0.8629188537597656
0.6768024444580077,0.8631597518920898
0.6768024444580077,0.8631597518920898
0.6801481246948242,0.8607736587524414
0.6801481246948242,0.8607736587524414
0.6823596954345703,0.8654588699340821
0.6823596954345703,0.8654588699340821
0.6797773361206054,0.8608337402343750
0.6797773361206054,0.8608337402343750
0.6812845230102539,0.8642532348632812
0.6812845230102539,0.8642532348632812
0.6798889160156250,0.8650875091552734
0.6798889160156250,0.8650875091552734
0.6816032409667968,0.8629697799682617
0.6816032409667968,0.8629697799682617
0.6838628768920898,0.8675903320312500
0.6838628768920898,0.8675903320312500
0.6787342071533203,0.8620668411254883
0.6787342071533203,0.8620668411254883
0.6843898773193359,0.8663011550903320
0.6843898773193359,0.8663011550903320
0.6810304641723632,0.8671091079711913
0.6810304641723632,0.8671091079711913
0.6827344894409180,0.8651407241821288
0.6827344894409180,0.8651407241821288
0.6826618194580077,0.8689561843872070
0.6826618194580077,0.8689561843872070
0.6816238403320313,0.8639619827270507
0.6816238403320313,0.8639619827270507
0.6856601715087890,0.8681991577148437
0.6856601715087890,0.8681991577148437
0.6822727203369140,0.8689910888671875
0.6822727203369140,0.8689910888671875
0.6813549041748047,0.8660562515258788
0.6813549041748047,0.8660562515258788
0.6854724884033203,0.8706453323364257
0.6854724884033203,0.8706453323364257
0.6825731277465820,0.8654457092285156
0.6825731277465820,0.8654457092285156
0.6863061904907226,0.8698133468627930
0.6863061904907226,0.8698133468627930
0.6805183410644531,0.8694740295410156
0.6805183410644531,0.8694740295410156
0.6837856292724609,0.8666982650756836
0.6837856292724609,0.8666982650756836
0.6858959197998047,0.8706567764282226
0.6858959197998047,0.8706567764282226
0.6825136184692383,0.8650588989257812
0.6825136184692383,0.8650588989257812
0.6833959579467773,0.8676916122436523
0.6833959579467773,0.8676916122436523
0.6814830780029296,0.8672018051147461
0.6814830780029296,0.8672018051147461
0.6823179244995117,0.8637571334838867
0.6823179244995117,0.8637571334838867
0.6839847564697266,0.8674587249755860
0.6839847564697266,0.8674587249755860
0.6779645919799805,0.8601585388183594
0.6779645919799805,0.8601585388183594
0.6829822540283202,0.8629520416259765
0.6829822540283202,0.8629520416259765
0.6790781021118164,0.8625549316406250
0.6790781021118164,0.8625549316406250
0.6798551559448242,0.8591382980346679
0.6798551559448242,0.8591382980346679
0.6790437698364258,0.8618768692016602
0.6790437698364258,0.8618768692016602
0.6774690628051757,0.8557313919067383
0.6774690628051757,0.8557313919067383
0.6806110382080078,0.8589735031127930
0.6806110382080078,0.8589735031127930
0.6769105911254882,0.8591365814208984
0.6769105911254882,0.8591365814208984
0.6755012512207031,0.8552970886230469
0.6755012512207031,0.8552970886230469
0.6792806625366211,0.8592041015624999
0.6792806625366211,0.8592041015624999
0.6763389587402343,0.8536502838134765
0.6763389587402343,0.8536502838134765
0.6796028137207031,0.8574119567871094
0.6796028137207031,0.8574119567871094
0.6738647460937500,0.8574171066284180
0.6738647460937500,0.8574171066284180
0.6769689559936524,0.8547426223754883
0.6769689559936524,0.8547426223754883
0.6791971206665038,0.8591348648071289
0.6791971206665038,0.8591348648071289
0.6762989044189452,0.8544239044189453
0.6762989044189452,0.8544239044189453
0.6776344299316406,0.8575830459594727
0.6776344299316406,0.8575830459594727
0.6762914657592773,0.8582897186279297
0.6803924560546875,0.8582897186279297
0.6779434204101562,0.8559402465820313
0.6779434204101562,0.8559402465820313
0.6798202514648437,0.8606094360351563
0.6798202514648437,0.8606094360351563
0.6746744155883789,0.8550018310546875
0.6746744155883789,0.8550018310546875
0.6802722930908203,0.8588762283325195
0.6802722930908203,0.8588762283325195
0.6769649505615234,0.8596584320068359
0.6769649505615234,0.8596584320068359
0.6785385131835937,0.8574811935424804
0.6785385131835937,0.8574811935424804
0.6784126281738281,0.8612760543823242
0.6784126281738281,0.8612760543823242
0.6773180007934571,0.8562601089477538
0.6773180007934571,0.8562601089477538
0.6811620712280273,0.8600973129272461
0.6811620712280273,0.8600973129272461
0.6778884887695312,0.8609521865844726
0.6778884887695312,0.8609521865844726
0.6768671035766601,0.8580133438110351
0.6768671035766601,0.8580133438110351
0.6810670852661133,0.8621698379516601
0.6810670852661133,0.8621698379516601
0.6780755996704101,0.8574657440185547
0.6780755996704101,0.8574657440185547
0.6817892074584960,0.8616725921630859
0.6817892074584960,0.8616725921630859
0.6761209487915039,0.8617567062377930
0.6761209487915039,0.8617567062377930
0.6796611785888672,0.8592309951782227
0.6796611785888672,0.8592309951782227
0.6821205139160156,0.8638315200805664
0.6821205139160156,0.8638315200805664
0.6790283203124999,0.8590805053710937
0.6790283203124999,0.8590805053710937
0.6804370880126953,0.8624771118164062
0.6804370880126953,0.8624771118164062
0.6791868209838867,0.8632678985595703
0.6791868209838867,0.8632678985595703
0.6805406570434570,0.8610723495483398
0.6805406570434570,0.8610723495483398
0.6829101562500000,0.8659864425659179
0.6829101562500000,0.8659864425659179
0.6776201248168945,0.8602334976196289
0.6776201248168945,0.8602334976196289
0.6833496093750000,0.8641210556030273
0.6833496093750000,0.8641210556030273
0.6802545547485351,0.8651098251342774
0.6802545547485351,0.8651098251342774
0.6816953659057617,0.8628850936889648
0.6816953659057617,0.8628850936889648
0.6816524505615235,0.8668092727661133
0.6816524505615235,0.8668092727661133
0.6806047439575195,0.8618946075439453
0.6806047439575195,0.8618946075439453
0.6843566894531250,0.8659584045410156
0.6843566894531250,0.8659584045410156
0.6813508987426757,0.8672578811645507
0.6844419479370117,0.8672578811645507
0.6803346633911133,0.8641508102416992
0.6796926498413086,0.8641508102416992
0.6824752807617187,0.8684812545776367
0.6844081878662109,0.8684812545776367
0.6818727493286133,0.8638200759887695
0.6818727493286133,0.8638200759887695
0.6855016708374023,0.8677190780639649
0.6855016708374023,0.8677190780639649
0.6798145294189453,0.8681293487548828
0.6798145294189453,0.8681293487548828
0.6832912445068359,0.8657289505004883
0.6832912445068359,0.8657289505004883
0.6855302810668945,0.8702241897583007
0.6855302810668945,0.8702241897583007
0.6827430725097656,0.8658679962158203
0.6827430725097656,0.8658679962158203
0.6839733123779297,0.8686906814575195
0.6839733123779297,0.8686906814575195
0.6828117370605469,0.8696771621704101
0.6828117370605469,0.8696771621704101
0.6844276428222656,0.8674392700195312
0.6844276428222656,0.8674392700195312
0.6866392135620117,0.8719877243041992
0.6866392135620117,0.8719877243041992
0.6811220169067382,0.8666639328002930
0.6811220169067382,0.8666639328002930
0.6870311737060547,0.8702968597412110
0.6870311737060547,0.8702968597412110
0.6837650299072265,0.8714452743530273
0.6837650299072265,0.8714452743530273
0.6852464675903320,0.8692491531372070
0.6852464675903320,0.8692491531372070
0.6851572036743164,0.8729576110839844
0.6851572036743164,0.8729576110839844
0.6841506958007812,0.8680624008178711
0.6841506958007812,0.8680624008178711
0.6879684448242187,0.8715065002441406
0.6879684448242187,0.8715065002441406
0.6846462249755859,0.8727556228637695
0.6877944946289062,0.8727556228637695
0.6816867828369141,0.8694917678833007
0.6821485519409179,0.8694917678833007
0.6875902175903320,0.8734462738037109
0.6875902175903320,0.8734462738037109
0.6842433929443359,0.8680480957031250
0.6842433929443359,0.8680480957031250
0.6877767562866210,0.8715557098388672
0.6877767562866210,0.8715557098388672
0.6817537307739258,0.8710504531860351
0.6817537307739258,0.8710504531860351
0.6845741271972656,0.8673992156982422
0.6845741271972656,0.8673992156982422
0.6865453720092773,0.8708410263061523
0.6865453720092773,0.8708410263061523
0.6828163146972656,0.8650451660156250
0.6828163146972656,0.8650451660156250
0.6834119796752930,0.8667755126953125
0.6834119796752930,0.8667755126953125
0.6815425872802734,0.8664625167846679
0.6851097106933594,0.8664625167846679
0.6822040557861327,0.8628479003906250
0.6822040557861327,0.8628479003906250
0.6838199615478515,0.8663669586181640
0.6838199615478515,0.8663669586181640
0.6778020858764648,0.8595954895019531
0.6778020858764648,0.8595954895019531
0.6827127456665039,0.8619609832763672
0.6827127456665039,0.8619609832763672
0.6792234420776367,0.8620594024658202
0.6792234420776367,0.8620594024658202
0.6797693252563476,0.8587623596191406
0.6797693252563476,0.8587623596191406
0.6792222976684570,0.8618413925170898
0.6792222976684570,0.8618413925170898
0.6776847839355469,0.8562692642211914
0.6776847839355469,0.8562692642211914
0.6809400558471680,0.8592481613159180
0.6809400558471680,0.8592481613159180
0.6777288436889648,0.8602798461914062
0.6777288436889648,0.8602798461914062
0.6762851715087891,0.8565599441528320
0.6762851715087891,0.8565599441528320
0.6804044723510742,0.8605911254882812
0.6804044723510742,0.8605911254882812
0.6775348663330077,0.8558778762817383
0.6775348663330077,0.8558778762817383
0.6809846878051757,0.8593580245971679
0.6809846878051757,0.8593580245971679
0.6754663467407226,0.8599056243896485
0.6754663467407226,0.8599056243896485
0.6786231994628906,0.8572671890258788
0.6786231994628906,0.8572671890258788
0.6810384750366211,0.8618196487426758
0.6810384750366211,0.8618196487426758
0.6781173706054687,0.8574731826782226
0.6781173706054687,0.8574731826782226
0.6793584823608398,0.8602014541625976
0.6750629425048827,0.8602014541625976
0.6782958984374999,0.8611770629882812
0.6782958984374999,0.8611770629882812
0.6796892166137695,0.8586805343627929
0.6796892166137695,0.8586805343627929
0.6819631576538085,0.8632318496704101
0.6819631576538085,0.8632318496704101
0.6764368057250977,0.8578359603881835
0.6764368057250977,0.8578359603881835
0.6820793151855469,0.8611690521240234
0.6820793151855469,0.8611690521240234
0.6789447784423828,0.8624999999999999
0.6789447784423828,0.8624999999999999
0.6803667068481445,0.8604692459106446
0.6803667068481445,0.8604692459106446
0.6802665710449218,0.8638904571533202
0.6802665710449218,0.8638904571533202
0.6792085647583007,0.8590404510498046
0.6792085647583007,0.8590404510498046
0.6831270217895508,0.8625337600708007
0.6831270217895508,0.8625337600708007
0.6798700332641602,0.8637622833251953
0.6798700332641602,0.8637622833251953
0.6786094665527344,0.8607336044311523
0.6786094665527344,0.8607336044311523
0.6830068588256836,0.8650056838989257
0.6830068588256836,0.8650056838989257
0.6798460006713867,0.8604383468627930
0.6798460006713867,0.8604383468627930
0.6837060928344726,0.8642051696777343
0.6837060928344726,0.8642051696777343
0.6780475616455078,0.8645507812500000
0.6780475616455078,0.8645507812500000
0.6813302993774414,0.8620256423950196
0.6813302993774414,0.8620256423950196
0.6839338302612304,0.8665454864501952
0.6839338302612304,0.8665454864501952
0.6807809829711914,0.8621875762939453
0.6807809829711914,0.8621875762939453
0.6820238113403320,0.8647722244262696
0.6820238113403320,0.8647722244262696
0.6810127258300781,0.8659698486328125
0.6810127258300781,0.8659698486328125
0.6822624206542969,0.8636381149291992
0.6822624206542969,0.8636381149291992
0.6847909927368164,0.8685241699218750
0.6847909927368164,0.8685241699218750
0.6791233062744141,0.8631471633911133
0.6791233062744141,0.8631471633911133
0.6850021362304687,0.8662496566772461
0.6850021362304687,0.8662496566772461
0.6822029113769531,0.8677213668823242
0.6822029113769531,0.8677213668823242
0.6832489013671875,0.8654468536376952
0.6832489013671875,0.8654468536376952
0.6831911087036132,0.8692863464355468
0.6831911087036132,0.8692863464355468
0.6821165084838867,0.8643980026245117
0.6821165084838867,0.8643980026245117
0.6859439849853516,0.8680149078369140
0.6859439849853516,0.8680149078369140
0.6829502105712890,0.8697057723999023
0.6829502105712890,0.8697057723999023
0.6817365646362304,0.8664356231689453
0.6817365646362304,0.8664356231689453
0.6861059188842773,0.8707448959350585
0.6861059188842773,0.8707448959350585
0.6833284378051757,0.8662725448608398
0.6833284378051757,0.8662725448608398
0.6869276046752929,0.8697172164916992
0.6869276046752929,0.8697172164916992
0.6815614700317383,0.8705549240112305
0.6815614700317383,0.8705549240112305
0.6846696853637695,0.8678993225097656
0.6846696853637695,0.8678993225097656
0.6871931076049804,0.8724105834960937
0.6871931076049804,0.8724105834960937
0.6842216491699219,0.8682712554931641
0.6842216491699219,0.8682712554931641
0.6856166839599609,0.8706287384033203
0.6856166839599609,0.8706287384033203
0.6845661163330078,0.8717857360839844
0.6845661163330078,0.8717857360839844
0.6859525680541992,0.8693813323974610
0.6830366134643554,0.8693813323974610
0.6881286621093750,0.8739200592041015
0.6881286621093750,0.8739200592041015
0.6825920104980469,0.8686964035034179
0.6825920104980469,0.8686964035034179
0.6882534027099609,0.8716094970703124
0.6882534027099609,0.8716094970703124
0.6851366043090820,0.8730005264282227
0.6851366043090820,0.8730005264282227
0.6863216400146485,0.8706464767456055
0.6863216400146485,0.8706464767456055
0.6859422683715820,0.8735012054443360
0.6859422683715820,0.8735012054443360
0.6845409393310546,0.8681957244873046
0.6845409393310546,0.8681957244873046
0.6880737304687500,0.8706813812255859
0.6831819534301757,0.8706813812255859
0.6842760086059571,0.8711385726928711
0.6842760086059571,0.8711385726928711
0.6824111938476562,0.8668802261352538
0.6824111938476562,0.8668802261352538
0.6860223770141601,0.8696079254150391
0.6860223770141601,0.8696079254150391
0.6822303771972656,0.8639877319335937
0.6822303771972656,0.8639877319335937
0.6853345870971680,0.8661392211914062
0.6853345870971680,0.8661392211914062
0.6790134429931640,0.8652580261230468
0.6790134429931640,0.8652580261230468
0.6814470291137695,0.8613172531127929
0.6814470291137695,0.8613172531127929
0.6832649230957031,0.8644397735595702
0.6832649230957031,0.8644397735595702
0.6793825149536132,0.8590730667114258
0.6793825149536132,0.8590730667114258
0.6801418304443360,0.8602930068969726
0.6801418304443360,0.8602930068969726
0.6783737182617188,0.8606386184692383
0.6783737182617188,0.8606386184692383
0.6790191650390625,0.8573627471923828
0.6790191650390625,0.8573627471923828
0.6810396194458007,0.8612606048583984
0.6810396194458007,0.8612606048583984
0.6750034332275391,0.8552930831909179
0.6750034332275391,0.8552930831909179
0.6805366516113281,0.8574851989746094
0.6805366516113281,0.8574851989746094
0.6773826599121093,0.8587863922119140
0.6773826599121093,0.8587863922119140
0.6782203674316406,0.8561124801635742
0.6782203674316406,0.8561124801635742
0.6780876159667969,0.8595062255859375
0.6780876159667969,0.8595062255859375
0.6767858505249024,0.8548330307006836
0.6767858505249024,0.8548330307006836
0.6806493759155273,0.8578508377075195
0.6806493759155273,0.8578508377075195
0.6776041030883789,0.8597785949707031
0.6776041030883789,0.8597785949707031
0.6763172149658203,0.8564586639404297
0.6763172149658203,0.8564586639404297
0.6808387756347656,0.8604434967041016
0.6808387756347656,0.8604434967041016
0.6778821945190430,0.8564603805541992
0.6822795867919922,0.8564603805541992
0.6817417144775391,0.8593814849853515
0.6817417144775391,0.8593814849853515
0.6762359619140624,0.8604412078857422
0.6762359619140624,0.8604412078857422
0.6793287277221679,0.8577341079711914
0.6793287277221679,0.8577341079711914
0.6816324234008789,0.8620914459228516
0.6788040161132812,0.8620914459228516
0.6785717010498047,0.8583297729492188
0.6785717010498047,0.8583297729492188
0.6801383972167968,0.8601716995239258
0.6801383972167968,0.8601716995239258
0.6789945602416992,0.8615221023559571
0.6789945602416992,0.8615221023559571
0.6803266525268554,0.8590993881225586
0.6803266525268554,0.8590993881225586
0.6826457977294922,0.8634944915771484
0.6826457977294922,0.8634944915771484
0.6770124435424805,0.8586112976074218
0.6770124435424805,0.8586112976074218
0.6830966949462890,0.8612623214721680
0.6830966949462890,0.8612623214721680
0.6800439834594726,0.8632215499877930
0.6800439834594726,0.8632215499877930
0.6813589096069336,0.8611467361450195
0.6813589096069336,0.8611467361450195
0.6815139770507812,0.8646503448486328
0.6815139770507812,0.8646503448486328
0.6803134918212891,0.8604183197021484
0.6803134918212891,0.8604183197021484
0.6848236083984375,0.8632822036743164
0.6848236083984375,0.8632822036743164
0.6816976547241210,0.8653146743774414
0.6816976547241210,0.8653146743774414
0.6805160522460937,0.8623180389404297
0.6805160522460937,0.8623180389404297
0.6849912643432617,0.8665603637695313
0.6849912643432617,0.8665603637695313
0.6818344116210937,0.8628582000732422
0.6818344116210937,0.8628582000732422
0.6862529754638672,0.8660511016845703
0.6862529754638672,0.8660511016845703
0.6808376312255859,0.8669912338256835
0.6808376312255859,0.8669912338256835
0.6840694427490234,0.8643997192382812
0.6840694427490234,0.8643997192382812
0.6868766784667969,0.8690488815307617
0.6868766784667969,0.8690488815307617
0.6832403182983399,0.8651201248168945
0.6832403182983399,0.8651201248168945
0.6850645065307617,0.8673871994018555
0.6850645065307617,0.8673871994018555
0.6840368270874023,0.8689790725708008
0.6840368270874023,0.8689790725708008
0.6851142883300781,0.8666009902954102
0.6851142883300781,0.8666009902954102
0.6879032135009765,0.8713285446166992
0.6879032135009765,0.8713285446166992
0.6820650100708008,0.8665163040161132
0.6820650100708008,0.8665163040161132
0.6883169174194336,0.8689990997314453
0.6883169174194336,0.8689990997314453
0.6854810714721680,0.8709577560424805
0.6854810714721680,0.8709577560424805
0.6864137649536133,0.8687118530273438
0.6864137649536133,0.8687118530273438
0.6865859985351562,0.8724397659301758
0.6865859985351562,0.8724397659301758
0.6852396011352538,0.8682855606079102
0.6852396011352538,0.8682855606079102
0.6895042419433594,0.8710647583007812
0.6895042419433594,0.8710647583007812
0.6864847183227539,0.8731956481933594
0.6864847183227539,0.8731956481933594
0.6850456237792969,0.8698837280273437
0.6850456237792969,0.8698837280273437
0.6896650314331054,0.8738576889038085
0.6896650314331054,0.8738576889038085
0.6861820220947266,0.8699684143066406
0.6861820220947266,0.8699684143066406
0.6902063369750976,0.8724552154541015
0.6902063369750976,0.8724552154541015
0.6842868804931640,0.8733123779296875
0.6842868804931640,0.8733123779296875
0.6871725082397461,0.8699958801269531
0.6871725082397461,0.8699958801269531
0.6892536163330077,0.8740539550781250
0.6892536163330077,0.8740539550781250
0.6853454589843749,0.8696491241455078
0.6853454589843749,0.8696491241455078
0.6865442276000976,0.8703609466552734
0.6865442276000976,0.8703609466552734
0.6847246170043945,0.8705085754394531
0.6884885787963867,0.8684881210327148
0.6852241516113281,0.8671102523803711
0.6852241516113281,0.8671102523803711
0.6868108749389649,0.8700799942016602
0.6868108749389649,0.8700799942016602
0.6799015045166016,0.8639768600463867
0.6799015045166016,0.8639768600463867
0.6851520538330078,0.8644849777221679
0.6851520538330078,0.8644849777221679
0.6810859680175781,0.8647104263305664
0.6810859680175781,0.8647104263305664
0.6810596466064452,0.8610357284545899
0.6810596466064452,0.8610357284545899
0.6802482604980469,0.8626047134399414
0.6802482604980469,0.8626047134399414
0.6776704788208008,0.8569381713867187
0.6776704788208008,0.8569381713867187
0.6812656402587890,0.8579681396484374
0.6812656402587890,0.8579681396484374
0.6770753860473633,0.8584093093872071
0.6770753860473633,0.8584093093872071
0.6747447967529296,0.8540874481201172
0.6747447967529296,0.8540874481201172
0.6786397933959961,0.8568151473999023
0.6786397933959961,0.8568151473999023
0.6742578506469726,0.8522775650024413
0.6742578506469726,0.8522775650024413
0.6783056259155273,0.8541315078735351
0.6783056259155273,0.8541315078735351
0.6723649978637695,0.8543575286865234
0.6723649978637695,0.8543575286865234
0.6749015808105469,0.8511806488037109
0.6749015808105469,0.8511806488037109
0.6773992538452148,0.8550556182861327
0.6773992538452148,0.8550556182861327
0.6735094070434570,0.8512584686279296
0.6735094070434570,0.8512584686279296
0.6754646301269531,0.8525379180908202
0.6754646301269531,0.8525379180908202
0.6742126464843750,0.8540765762329101
0.6742126464843750,0.8540765762329101
0.6751230239868163,0.8518924713134766
0.6751230239868163,0.8518924713134766
0.6779514312744140,0.8564048767089844
0.6748804092407227,0.8564048767089844
0.6718305587768555,0.8518999099731445
0.6772407531738281,0.8518999099731445
0.6785985946655273,0.8536119461059570
0.6785985946655273,0.8536119461059570
0.6758359909057617,0.8560466766357422
0.6758359909057617,0.8560466766357422
0.6767686843872071,0.8538751602172852
0.6767686843872071,0.8538751602172852
0.6772630691528320,0.8575063705444336
0.6772630691528320,0.8575063705444336
0.6756288528442382,0.8537326812744140
0.6756288528442382,0.8537326812744140
0.6802282333374023,0.8562000274658202
0.6802282333374023,0.8562000274658202
0.6775074005126953,0.8586181640625000
0.6775074005126953,0.8586181640625000
0.6759733200073242,0.8552267074584960
0.6759733200073242,0.8552267074584960
0.6807489395141602,0.8592693328857421
0.6807489395141602,0.8592693328857421
0.6772167205810546,0.8559276580810546
0.6772167205810546,0.8559276580810546
0.6818246841430664,0.8580699920654297
0.6818246841430664,0.8580699920654297
0.6764820098876952,0.8595628738403320
0.6764820098876952,0.8595628738403320
0.6792165756225585,0.8569810867309570
0.6792165756225585,0.8569810867309570
0.6820055007934570,0.8612216949462891
0.6820055007934570,0.8612216949462891
0.6783720016479492,0.8582342147827148
0.6783720016479492,0.8582342147827148
0.6806625366210938,0.8594718933105469
0.6806625366210938,0.8594718933105469
0.6796194076538086,0.8611415863037110
0.6796194076538086,0.8611415863037110
0.6806739807128906,0.8591783523559570
0.6806739807128906,0.8591783523559570
0.6833021163940429,0.8634098052978515
0.6833021163940429,0.8634098052978515
0.6771703720092773,0.8592819213867188
0.6771703720092773,0.8592819213867188
0.6838085174560546,0.8611061096191406
0.6838085174560546,0.8611061096191406
0.6807529449462890,0.8635368347167969
0.6807529449462890,0.8635368347167969
0.6817583084106446,0.8616777420043945
0.6817583084106446,0.8616777420043945
0.6820615768432617,0.8647974014282226
0.6820615768432617,0.8647974014282226
0.6802963256835938,0.8611289978027343
0.6802963256835938,0.8611289978027343
0.6851051330566406,0.8634338378906250
0.6851051330566406,0.8634338378906250
0.6820014953613281,0.8657495498657226
0.6820014953613281,0.8657495498657226
0.6804496765136718,0.8627099990844727
0.6804496765136718,0.8627099990844727
0.6850587844848632,0.8664602279663086
0.6850587844848632,0.8664602279663086
0.6812456130981445,0.8634138107299805
0.6812456130981445,0.8634138107299805
0.6861219406127930,0.8658880233764649
0.6861219406127930,0.8658880233764649
0.6805755615234375,0.8668756484985352
0.6805755615234375,0.8668756484985352
0.6833753585815430,0.8644100189208984
0.6833753585815430,0.8644100189208984
0.6863056182861328,0.8685562133789062
0.6863056182861328,0.8685562133789062
0.6823179244995117,0.8653278350830078
0.6823179244995117,0.8653278350830078
0.6845615386962890,0.8666490554809571
0.6845615386962890,0.8666490554809571
0.6835796356201171,0.8684555053710937
0.6835796356201171,0.8684555053710937
0.6842800140380859,0.8665094375610352
0.6842800140380859,0.8665094375610352
0.6871919631958008,0.8708581924438477
0.6871919631958008,0.8708581924438477
0.6808347702026367,0.8664688110351563
0.6808347702026367,0.8664688110351563
0.6874963760375976,0.8681407928466797
0.6874963760375976,0.8681407928466797
0.6847881317138672,0.8704221725463867
0.6871599197387696,0.8704221725463867
0.6855531692504883,0.8683456420898438
0.6855531692504883,0.8683456420898438
0.6856653213500976,0.8713857650756835
0.6856653213500976,0.8713857650756835
0.6835704803466797,0.8677282333374023
0.6835704803466797,0.8677282333374023
0.6881870269775391,0.8695232391357421
0.6881870269775391,0.8695232391357421
0.6851818084716796,0.8716758728027344
0.6851818084716796,0.8716758728027344
0.6830377578735352,0.8677333831787110
0.6830377578735352,0.8677333831787110
0.6874265670776367,0.8703557968139648
0.6874265670776367,0.8703557968139648
0.6831619262695312,0.8662559509277343
0.6831619262695312,0.8662559509277343
0.6871301651000976,0.8668876647949219
0.6871301651000976,0.8668876647949219
0.6809383392333984,0.8669088363647460
0.6809383392333984,0.8669088363647460
0.6826412200927734,0.8626064300537110
0.6826412200927734,0.8626064300537110
0.6844310760498047,0.8650320053100585
0.6844310760498047,0.8650320053100585
0.6796268463134766,0.8605430603027343
0.6796268463134766,0.8605430603027343
0.6808696746826172,0.8596115112304688
0.6808696746826172,0.8596115112304688
0.6789665222167969,0.8596069335937500
0.6789665222167969,0.8596069335937500
0.6789178848266602,0.8558418273925781
0.6789178848266602,0.8558418273925781
0.6806184768676757,0.8582136154174804
0.6806184768676757,0.8582136154174804
0.6732822418212890,0.8529710769653320
0.6732822418212890,0.8529710769653320
0.6793092727661133,0.8532657623291016
0.6751104354858398,0.8532657623291016
0.6757055282592773,0.8545063018798827
0.6757055282592773,0.8545063018798827
0.6759103775024414,0.8516647338867187
0.6759103775024414,0.8516647338867187
0.6756465911865234,0.8536027908325196
0.6756465911865234,0.8536027908325196
0.6730688095092773,0.8493370056152344
0.6730688095092773,0.8493370056152344
0.6776865005493163,0.8505592346191406
0.6776865005493163,0.8505592346191406
0.6744152069091797,0.8524652481079101
0.6744152069091797,0.8524652481079101
0.6723913192749024,0.8489261627197265
0.6723913192749024,0.8489261627197265
0.6769277572631835,0.8519954681396484
0.6769277572631835,0.8519954681396484
0.6726699829101562,0.8490022659301758
0.6726699829101562,0.8490022659301758
0.6775909423828125,0.8511074066162109
0.6775909423828125,0.8511074066162109
0.6721647262573242,0.8522632598876952
0.6721647262573242,0.8522632598876952
0.6748861312866211,0.8495510101318359
0.6748861312866211,0.8495510101318359
0.6779783248901367,0.8535140991210938
0.6779783248901367,0.8535140991210938
0.6737503051757813,0.8506610870361327
0.6737503051757813,0.8506610870361327
0.6762079238891602,0.8518083572387695
0.6762079238891602,0.8518083572387695
0.6753890991210937,0.8535421371459960
0.6753890991210937,0.8535421371459960
0.6759767532348633,0.8516738891601562
0.6759767532348633,0.8516738891601562
0.6790397644042968,0.8558509826660156
0.6790397644042968,0.8558509826660156
0.6724016189575195,0.8516693115234375
0.6724016189575195,0.8516693115234375
0.6792119979858399,0.8529270172119140
0.6792119979858399,0.8529270172119140
0.6764579772949219,0.8554132461547851
0.6764579772949219,0.8554132461547851
0.6768825531005859,0.8531032562255859
0.6768825531005859,0.8531032562255859
0.6771841049194336,0.8560586929321289
0.6771841049194336,0.8560586929321289
0.6748569488525390,0.8525247573852539
0.6748569488525390,0.8525247573852539
0.6797344207763671,0.8543884277343750
0.6797344207763671,0.8543884277343750
0.6771303176879883,0.8571521759033203
0.6771303176879883,0.8571521759033203
0.6751350402832031,0.8539695739746094
0.6751350402832031,0.8539695739746094
0.6799736022949219,0.8572397232055664
0.6799736022949219,0.8572397232055664
0.6758777618408203,0.8546224594116211
0.6758777618408203,0.8546224594116211
0.6807907104492187,0.8563917160034179
0.6807907104492187,0.8563917160034179
0.6756975173950195,0.8581226348876952
0.6756975173950195,0.8581226348876952
0.6782106399536133,0.8554355621337890
0.6782106399536133,0.8554355621337890
0.6810213088989258,0.8596023559570313
0.6810213088989258,0.8596023559570313
0.6771537780761718,0.8571922302246093
0.6771537780761718,0.8571922302246093
0.6796503067016602,0.8580562591552734
0.6796503067016602,0.8580562591552734
0.6790168762207031,0.8600841522216797
0.6790168762207031,0.8600841522216797
0.6797721862792968,0.8580625534057617
0.6797721862792968,0.8580625534057617
0.6826795578002930,0.8619049072265624
0.6826795578002930,0.8619049072265624
0.6760356903076171,0.8584888458251952
0.6760356903076171,0.8584888458251952
0.6829656600952149,0.8598621368408202
0.6829656600952149,0.8598621368408202
0.6803203582763672,0.8625617980957031
0.6803203582763672,0.8625617980957031
0.6808994293212890,0.8607770919799804
0.6808994293212890,0.8607770919799804
0.6814945220947265,0.8634035110473632
0.6814945220947265,0.8634035110473632
0.6791290283203125,0.8602300643920898
0.6791290283203125,0.8602300643920898
0.6844076156616211,0.8622430801391602
0.6844076156616211,0.8622430801391602
0.6816484451293945,0.8647310256958007
0.6816484451293945,0.8647310256958007
0.6797893524169921,0.8619232177734375
0.6797893524169921,0.8619232177734375
0.6847640991210937,0.8653020858764648
0.6847640991210937,0.8653020858764648
0.6803810119628906,0.8626001358032226
0.6803810119628906,0.8626001358032226
0.6855428695678710,0.8648157119750977
0.6809360504150390,0.8648157119750977
0.6804834365844726,0.8662622451782226
0.6804834365844726,0.8662622451782226
0.6827997207641602,0.8633708953857422
0.6827997207641602,0.8633708953857422
0.6860492706298827,0.8674306869506836
0.6860492706298827,0.8674306869506836
0.6815637588500977,0.8644958496093750
0.6815637588500977,0.8644958496093750
0.6842027664184570,0.8657821655273438
0.6842027664184570,0.8657821655273438
0.6834302902221679,0.8677556991577148
0.6834302902221679,0.8677556991577148
0.6838428497314453,0.8656024932861328
0.6838428497314453,0.8656024932861328
0.6870386123657226,0.8697200775146484
0.6870386123657226,0.8697200775146484
0.6802448272705078,0.8658594131469727
0.6802448272705078,0.8658594131469727
0.6872039794921875,0.8671331405639648
0.6872039794921875,0.8671331405639648
0.6849231719970703,0.8698328018188476
0.6849231719970703,0.8698328018188476
0.6851211547851562,0.8676509857177734
0.6851211547851562,0.8676509857177734
0.6857397079467773,0.8706190109252929
0.6857397079467773,0.8706190109252929
0.6832901000976562,0.8672624588012695
0.6832901000976562,0.8672624588012695
0.6883003234863281,0.8692119598388671
0.6883003234863281,0.8692119598388671
0.6886041641235351,0.8685728073120117
0.6886041641235351,0.8705818176269531
0.6832174301147461,0.8700061798095703
0.6887483596801758,0.8700061798095703
0.6872509002685546,0.8679977416992187
0.6872509002685546,0.8679977416992187
0.6869630813598633,0.8750381469726562
0.6869630813598633,0.8750381469726562
0.6840574264526367,0.8651481628417969
0.6840574264526367,0.8651481628417969
0.6867479324340821,0.8682849884033202
0.6867479324340821,0.8682849884033202
0.6820827484130859,0.8666118621826172
0.6820827484130859,0.8666118621826172
0.6845466613769531,0.8676452636718750
0.6845466613769531,0.8676452636718750
0.6840213775634766,0.8654703140258789
0.6840213775634766,0.8654703140258789
0.6805492401123047,0.8589563369750977
0.6805492401123047,0.8589563369750977
0.6841289520263671,0.8614717483520508
0.6789230346679688,0.8614717483520508
0.6776447296142578,0.8634544372558594
0.6776447296142578,0.8634544372558594
0.6803409576416015,0.8560970306396484
0.6803409576416015,0.8560970306396484
0.6791187286376953,0.8581558227539062
0.6791187286376953,0.8581558227539062
0.6768665313720703,0.8519989013671875
0.6768665313720703,0.8519989013671875
0.6798488616943359,0.8591136932373047
0.6798488616943359,0.8591136932373047
0.6742338180541992,0.8535627365112305
0.6742338180541992,0.8535627365112305
0.6771371841430663,0.8508613586425781
0.6771371841430663,0.8508613586425781
0.6775714874267578,0.8537755966186523
0.6775714874267578,0.8537755966186523
0.6741279602050781,0.8522031784057617
0.6741279602050781,0.8522031784057617
0.6778415679931641,0.8517042160034179
0.6778415679931641,0.8517042160034179
0.6718013763427734,0.8508110046386719
0.6718013763427734,0.8508110046386719
0.6761775970458984,0.8489433288574219
0.6761775970458984,0.8489433288574219
0.6761913299560547,0.8565204620361327
0.6761913299560547,0.8565204620361327
0.6735551834106445,0.8473932266235351
0.6735551834106445,0.8473932266235351
0.6775274276733398,0.8514879226684570
0.6775274276733398,0.8514879226684570
0.6730247497558594,0.8511377334594726
0.6730247497558594,0.8511377334594726
0.6760923385620117,0.8536468505859375
0.6760923385620117,0.8536468505859375
0.6767641067504883,0.8533372879028320
0.6767641067504883,0.8533372879028320
0.6735563278198242,0.8484970092773437
0.6735563278198242,0.8484970092773437
0.6786500930786132,0.8528875350952149
0.6786500930786132,0.8528875350952149
0.6733823776245117,0.8566904067993164
0.6733823776245117,0.8566904067993164
0.6768808364868164,0.8509792327880860
0.6768808364868164,0.8509792327880860
0.6773180007934571,0.8546304702758789
0.6773180007934571,0.8546304702758789
0.6753776550292968,0.8499052047729492
0.6753776550292968,0.8499052047729492
0.6790678024291992,0.8582897186279297
0.6790678024291992,0.8582897186279297
0.6741388320922851,0.8537858963012696
0.6741388320922851,0.8537858963012696
0.6741188049316406,0.8521682739257812
0.6786420822143554,0.8560655593872070
0.6786420822143554,0.8560655593872070
0.6757049560546875,0.8553800582885742
0.6757049560546875,0.8553800582885742
0.6799867630004882,0.8556261062622070
0.6799867630004882,0.8556261062622070
0.6749542236328124,0.8551963806152344
0.6749542236328124,0.8551963806152344
0.6788795471191406,0.8537006378173828
0.6788795471191406,0.8537006378173828
0.6792234420776367,0.8617509841918946
0.6792234420776367,0.8617509841918946
0.6765655517578125,0.8527782440185546
0.6765655517578125,0.8527782440185546
0.6801847457885742,0.8570566177368164
0.6801847457885742,0.8570566177368164
0.6764287948608398,0.8570251464843750
0.6764287948608398,0.8570251464843750
0.6795427322387695,0.8595703124999999
0.6795427322387695,0.8595703124999999
0.6802803039550781,0.8593585968017577
0.6802803039550781,0.8593585968017577
0.6776464462280273,0.8546756744384766
0.6776464462280273,0.8546756744384766
0.6824449539184571,0.8591835021972656
0.6824449539184571,0.8591835021972656
0.6770828247070312,0.8629354476928711
0.6770828247070312,0.8629354476928711
0.6806144714355469,0.8571962356567383
0.6806144714355469,0.8571962356567383
0.6806179046630859,0.8612159729003906
0.6806179046630859,0.8612159729003906
0.6793075561523437,0.8566686630249023
0.6793075561523437,0.8566686630249023
0.6830818176269531,0.8651601791381835
0.6830818176269531,0.8651601791381835
0.6782117843627929,0.8608228683471679
0.6782117843627929,0.8608228683471679
0.6815752029418946,0.8592344284057617
0.6815752029418946,0.8592344284057617
0.6829502105712890,0.8633668899536132
0.6829502105712890,0.8633668899536132
0.6799896240234374,0.8628238677978516
0.6799896240234374,0.8628238677978516
0.6842868804931640,0.8629606246948242
0.6842868804931640,0.8629606246948242
0.6787525177001953,0.8626985549926758
0.6787525177001953,0.8626985549926758
0.6832757949829101,0.8612668991088867
0.6832757949829101,0.8612668991088867
0.6835830688476562,0.8694986343383789
0.6835830688476562,0.8694986343383789
0.6811809539794922,0.8603834152221680
0.6811809539794922,0.8603834152221680
0.6852493286132812,0.8648626327514648
0.6852493286132812,0.8648626327514648
0.6810527801513672,0.8646566390991210
0.6810527801513672,0.8646566390991210
0.6838909149169922,0.8672327041625977
0.6838909149169922,0.8672327041625977
0.6847251892089844,0.8670404434204101
0.6847251892089844,0.8670404434204101
0.6814184188842773,0.8622562408447265
0.6814184188842773,0.8622562408447265
0.6868383407592773,0.8666616439819336
0.6818607330322265,0.8666616439819336
0.6816564559936523,0.8706813812255859
0.6816564559936523,0.8706813812255859
0.6849752426147461,0.8649175643920898
0.6849752426147461,0.8649175643920898
0.6856664657592774,0.8688915252685546
0.6856664657592774,0.8688915252685546
0.6836729049682617,0.8640352249145508
0.6836729049682617,0.8640352249145508
0.6874317169189453,0.8726383209228515
0.6874317169189453,0.8726383209228515
0.6827722549438476,0.8682231903076172
0.6827722549438476,0.8682231903076172
0.6851469039916992,0.8665512084960937
0.6851469039916992,0.8665512084960937
0.6871662139892578,0.8705795288085937
0.6871662139892578,0.8705795288085937
0.6841478347778320,0.8697727203369140
0.6841478347778320,0.8697727203369140
0.6882516860961914,0.8698648452758789
0.6882516860961914,0.8698648452758789
0.6834686279296874,0.8696983337402343
0.6834686279296874,0.8696983337402343
0.6870620727539062,0.8680538177490235
0.6870620727539062,0.8680538177490235
0.6876388549804687,0.8760990142822266
0.6876388549804687,0.8760990142822266
0.6850204467773438,0.8670410156250000
0.6850204467773438,0.8670410156250000
0.6885503768920899,0.8713903427124023
0.6885503768920899,0.8713903427124023
0.6849620819091796,0.8712106704711914
0.6849620819091796,0.8712106704711914
0.6875850677490234,0.8737117767333984
0.6845684051513672,0.8737117767333984
0.6884840011596679,0.8735143661499023
0.6884840011596679,0.8735143661499023
0.6857036590576172,0.8684469223022461
0.6857036590576172,0.8684469223022461
0.6903717041015625,0.8727275848388671
0.6903717041015625,0.8727275848388671
0.6853872299194336,0.8765533447265624
0.6853872299194336,0.8765533447265624
0.6879673004150391,0.8704656600952149
0.6879673004150391,0.8704656600952149
0.6882642745971680,0.8739343643188476
0.6882642745971680,0.8739343643188476
0.6864395141601562,0.8684469223022461
0.6864395141601562,0.8684469223022461
0.6898206710815430,0.8764377593994140
0.6898206710815430,0.8764377593994140
0.6847412109375000,0.8710447311401367
0.6847412109375000,0.8710447311401367
0.6869178771972656,0.8681024551391602
0.6869178771972656,0.8681024551391602
0.6878236770629883,0.8709709167480468
0.6878236770629883,0.8709709167480468
0.6840637207031249,0.8687210083007812
0.6840637207031249,0.8687210083007812
0.6873476028442382,0.8673236846923827
0.6873476028442382,0.8673236846923827
0.6812919616699219,0.8654909133911133
0.6812919616699219,0.8654909133911133
0.6841873168945313,0.8621458053588867
0.6841873168945313,0.8621458053588867
0.6839258193969726,0.8686220169067382
0.6839258193969726,0.8686220169067382
0.6804124832153320,0.8578680038452148
0.6804124832153320,0.8578680038452148
0.6834857940673827,0.8605430603027343
0.6834857940673827,0.8605430603027343
0.6787313461303711,0.8590072631835938
0.6787313461303711,0.8590072631835938
0.6801515579223633,0.8600807189941406
0.6801515579223633,0.8600807189941406
0.6806339263916016,0.8587594985961914
0.6806339263916016,0.8587594985961914
0.6766044616699218,0.8526552200317382
0.6766044616699218,0.8526552200317382
0.6812461853027344,0.8560804367065430
0.6812461853027344,0.8560804367065430
0.6757650375366211,0.8591646194458008
0.6757650375366211,0.8591646194458008
0.6780235290527343,0.8527673721313477
0.6780235290527343,0.8527673721313477
0.6788480758666992,0.8561994552612304
0.6788480758666992,0.8561994552612304
0.6764379501342773,0.8506422042846680
0.6764379501342773,0.8506422042846680
0.6799879074096680,0.8589242935180664
0.6799879074096680,0.8589242935180664
0.6753129959106445,0.8543455123901367
0.6753129959106445,0.8543455123901367
0.6771360397338867,0.8525087356567382
0.6771360397338867,0.8525087356567382
0.6793973922729492,0.8565519332885742
0.6793973922729492,0.8565519332885742
0.6762537002563477,0.8554258346557617
0.6762537002563477,0.8554258346557617
0.6802511215209961,0.8555717468261719
0.6802511215209961,0.8555717468261719
0.6757598876953125,0.8554372787475586
0.6757598876953125,0.8554372787475586
0.6787393569946288,0.8536514282226563
0.6787393569946288,0.8536514282226563
0.6796010971069336,0.8616044998168945
0.6796010971069336,0.8616044998168945
0.6768545150756836,0.8523067474365235
0.6768545150756836,0.8523067474365235
0.6801532745361328,0.8566080093383789
0.6801532745361328,0.8566080093383789
0.6767950057983398,0.8564386367797852
0.6767950057983398,0.8564386367797852
0.6787044525146484,0.8586027145385742
0.6787044525146484,0.8586027145385742
0.6800342559814453,0.8585741043090820
0.6800342559814453,0.8585741043090820
0.6772642135620117,0.8532772064208984
0.6772642135620117,0.8532772064208984
0.6816696166992188,0.8577283859252930
0.6816696166992188,0.8577283859252930
0.6770696640014648,0.8615798950195312
0.6770696640014648,0.8615798950195312
0.6793590545654297,0.8556501388549804
0.6793590545654297,0.8556501388549804
0.6798934936523438,0.8596126556396484
0.6798934936523438,0.8596126556396484
0.6783422470092774,0.8545074462890625
0.6783422470092774,0.8545074462890625
0.6819980621337890,0.8630241394042969
0.6819980621337890,0.8630241394042969
0.6776647567749023,0.8586959838867188
0.6776647567749023,0.8586959838867188
0.6799009323120117,0.8570343017578125
0.6799009323120117,0.8570343017578125
0.6817102432250977,0.8612285614013672
0.6817102432250977,0.8612285614013672
0.6786483764648438,0.8600343704223633
0.6786483764648438,0.8600343704223633
0.6827322006225586,0.8604612350463867
0.6780715942382812,0.8604612350463867
0.6778146743774414,0.8603427886962890
0.6778146743774414,0.8603427886962890
0.6811397552490234,0.8585128784179688
0.6811397552490234,0.8585128784179688
0.6820323944091796,0.8667234420776367
0.6820323944091796,0.8667234420776367
0.6795318603515624,0.8576053619384766
0.6795318603515624,0.8576053619384766
0.6834005355834961,0.8620697021484375
0.6834005355834961,0.8620697021484375
0.6797870635986328,0.8619953155517578
0.6797870635986328,0.8619953155517578
0.6816003799438476,0.8642549514770508
0.6816003799438476,0.8642549514770508
0.6830549240112305,0.8644277572631835
0.6830549240112305,0.8644277572631835
0.6798025131225586,0.8593122482299804
0.6798025131225586,0.8593122482299804
0.6812095642089844,0.8612022399902344
0.6820804595947265,0.8612022399902344
0.6847314834594727,0.8662101745605468
0.6847314834594727,0.8662101745605468
0.6775863647460937,0.8623941421508788
0.6775863647460937,0.8623941421508788
0.6840007781982421,0.8628942489624023
0.6840007781982421,0.8628942489624023
0.6832036972045898,0.8661163330078124
0.6832036972045898,0.8661163330078124
0.6822532653808594,0.8629102706909180
0.6822532653808594,0.8629102706909180
0.6832403182983399,0.8669363021850586
0.6832403182983399,0.8669363021850586
0.6800754547119140,0.8633794784545898
0.6800754547119140,0.8633794784545898
0.6847257614135742,0.8650817871093750
0.6847257614135742,0.8650817871093750
0.6840036392211913,0.8682695388793945
0.6840036392211913,0.8682695388793945
0.6808822631835937,0.8638446807861327
0.6808822631835937,0.8638446807861327
0.6858215332031250,0.8679347991943359
0.6858215332031250,0.8679347991943359
0.6811277389526367,0.8655916213989258
0.6811277389526367,0.8655916213989258
0.6858667373657227,0.8667394638061523
0.6858667373657227,0.8667394638061523
0.6827882766723633,0.8689865112304688
0.6827882766723633,0.8689865112304688
0.6834474563598633,0.8648946762084960
0.6834474563598633,0.8648946762084960
0.6866918563842773,0.8699998855590820
0.6866918563842773,0.8699998855590820
0.6819396972656250,0.8675462722778320
0.6819396972656250,0.8675462722778320
0.6844470977783202,0.8676956176757812
0.6844470977783202,0.8676956176757812
0.6853317260742188,0.8699169158935547
0.6853317260742188,0.8699169158935547
0.6844493865966796,0.8669288635253906
0.6844493865966796,0.8669288635253906
0.6877189636230469,0.8717050552368164
0.6877189636230469,0.8717050552368164
0.6806613922119140,0.8682449340820312
0.6806613922119140,0.8682449340820312
0.6870265960693359,0.8684801101684571
0.6870265960693359,0.8684801101684571
0.6861328125000000,0.8719287872314453
0.6861328125000000,0.8719287872314453
0.6852630615234375,0.8688411712646484
0.6852630615234375,0.8688411712646484
0.6864435195922851,0.8727081298828124
0.6864435195922851,0.8727081298828124
0.6831739425659179,0.8689928054809570
0.6831739425659179,0.8689928054809570
0.6881069183349610,0.8706104278564453
0.6881069183349610,0.8706104278564453
0.6872646331787109,0.8734886169433593
0.6872646331787109,0.8734886169433593
0.6840362548828125,0.8690385818481445
0.6840362548828125,0.8690385818481445
0.6890527725219726,0.8733078002929687
0.6890527725219726,0.8733078002929687
0.6840053558349609,0.8707368850708007
0.6840053558349609,0.8707368850708007
0.6887020111083985,0.8718767166137695
0.6887020111083985,0.8718767166137695
0.6863342285156250,0.8734863281249999
0.6863342285156250,0.8734863281249999
0.6858524322509766,0.8684532165527343
0.6870677947998046,0.8684532165527343
0.6889766693115235,0.8731567382812500
0.6889766693115235,0.8731567382812500
0.6835344314575195,0.8693796157836914
0.6835344314575195,0.8693796157836914
0.6853340148925781,0.8687232971191406
0.6853340148925781,0.8687232971191406
0.6856819152832031,0.8698036193847656
0.6856819152832031,0.8698036193847656
0.6839727401733399,0.8651807785034179
0.6839727401733399,0.8651807785034179
0.6867284774780273,0.8693058013916015
0.6867284774780273,0.8693058013916015
0.6789213180541992,0.8639396667480469
0.6789213180541992,0.8639396667480469
0.6844419479370117,0.8627420425415039
0.6844419479370117,0.8627420425415039
0.6829771041870117,0.8648620605468750
0.6829771041870117,0.8648620605468750
0.6810888290405274,0.8598192214965820
0.6810888290405274,0.8598192214965820
0.6816026687622070,0.8630636215209960
0.6816026687622070,0.8630636215209960
0.6776596069335937,0.8583995819091796
0.6776596069335937,0.8583995819091796
0.6815946578979492,0.8586324691772461
0.6815946578979492,0.8586324691772461
0.6804817199707031,0.8611724853515624
0.6804817199707031,0.8611724853515624
0.6765769958496094,0.8554321289062500
0.6765769958496094,0.8554321289062500
0.6812347412109375,0.8591588973999024
0.6812347412109375,0.8591588973999024
0.6760643005371093,0.8562795639038085
0.6760643005371093,0.8562795639038085
0.6803094863891601,0.8567459106445312
0.6803094863891601,0.8567459106445312
0.6773431777954101,0.8588808059692382
0.6773431777954101,0.8588808059692382
0.6776727676391602,0.8541601181030273
0.6776727676391602,0.8541601181030273
0.6809429168701172,0.8596229553222656
0.6809429168701172,0.8596229553222656
0.6761501312255859,0.8570852279663086
0.6761501312255859,0.8570852279663086
0.6786048889160156,0.8569215774536133
0.6786048889160156,0.8569215774536133
0.6796749114990234,0.8591554641723632
0.6796749114990234,0.8591554641723632
0.6784990310668945,0.8557525634765625
0.6784990310668945,0.8557525634765625
0.6818830490112304,0.8608966827392578
0.6818830490112304,0.8608966827392578
0.6747768402099609,0.8574657440185547
0.6747768402099609,0.8574657440185547
0.6810287475585938,0.8575544357299805
0.6810287475585938,0.8575544357299805
0.6803146362304687,0.8609573364257812
0.6803146362304687,0.8609573364257812
0.6791673660278320,0.8574468612670898
0.6791673660278320,0.8574468612670898
0.6805234909057617,0.8616342544555664
0.6805234909057617,0.8616342544555664
0.6772407531738281,0.8580579757690430
0.6772407531738281,0.8580579757690430
0.6819374084472656,0.8593036651611328
0.6819374084472656,0.8593036651611328
0.6813314437866210,0.8623838424682617
0.6813314437866210,0.8623838424682617
0.6777894973754882,0.8577301025390625
0.6777894973754882,0.8577301025390625
0.6829868316650390,0.8622201919555664
0.6829868316650390,0.8622201919555664
0.6779211044311523,0.8600234985351562
0.6779211044311523,0.8600234985351562
0.6826824188232422,0.8611925125122070
0.6826824188232422,0.8611925125122070
0.6801298141479492,0.8632232666015625
0.6801298141479492,0.8632232666015625
0.6822498321533202,0.8584745407104492
0.6822498321533202,0.8584745407104492
0.6840019226074219,0.8641885757446289
0.6840019226074219,0.8641885757446289
0.6789516448974610,0.8615289688110351
0.6789516448974610,0.8615289688110351
0.6813772201538085,0.8618333816528320
0.6813772201538085,0.8618333816528320
0.6825942993164062,0.8641073226928710
0.6825942993164062,0.8641073226928710
0.6812387466430664,0.8605997085571289
0.6812387466430664,0.8605997085571289
0.6847892761230469,0.8662771224975586
0.6847892761230469,0.8662771224975586
0.6777122497558593,0.8626956939697266
0.6777122497558593,0.8626956939697266
0.6839246749877930,0.8628135681152344
0.6839246749877930,0.8628135681152344
0.6838165283203125,0.8664985656738281
0.6838165283203125,0.8664985656738281
0.6823041915893554,0.8625635147094727
0.6823041915893554,0.8625635147094727
0.6835395812988281,0.8672092437744140
0.6835395812988281,0.8672092437744140
0.6804056167602539,0.8637125015258789
0.6804056167602539,0.8637125015258789
0.6850507736206054,0.8651710510253906
0.6850507736206054,0.8651710510253906
0.6848127365112304,0.8689361572265625
0.6848127365112304,0.8689361572265625
0.6811798095703124,0.8637010574340820
0.6811798095703124,0.8637010574340820
0.6864538192749023,0.8682100296020507
0.6864538192749023,0.8682100296020507
0.6815683364868164,0.8662055969238281
0.6878562927246094,0.8662055969238281
0.6862026214599609,0.8670793533325195
0.6862026214599609,0.8670793533325195
0.6836254119873046,0.8696880340576172
0.6836254119873046,0.8696880340576172
0.6837484359741210,0.8646898269653320
0.6837484359741210,0.8646898269653320
0.6874031066894531,0.8705062866210938
0.6874031066894531,0.8705062866210938
0.6825124740600585,0.8685235977172852
0.6825124740600585,0.8685235977172852
0.6848665237426758,0.8681619644165038
0.6848665237426758,0.8681619644165038
0.6863159179687500,0.8705863952636719
0.6863159179687500,0.8705863952636719
0.6848859786987305,0.8670049667358398
0.6848859786987305,0.8670049667358398
0.6884662628173828,0.8721891403198242
0.6884662628173828,0.8721891403198242
0.6812725067138672,0.8690185546875000
0.6812725067138672,0.8690185546875000
0.6875284194946288,0.8689418792724609
0.6875284194946288,0.8689418792724609
0.6871192932128906,0.8727533340454101
0.6871192932128906,0.8727533340454101
0.6857110977172851,0.8689258575439452
0.6857110977172851,0.8689258575439452
0.6870637893676758,0.8731184005737305
0.6870637893676758,0.8731184005737305
0.6838274002075195,0.8698127746582031
0.6838274002075195,0.8698127746582031
0.6885292053222656,0.8710876464843750
0.6885292053222656,0.8710876464843750
0.6881109237670898,0.8744144439697266
0.6881109237670898,0.8744144439697266
0.6843023300170898,0.8694150924682617
0.6843023300170898,0.8694150924682617
0.6896575927734375,0.8737318038940429
0.6896575927734375,0.8737318038940429
0.6846891403198242,0.8717880249023438
0.6846891403198242,0.8717880249023438
0.6893068313598633,0.8730611801147461
0.6893068313598633,0.8730611801147461
0.6866901397705077,0.8750799179077148
0.6866901397705077,0.8750799179077148
0.6867759704589843,0.8698596954345703
0.6867759704589843,0.8698596954345703
0.6905467987060546,0.8756744384765625
0.6905467987060546,0.8756744384765625
0.6857116699218749,0.8733512878417968
0.6857116699218749,0.8733512878417968
0.6877841949462891,0.8733661651611327
0.6877841949462891,0.8733661651611327
0.6892370223999024,0.8755325317382813
0.6892370223999024,0.8755325317382813
0.6874820709228515,0.8716403961181640
0.6874820709228515,0.8716403961181640
0.6911590576171874,0.8770729064941406
0.6911590576171874,0.8770729064941406
0.6838376998901367,0.8732425689697265
0.6838376998901367,0.8732425689697265
0.6898332595825195,0.8726686477661133
0.6898332595825195,0.8726686477661133
0.6893371582031250,0.8758666992187499
0.6893371582031250,0.8758666992187499
0.6872440338134765,0.8708805084228516
0.6872440338134765,0.8708805084228516
0.6883415222167969,0.8745460510253906
0.6883415222167969,0.8745460510253906
0.6846279144287110,0.8703941345214844
0.6846279144287110,0.8703941345214844
0.6885206222534179,0.8704593658447265
0.6885206222534179,0.8704593658447265
0.6876291275024414,0.8731315612792968
0.6873790740966796,0.8731315612792968
0.6830223083496093,0.8664035797119141
0.6846084594726562,0.8664035797119141
0.6879518508911132,0.8695878982543945
0.6837810516357422,0.8695878982543945
0.6825508117675781,0.8668367385864257
0.6825508117675781,0.8668367385864257
0.6863147735595703,0.8663177490234375
0.6863147735595703,0.8663177490234375
0.6830457687377930,0.8678438186645507
0.6830457687377930,0.8678438186645507
0.6825885772705078,0.8615627288818359
0.6825885772705078,0.8615627288818359
0.6856246948242187,0.8664636611938477
0.6856246948242187,0.8664636611938477
0.6805229187011719,0.8639402389526367
0.6805229187011719,0.8639402389526367
0.6821496963500976,0.8627111434936523
0.6821496963500976,0.8627111434936523
0.6832523345947266,0.8644363403320312
0.6832523345947266,0.8644363403320312
0.6813102722167969,0.8601722717285156
0.6813102722167969,0.8601722717285156
0.6848642349243164,0.8649215698242188
0.6848642349243164,0.8649215698242188
0.6775279998779297,0.8618951797485351
0.6836528778076172,0.8618951797485351
0.6834114074707031,0.8612794876098633
0.6834114074707031,0.8612794876098633
0.6831619262695312,0.8650623321533203
0.6831619262695312,0.8650623321533203
0.6814023971557617,0.8609836578369140
0.6814023971557617,0.8609836578369140
0.6828557968139648,0.8649398803710937
0.6828557968139648,0.8649398803710937
0.6797189712524414,0.8618831634521484
0.6797189712524414,0.8618831634521484
0.6842216491699219,0.8628753662109375
0.6842216491699219,0.8628753662109375
0.6849998474121094,0.8644912719726562
0.6849998474121094,0.8644912719726562
0.6843532562255860,0.8650651931762695
0.6852338790893554,0.8650651931762695
0.6831756591796875,0.8626253128051757
0.6831756591796875,0.8626253128051757
0.6850736618041992,0.8710321426391602
0.6850736618041992,0.8710321426391602
0.6820158004760742,0.8620943069458008
0.6820158004760742,0.8620943069458008
0.6853723526000977,0.8654439926147460
0.6853723526000977,0.8654439926147460
0.6824363708496094,0.8659978866577148
0.6824363708496094,0.8659978866577148
0.6833044052124023,0.8675193786621094
0.6833044052124023,0.8675193786621094
0.6855794906616210,0.8676784515380859
0.6855794906616210,0.8676784515380859
0.6818790435791016,0.8629262924194335
0.6818790435791016,0.8629262924194335
0.6864515304565429,0.8663846969604492
0.6864515304565429,0.8663846969604492
0.6827253341674805,0.8712478637695312
0.6827253341674805,0.8712478637695312
0.6839515686035156,0.8646841049194336
0.6839515686035156,0.8646841049194336
0.6861036300659179,0.8688257217407226
0.6861036300659179,0.8688257217407226
0.6835544586181640,0.8641250610351562
0.6835544586181640,0.8641250610351562
0.6868480682373047,0.8717256546020508
0.6868480682373047,0.8717256546020508
0.6834314346313476,0.8681985855102539
0.6834314346313476,0.8681985855102539
0.6839132308959961,0.8657140731811523
0.6839132308959961,0.8657140731811523
0.6873722076416016,0.8700531005859374
0.6873722076416016,0.8700531005859374
0.6839738845825195,0.8695981979370117
0.6839738845825195,0.8695981979370117
0.6876022338867187,0.8690156936645508
0.6876022338867187,0.8690156936645508
0.6841043472290039,0.8696908950805664
0.6841043472290039,0.8696908950805664
0.6858489990234374,0.8673351287841796
0.6858489990234374,0.8673351287841796
0.6878557205200195,0.8758792877197266
0.6878557205200195,0.8758792877197266
0.6848384857177734,0.8670255661010742
0.6848384857177734,0.8670255661010742
0.6877475738525390,0.8703907012939452
0.6877475738525390,0.8703907012939452
0.6856201171874999,0.8712467193603516
0.6856201171874999,0.8712467193603516
0.6863731384277344,0.8730056762695312
0.6863731384277344,0.8730056762695312
0.6888118743896484,0.8731876373291015
0.6888118743896484,0.8731876373291015
0.6856710433959960,0.8686122894287109
0.6856710433959960,0.8686122894287109
0.6898160934448242,0.8718784332275390
0.6898160934448242,0.8718784332275390
0.6861150741577148,0.8769567489624023
0.6861150741577148,0.8769567489624023
0.6873882293701171,0.8704015731811523
0.6873882293701171,0.8704015731811523
0.6890441894531250,0.8745380401611328
0.6890441894531250,0.8745380401611328
0.6868858337402344,0.8700931549072265
0.6868858337402344,0.8700931549072265
0.6903482437133789,0.8774654388427734
0.6903482437133789,0.8774654388427734
0.6870065689086914,0.8742004394531250
0.6870065689086914,0.8742004394531250
0.6879850387573242,0.8715957641601563
0.6879850387573242,0.8715957641601563
0.6908512115478516,0.8758810043334960
0.6908512115478516,0.8758810043334960
0.6874002456665039,0.8755868911743164
0.6874002456665039,0.8755868911743164
0.6910526275634765,0.8744905471801757
0.6910526275634765,0.8744905471801757
0.6870248794555663,0.8754478454589844
0.6870248794555663,0.8754478454589844
0.6891448974609374,0.8728866577148438
0.6891448974609374,0.8728866577148438
0.6912425994873047,0.8813364028930664
0.6912425994873047,0.8813364028930664
0.6881732940673828,0.8726217269897460
0.6881732940673828,0.8726217269897460
0.6916934967041015,0.8756086349487304
0.6916934967041015,0.8756086349487304
0.6888124465942382,0.8765825271606446
0.6888124465942382,0.8765825271606446
0.6896078109741210,0.8781818389892578
0.6896078109741210,0.8781818389892578
0.6920614242553711,0.8783557891845702
0.6920614242553711,0.8783557891845702
0.6881721496582031,0.8737295150756835
0.6881721496582031,0.8737295150756835
0.6929174423217773,0.8766483306884766
0.6929174423217773,0.8766483306884766
0.6891769409179688,0.8820070266723633
0.6891769409179688,0.8820070266723633
0.6902177810668945,0.8752000808715820
0.6902177810668945,0.8752000808715820
0.6924442291259766,0.8794206619262696
0.6924442291259766,0.8794206619262696
0.6897085189819335,0.8747148513793945
0.6897085189819335,0.8747148513793945
0.6930765151977539,0.8818393707275390
0.6930765151977539,0.8818393707275390
0.6896982192993164,0.8786287307739258
0.6896982192993164,0.8786287307739258
0.6899322509765625,0.8757894515991210
0.6899322509765625,0.8757894515991210
0.6932132720947265,0.8797628402709960
0.6932132720947265,0.8797628402709960
0.6894670486450195,0.8790710449218749
0.6894670486450195,0.8790710449218749
0.6929683685302734,0.8773086547851562
0.6929683685302734,0.8773086547851562
0.6891448974609374,0.8778619766235352
0.6891448974609374,0.8778619766235352
0.6901794433593750,0.8743801116943359
0.6901794433593750,0.8743801116943359
0.6918308258056640,0.8820796966552734
0.6918308258056640,0.8820796966552734
0.6880651473999023,0.8724620819091796
0.6880651473999023,0.8724620819091796
0.6907070159912109,0.8741209030151367
0.6907070159912109,0.8741209030151367
0.6878923416137696,0.8743131637573242
0.6878923416137696,0.8743131637573242
0.6878946304321288,0.8748058319091797
0.6878946304321288,0.8748058319091797
0.6897600173950195,0.8739337921142578
0.6897600173950195,0.8739337921142578
0.6857494354248047,0.8684326171875000
0.6857494354248047,0.8684326171875000
0.6894807815551758,0.8702184677124023
0.6894807815551758,0.8702184677124023
0.6853054046630859,0.8746364593505859
0.6853054046630859,0.8746364593505859
0.6858140945434570,0.8670810699462891
0.6858140945434570,0.8670810699462891
0.6870695114135742,0.8703351974487304
0.6870695114135742,0.8703351974487304
0.6843126296997070,0.8653684616088867
0.6843126296997070,0.8653684616088867
0.6874746322631836,0.8714200973510742
0.6874746322631836,0.8714200973510742
0.6854295730590820,0.8680864334106445
0.6854295730590820,0.8680864334106445
0.6863124847412109,0.8656574249267578
0.6863124847412109,0.8656574249267578
0.6815460205078124,0.8633285522460937
0.6815460205078124,0.8633285522460937
0.6819007873535156,0.8653015136718750
0.6819007873535156,0.8691959381103516
0.6864715576171875,0.8670055389404296
0.6835092544555664,0.8670055389404296
0.6872674942016601,0.8675291061401367
0.6872674942016601,0.8632301330566406
0.6837764739990234,0.8700279235839844
0.6879066467285156,0.8690139770507812
0.6832809448242188,0.8690139770507812
0.6826051712036133,0.8679176330566406
0.6826051712036133,0.8679176330566406
0.6847423553466797,0.8667560577392578
0.6847423553466797,0.8667560577392578
0.6862403869628906,0.8693429946899414
0.6862403869628906,0.8693429946899414
0.6843280792236328,0.8649129867553711
0.6843280792236328,0.8649129867553711
0.6883358001708985,0.8705532073974609
0.6883358001708985,0.8705532073974609
0.6809211730957031,0.8683153152465820
0.6809211730957031,0.8683153152465820
0.6869235992431640,0.8667875289916992
0.6869235992431640,0.8667875289916992
0.6869968414306641,0.8710515975952148
0.6869968414306641,0.8710515975952148
0.6850061416625977,0.8659835815429687
0.6850061416625977,0.8659835815429687
0.6867656707763672,0.8704685211181641
0.6867656707763672,0.8704685211181641
0.6832414627075195,0.8685522079467773
0.6832414627075195,0.8685522079467773
0.6875415802001953,0.8686946868896485
0.6875415802001953,0.8686946868896485
0.6876777648925781,0.8727664947509766
0.6873332977294921,0.8727664947509766
0.6833541870117187,0.8666547775268555
0.6833541870117187,0.8666547775268555
0.6892473220825195,0.8705984115600586
0.6892473220825195,0.8705984115600586
0.6842004776000976,0.8705835342407227
0.6842004776000976,0.8705835342407227
0.6884262084960937,0.8700925827026367
0.6884262084960937,0.8700925827026367
0.6861013412475586,0.8728797912597656
0.6861013412475586,0.8728797912597656
0.6857442855834961,0.8670169830322265
0.6857442855834961,0.8670169830322265
0.6899333953857422,0.8727344512939453
0.6899333953857422,0.8727344512939453
0.6848264694213867,0.8726131439208984
0.6848264694213867,0.8726131439208984
0.6869590759277343,0.8708066940307617
0.6869590759277343,0.8708066940307617
0.6886762619018555,0.8733724594116211
0.6886762619018555,0.8733724594116211
0.6868108749389649,0.8691896438598633
0.6868108749389649,0.8691896438598633
0.6908397674560547,0.8743417739868163
0.6908397674560547,0.8743417739868163
0.6834463119506836,0.8730411529541016
0.6834463119506836,0.8730411529541016
0.6895259857177735,0.8712444305419922
0.6895259857177735,0.8712444305419922
0.6894384384155273,0.8757574081420898
0.6894384384155273,0.8757574081420898
0.6876605987548828,0.8713834762573242
0.6876605987548828,0.8713834762573242
0.6894006729125977,0.8751462936401367
0.6894006729125977,0.8751462936401367
0.6859411239624024,0.8734731674194336
0.6859411239624024,0.8734731674194336
0.6904500961303711,0.8734771728515625
0.6904500961303711,0.8734771728515625
0.6904066085815429,0.8770957946777344
0.6904066085815429,0.8770957946777344
0.6860481262207031,0.8715150833129882
0.6860481262207031,0.8715150833129882
0.6920391082763672,0.8754449844360351
0.6920391082763672,0.8754449844360351
0.6866106033325196,0.8756149291992187
0.6866106033325196,0.8756149291992187
0.6910984039306640,0.8753528594970703
0.6910984039306640,0.8753528594970703
0.6886968612670898,0.8776039123535156
0.6886968612670898,0.8776039123535156
0.6884948730468750,0.8717107772827148
0.6884948730468750,0.8717107772827148
0.6926170349121094,0.8774906158447265
0.6926170349121094,0.8774906158447265
0.6873504638671875,0.8769166946411132
0.6873504638671875,0.8769166946411132
0.6893274307250976,0.8751806259155274
0.6893274307250976,0.8751806259155274
0.6911636352539062,0.8778110504150390
0.6911636352539062,0.8778110504150390
0.6889955520629882,0.8736116409301757
0.6916397094726562,0.8736116409301757
0.6933071136474609,0.8791219711303710
0.6933071136474609,0.8791219711303710
0.6857631683349609,0.8774499893188477
0.6857631683349609,0.8774499893188477
0.6917409896850586,0.8753957748413086
0.6917409896850586,0.8753957748413086
0.6920127868652344,0.8798395156860351
0.6920127868652344,0.8798395156860351
0.6899402618408202,0.8748041152954101
0.6899402618408202,0.8748041152954101
0.6917169570922851,0.8790195465087890
0.6917169570922851,0.8790195465087890
0.6881006240844726,0.8773715972900390
0.6881006240844726,0.8773715972900390
0.6923412322998047,0.8771100997924804
0.6923412322998047,0.8771100997924804
0.6925020217895508,0.8812889099121094
0.6925020217895508,0.8812889099121094
0.6878299713134766,0.8747640609741211
0.6878299713134766,0.8747640609741211
0.6936922073364258,0.8781675338745117
0.6936922073364258,0.8781675338745117
0.6883975982666015,0.8781148910522460
0.6883975982666015,0.8781148910522460
0.6922056198120117,0.8764898300170898
0.6922056198120117,0.8764898300170898
0.6894710540771484,0.8786733627319335
0.6894710540771484,0.8786733627319335
0.6887620925903321,0.8717044830322266
0.6887620925903321,0.8717044830322266
0.6923503875732422,0.8767147064208984
0.6923503875732422,0.8767147064208984
0.6868137359619141,0.8758941650390625
0.6868137359619141,0.8758941650390625
0.6881658554077148,0.8726108551025390
0.6881658554077148,0.8726108551025390
0.6894247055053710,0.8723848342895507
0.6910486221313477,0.8723848342895507
0.6898801803588867,0.8777172088623046
0.6906040191650390,0.8777172088623046
0.6872016906738281,0.8699220657348633
0.6872016906738281,0.8699220657348633
0.6886728286743163,0.8730257034301757
0.6853769302368163,0.8730257034301757
0.6850896835327148,0.8684949874877930
0.6850896835327148,0.8684949874877930
0.6889554977416992,0.8736459732055664
0.6889554977416992,0.8736459732055664
0.6852985382080078,0.8708444595336914
0.6852985382080078,0.8708444595336914
0.6854478836059570,0.8673557281494141
0.6854478836059570,0.8673557281494141
0.6884262084960937,0.8710498809814453
0.6884262084960937,0.8710498809814453
0.6836214065551758,0.8709829330444335
0.6836214065551758,0.8709829330444335
0.6881063461303710,0.8682912826538086
0.6881063461303710,0.8682912826538086
0.6841764450073242,0.8700319290161133
0.6841764450073242,0.8700319290161133
0.6856504440307617,0.8671760559082031
0.6856504440307617,0.8671760559082031
0.6879421234130859,0.8752492904663086
0.6879421234130859,0.8752492904663086
0.6837404251098632,0.8671571731567382
0.6837404251098632,0.8671571731567382
0.6882888793945312,0.8687335968017578
0.6882888793945312,0.8687335968017578
0.6855829238891601,0.8708106994628906
0.6855829238891601,0.8708106994628906
0.6858249664306640,0.8720146179199219
0.6858249664306640,0.8720146179199219
0.6884685516357422,0.8718967437744141
0.6884685516357422,0.8718967437744141
0.6833633422851563,0.8680177688598633
0.6833633422851563,0.8680177688598633
0.6891746520996094,0.8695667266845702
0.6891746520996094,0.8695667266845702
0.6855514526367187,0.8757528305053711
0.6855514526367187,0.8757528305053711
0.6862117767333984,0.8687101364135742
0.6862117767333984,0.8687101364135742
0.6888250350952149,0.8725318908691406
0.6888250350952149,0.8725318908691406
0.6848178863525390,0.8688285827636718
0.6848178863525390,0.8688285827636718
0.6892318725585938,0.8744230270385742
0.6892318725585938,0.8744230270385742
0.6859857559204101,0.8723545074462891
0.6859857559204101,0.8723545074462891
0.6858226776123046,0.8693870544433594
0.6858226776123046,0.8693870544433594
0.6896879196166992,0.8734148025512695
0.6896879196166992,0.8734148025512695
0.6848997116088867,0.8738656997680664
0.6848997116088867,0.8738656997680664
0.6897474288940429,0.8711866378784180
0.6897474288940429,0.8711866378784180
0.6863817214965821,0.8731561660766601
0.6863817214965821,0.8731561660766601
0.6875890731811524,0.8702974319458008
0.6875890731811524,0.8702974319458008
0.6899322509765625,0.8785806655883789
0.6899322509765625,0.8785806655883789
0.6855182647705078,0.8707214355468750
0.6855182647705078,0.8707214355468750
0.6896009445190430,0.8721525192260742
0.6896009445190430,0.8721525192260742
0.6875381469726562,0.8742399215698242
0.6875381469726562,0.8742399215698242
0.6877985000610352,0.8757162094116211
0.6877985000610352,0.8757162094116211
0.6905828475952148,0.8753305435180664
0.6905828475952148,0.8753305435180664
0.6860275268554688,0.8719339370727539
0.6860275268554688,0.8719339370727539
0.6913558959960937,0.8734170913696289
0.6913558959960937,0.8734170913696289
0.6880456924438476,0.8797096252441406
0.6880456924438476,0.8797096252441406
0.6885251998901367,0.8728649139404296
0.6885251998901367,0.8728649139404296
0.6906234741210937,0.8766511917114258
0.6906234741210937,0.8766511917114258
0.6872245788574218,0.8732213973999023
0.6872245788574218,0.8732213973999023
0.6918954849243164,0.8789428710937500
0.6918954849243164,0.8789428710937500
0.6887861251831054,0.8768194198608398
0.6887861251831054,0.8768194198608398
0.6891277313232421,0.8740093231201171
0.6891277313232421,0.8740093231201171
0.6924396514892578,0.8779706954956055
0.6924396514892578,0.8779706954956055
0.6876251220703125,0.8785520553588867
0.6876251220703125,0.8785520553588867
0.6924797058105469,0.8758655548095703
0.6924797058105469,0.8758655548095703
0.6888072967529296,0.8779632568359375
0.6888072967529296,0.8779632568359375
0.6901531219482422,0.8750970840454101
0.6901531219482422,0.8750970840454101
0.6927377700805664,0.8832750320434570
0.6927377700805664,0.8832750320434570
0.6881252288818359,0.8754278182983398
0.6881252288818359,0.8754278182983398
0.6929254531860352,0.8767164230346679
0.6929254531860352,0.8767164230346679
0.6904186248779297,0.8790693283081055
0.6904186248779297,0.8790693283081055
0.6904781341552734,0.8803716659545898
0.6904781341552734,0.8803716659545898
0.6931961059570312,0.8799694061279296
0.6931961059570312,0.8799694061279296
0.6879747390747070,0.8762872695922851
0.6879747390747070,0.8762872695922851
0.6938701629638672,0.8778350830078124
0.6938701629638672,0.8778350830078124
0.6906372070312500,0.8843679428100586
0.6906372070312500,0.8843679428100586
0.6910125732421875,0.8771209716796875
0.6910125732421875,0.8771209716796875
0.6936515808105469,0.8808551788330078
0.6936515808105469,0.8808551788330078
0.6896169662475585,0.8773939132690429
0.6896169662475585,0.8773939132690429
0.6939445495605469,0.8829191207885742
0.6939445495605469,0.8829191207885742
0.6909587860107421,0.8806880950927735
0.6909587860107421,0.8806880950927735
0.6904964447021484,0.8777509689331054
0.6904964447021484,0.8777509689331054
0.6943033218383788,0.8812345504760742
0.6943033218383788,0.8812345504760742
0.6890539169311524,0.8817615509033203
0.6890539169311524,0.8817615509033203
0.6937385559082031,0.8784782409667968
0.6937385559082031,0.8784782409667968
0.6905347824096679,0.8801696777343749
0.6905347824096679,0.8801696777343749
0.6908237457275390,0.8766414642333984
0.6908237457275390,0.8766414642333984
0.6930793762207031,0.8839159011840820
0.6930793762207031,0.8839159011840820
0.6878740310668945,0.8754970550537109
0.6878740310668945,0.8754970550537109
0.6915767669677734,0.8758689880371093
0.6915767669677734,0.8758689880371093
0.6891866683959961,0.8771175384521485
0.6891866683959961,0.8771175384521485
0.6885211944580077,0.8773509979248046
0.6885211944580077,0.8773509979248046
0.6909044265747070,0.8759845733642578
0.6909044265747070,0.8759845733642578
0.6855588912963867,0.8715774536132812
0.6855588912963867,0.8715774536132812
0.6903837203979492,0.8720666885375976
0.6903837203979492,0.8720666885375976
0.6868183135986328,0.8777200698852539
0.6868183135986328,0.8777200698852539
0.6865957260131835,0.8697235107421875
0.6865957260131835,0.8697235107421875
0.6883661270141601,0.8727607727050781
0.6883661270141601,0.8727607727050781
0.6842388153076172,0.8687410354614258
0.6842388153076172,0.8687410354614258
0.6884456634521484,0.8736259460449218
0.6884456634521484,0.8736259460449218
0.6853597640991210,0.8714687347412109
0.6853597640991210,0.8714687347412109
0.6852327346801758,0.8680097579956054
0.6852327346801758,0.8680097579956054
0.6884971618652344,0.8714561462402344
0.6884971618652344,0.8714561462402344
0.6831968307495117,0.8720106124877930
0.6831968307495117,0.8720106124877930
0.6879467010498047,0.8689853668212890
0.6879467010498047,0.8689853668212890
0.6844356536865234,0.8711637496948242
0.6844356536865234,0.8711637496948242
0.6857339859008789,0.8681207656860351
0.6857339859008789,0.8681207656860351
0.6882860183715820,0.8760641098022460
0.6882860183715820,0.8760641098022460
0.6834325790405273,0.8685430526733399
0.6834325790405273,0.8685430526733399
0.6882339477539062,0.8696004867553710
0.6882339477539062,0.8696004867553710
0.6859302520751953,0.8720003128051758
0.6859302520751953,0.8720003128051758
0.6859554290771485,0.8731155395507812
0.6859554290771485,0.8731155395507812
0.6888324737548828,0.8726680755615234
0.6888324737548828,0.8726680755615234
0.6832357406616211,0.8692296981811524
0.6832357406616211,0.8692296981811524
0.6891397476196289,0.8704622268676757
0.6891397476196289,0.8704622268676757
0.6862695693969726,0.8769699096679687
0.6862695693969726,0.8769699096679687
0.6864097595214843,0.8697292327880859
0.6864097595214843,0.8697292327880859
0.6891214370727539,0.8732912063598632
0.6891214370727539,0.8732912063598632
0.6846765518188477,0.8699254989624023
0.6846765518188477,0.8699254989624023
0.6891042709350585,0.8751789093017578
0.6888628005981445,0.8733478546142578
0.6860298156738281,0.8703214645385742
0.6860298156738281,0.8703214645385742
0.6900146484374999,0.8740728378295898
0.6900146484374999,0.8740728378295898
0.6847429275512695,0.8748538970947265
0.6847429275512695,0.8748538970947265
0.6897165298461914,0.8720180511474609
0.6897165298461914,0.8720180511474609
0.6869459152221680,0.8741924285888671
0.6869459152221680,0.8741924285888671
0.6874603271484375,0.8711734771728515
0.6874603271484375,0.8711734771728515
0.6901308059692383,0.8790452957153320
0.6901308059692383,0.8790452957153320
0.6851892471313477,0.8715791702270508
0.6851892471313477,0.8715791702270508
0.6893743515014649,0.8727527618408203
0.6893743515014649,0.8727527618408203
0.6880022048950195,0.8752326965332031
0.6880022048950195,0.8752326965332031
0.6877573013305663,0.8763713836669922
0.6877573013305663,0.8763713836669922
0.6908409118652343,0.8760457992553711
0.6908409118652343,0.8760457992553711
0.6856058120727538,0.8726640701293945
0.6856058120727538,0.8726640701293945
0.6911081314086914,0.8739326477050781
0.6911081314086914,0.8739326477050781
0.6884050369262695,0.8805536270141602
0.6884050369262695,0.8805536270141602
0.6884943008422851,0.8733564376831054
0.6884943008422851,0.8733564376831054
0.6908460617065429,0.8772245407104492
0.6908460617065429,0.8772245407104492
0.6868051528930664,0.8738891601562500
0.6868051528930664,0.8738891601562500
0.6913249969482421,0.8793422698974609
0.6913249969482421,0.8793422698974609
0.6890762329101562,0.8776010513305664
0.6890762329101562,0.8776010513305664
0.6889892578125000,0.8744630813598633
0.6889892578125000,0.8744630813598633
0.6924287796020507,0.8783054351806641
0.6924287796020507,0.8783054351806641
0.6871313095092774,0.8790458679199219
0.6871313095092774,0.8790458679199219
0.6919961929321289,0.8761808395385742
0.6919961929321289,0.8761808395385742
0.6889183044433593,0.8786075592041015
0.6889183044433593,0.8786075592041015
0.6899803161621093,0.8755554199218750
0.6899803161621093,0.8755554199218750
0.6926628112792969,0.8833631515502930
0.6926628112792969,0.8833631515502930
0.6875410079956055,0.8759874343872071
0.6875410079956055,0.8759874343872071
0.6924608230590820,0.8770591735839843
0.6924608230590820,0.8770591735839843
0.6906469345092773,0.8795917510986327
0.6906469345092773,0.8795917510986327
0.6901525497436524,0.8807247161865234
0.6901525497436524,0.8807247161865234
0.6933322906494140,0.8803281784057617
0.6933322906494140,0.8803281784057617
0.6874425888061523,0.8770030975341797
0.6874425888061523,0.8770030975341797
0.6935222625732421,0.8780010223388671
0.6935222625732421,0.8780010223388671
0.6908483505249023,0.8846220016479492
0.6908483505249023,0.8846220016479492
0.6906967163085938,0.8773956298828125
0.6906967163085938,0.8773956298828125
0.6937025070190429,0.8809329986572265
0.6900587081909180,0.8809329986572265
0.6887924194335937,0.8773521423339844
0.6887924194335937,0.8773521423339844
0.6931337356567383,0.8822210311889648
0.6931337356567383,0.8822210311889648
0.6907121658325195,0.8799877166748047
0.6907121658325195,0.8799877166748047
0.6894990921020507,0.8760314941406250
0.6894990921020507,0.8760314941406250
0.6931657791137695,0.8790773391723633
0.6931657791137695,0.8790773391723633
0.6871696472167969,0.8789468765258789
0.6871696472167969,0.8789468765258789
0.6915458679199219,0.8726869583129883
0.6860549926757812,0.8726869583129883
0.6860549926757812,0.8714778900146484
0.6914857864379883,0.8736087799072265
0.6914857864379883,0.8736087799072265
0.6862913131713867,0.8733535766601562
0.6862913131713867,0.8733535766601562
0.6886762619018555,0.8704605102539062
0.6886762619018555,0.8704605102539062
0.6865453720092773,0.8728683471679687
0.6865453720092773,0.8728683471679687
0.6850593566894531,0.8654365539550781
0.6850593566894531,0.8654365539550781
0.6886053085327148,0.8701080322265625
0.6886053085327148,0.8701080322265625
0.6835824966430664,0.8696033477783203
0.6835824966430664,0.8696033477783203
0.6839166641235351,0.8657667160034179
0.6839166641235351,0.8657667160034179
0.6860263824462890,0.8677637100219726
0.6860263824462890,0.8677637100219726
0.6830743789672852,0.8631792068481445
0.6830743789672852,0.8631792068481445
0.6869556427001953,0.8671714782714843
0.6869556427001953,0.8671714782714843
0.6796966552734375,0.8658966064453125
0.6796966552734375,0.8658966064453125
0.6841621398925781,0.8625308990478515
0.6841621398925781,0.8625308990478515
0.6848098754882812,0.8672355651855469
0.6848098754882812,0.8672355651855469
0.6823104858398438,0.8628404617309570
0.6823104858398438,0.8628404617309570
0.6842994689941406,0.8659435272216797
0.6842994689941406,0.8659435272216797
0.6812856674194335,0.8644826889038085
0.6812856674194335,0.8644826889038085
0.6843137741088867,0.8637823104858399
0.6843137741088867,0.8637823104858399
0.6852567672729492,0.8678003311157226
0.6852567672729492,0.8678003311157226
0.6803209304809570,0.8623197555541992
0.6803209304809570,0.8623197555541992
0.6863119125366210,0.8654823303222656
0.6863119125366210,0.8654823303222656
0.6816307067871094,0.8666141510009765
0.6816307067871094,0.8666141510009765
0.6847503662109374,0.8653038024902343
0.6847503662109374,0.8653038024902343
0.6834577560424805,0.8682203292846680
0.6834577560424805,0.8682203292846680
0.6825725555419921,0.8620410919189453
0.6825725555419921,0.8620410919189453
0.6868886947631836,0.8676155090332031
0.6868886947631836,0.8676155090332031
0.6822544097900390,0.8675640106201171
0.6822544097900390,0.8675640106201171
0.6828998565673828,0.8651567459106445
0.6828998565673828,0.8651567459106445
0.6856716156005859,0.8678672790527343
0.6856716156005859,0.8678672790527343
0.6829656600952149,0.8639299392700195
0.6829656600952149,0.8639299392700195
0.6873510360717773,0.8692497253417969
0.6873510360717773,0.8692497253417969
0.6806293487548828,0.8678861618041992
0.6806293487548828,0.8678861618041992
0.6851634979248047,0.8649089813232421
0.6851634979248047,0.8649089813232421
0.6865242004394531,0.8701663970947265
0.6865242004394531,0.8701663970947265
0.6839292526245117,0.8653730392456055
0.6839292526245117,0.8653730392456055
0.6859022140502929,0.8692565917968750
0.6859022140502929,0.8692565917968750
0.6831413269042969,0.8678775787353515
0.6831413269042969,0.8678775787353515
0.6858833312988281,0.8673700332641602
0.6858833312988281,0.8673700332641602
0.6872097015380859,0.8723573684692383
0.6872097015380859,0.8723573684692383
0.6823654174804688,0.8661712646484375
0.6823654174804688,0.8661712646484375
0.6883369445800781,0.8694225311279297
0.6883369445800781,0.8694225311279297
0.6841346740722656,0.8705955505371094
0.6841346740722656,0.8705955505371094
0.6868177413940429,0.8689704895019531
0.6868177413940429,0.8689704895019531
0.6858907699584961,0.8728036880493164
0.6858907699584961,0.8728036880493164
0.6850805282592773,0.8664876937866210
0.6850805282592773,0.8664876937866210
0.6892215728759765,0.8721736907958985
0.6892215728759765,0.8721736907958985
0.6852075576782226,0.8730216979980469
0.6852075576782226,0.8730216979980469
0.6855594635009765,0.8700279235839844
0.6855594635009765,0.8700279235839844
0.6886579513549804,0.8729455947875976
0.6886579513549804,0.8729455947875976
0.6862644195556641,0.8691816329956055
0.6862644195556641,0.8691816329956055
0.6904603958129882,0.8738965988159180
0.6904603958129882,0.8738965988159180
0.6839458465576171,0.8733827590942382
0.6839458465576171,0.8733827590942382
0.6881406784057617,0.8703094482421875
0.6881406784057617,0.8703094482421875
0.6894767761230468,0.8756841659545899
0.6894767761230468,0.8756841659545899
0.6870471954345703,0.8713502883911133
0.6870471954345703,0.8713502883911133
0.6891403198242188,0.8747406005859375
0.6891403198242188,0.8747406005859375
0.6865545272827148,0.8734233856201171
0.6865545272827148,0.8734233856201171
0.6890750885009765,0.8728780746459961
0.6859605789184570,0.8728780746459961
0.6905364990234375,0.8773332595825195
0.6905364990234375,0.8773332595825195
0.6856973648071288,0.8716970443725586
0.6856973648071288,0.8716970443725586
0.6916866302490234,0.8749546051025391
0.6916866302490234,0.8749546051025391
0.6873682022094726,0.8762174606323242
0.6873682022094726,0.8762174606323242
0.6899763107299804,0.8750919342041016
0.6899763107299804,0.8750919342041016
0.6891523361206054,0.8780908584594727
0.6891523361206054,0.8780908584594727
0.6882316589355468,0.8716627120971679
0.6882316589355468,0.8716627120971679
0.6924768447875976,0.8773876190185547
0.6924768447875976,0.8773876190185547
0.6883031845092773,0.8773532867431640
0.6883031845092773,0.8773532867431640
0.6881418228149414,0.8744682312011719
0.6881418228149414,0.8744682312011719
0.6910142898559570,0.8768234252929688
0.6910142898559570,0.8768234252929688
0.6880222320556640,0.8724283218383789
0.6880222320556640,0.8724283218383789
0.6918777465820313,0.8767553329467773
0.6918777465820313,0.8767553329467773
0.6849443435668945,0.8744916915893555
0.6849443435668945,0.8744916915893555
0.6883724212646484,0.8702419281005859
0.6883724212646484,0.8702419281005859
0.6892061233520508,0.8743537902832031
0.6892061233520508,0.8743537902832031
0.6858627319335937,0.8679622650146485
0.6858627319335937,0.8679622650146485
0.6870094299316406,0.8705801010131836
0.6870094299316406,0.8705801010131836
0.6838457107543945,0.8679359436035156
0.6838457107543945,0.8679359436035156
0.6852653503417968,0.8659578323364258
0.6852653503417968,0.8659578323364258
0.6861860275268554,0.8696508407592773
0.6861860275268554,0.8696508407592773
0.6806316375732422,0.8621217727661132
0.6806316375732422,0.8621217727661132
0.6857706069946289,0.8641805648803711
0.6857706069946289,0.8641805648803711
0.6811603546142578,0.8645256042480468
0.6811603546142578,0.8645256042480468
0.6826555252075195,0.8618139266967774
0.6826555252075195,0.8618139266967774
0.6817016601562500,0.8647356033325195
0.6817016601562500,0.8647356033325195
0.6801326751708984,0.8576076507568359
0.6801326751708984,0.8576076507568359
0.6839784622192383,0.8627689361572265
0.6839784622192383,0.8627689361572265
0.6837163925170898,0.8632650375366211
0.6837163925170898,0.8632650375366211
0.6792858123779296,0.8597030639648438
0.6764139175415039,0.8597030639648438
0.6810264587402344,0.8624261856079102
0.6810264587402344,0.8624261856079102
0.6797641754150391,0.8582965850830078
0.6835670471191406,0.8582965850830078
0.6838577270507812,0.8627157211303711
0.6838577270507812,0.8627157211303711
0.6775423049926758,0.8621623992919921
0.6775423049926758,0.8621623992919921
0.6812078475952148,0.8589208602905273
0.6812078475952148,0.8589208602905273
0.6827682495117188,0.8644895553588867
0.6827682495117188,0.8644895553588867
0.6803861618041992,0.8599548339843750
0.6803861618041992,0.8599548339843750
0.6821874618530274,0.8631362915039062
0.6821874618530274,0.8631362915039062
0.6798156738281250,0.8619529724121093
0.6798156738281250,0.8619529724121093
0.6818859100341796,0.8613590240478516
0.6818859100341796,0.8613590240478516
0.6835779190063477,0.8658056259155273
0.6835779190063477,0.8658056259155273
0.6787479400634765,0.8599433898925781
0.6787479400634765,0.8599433898925781
0.6843412399291992,0.8628999710083007
0.6843412399291992,0.8628999710083007
0.6803106307983399,0.8643682479858398
0.6803106307983399,0.8643682479858398
0.6825777053833008,0.8632181167602538
0.6825777053833008,0.8632181167602538
0.6821926116943359,0.8663320541381836
0.6821926116943359,0.8663320541381836
0.6811735153198242,0.8596384048461914
0.6811735153198242,0.8596384048461914
0.6853935241699218,0.8654811859130859
0.6853935241699218,0.8654811859130859
0.6814550399780274,0.8657735824584961
0.6814550399780274,0.8657735824584961
0.6811014175415039,0.8632741928100586
0.6811014175415039,0.8632741928100586
0.6845781326293945,0.8662256240844727
0.6845781326293945,0.8662256240844727
0.6818321228027343,0.8623867034912109
0.6818321228027343,0.8623867034912109
0.6861968994140625,0.8675680160522461
0.6861968994140625,0.8675680160522461
0.6800937652587891,0.8666524887084961
0.6800937652587891,0.8666524887084961
0.6836677551269531,0.8633182525634765
0.6836677551269531,0.8633182525634765
0.6857271194458008,0.8690345764160156
0.6857271194458008,0.8690345764160156
