REDsignal,IRsignal
0.6247907638549804,0.8103641510009766
0.6247907638549804,0.8103641510009766
0.6238374710083008,0.8072381973266601
0.6238374710083008,0.8072381973266601
0.6277948379516601,0.8122398376464843
0.6277948379516601,0.8122398376464843
0.6242340087890624,0.8104505538940430
0.6242340087890624,0.8104505538940430
0.6281415939331054,0.8111005783081054
0.6281415939331054,0.8111005783081054
0.6275293350219726,0.8149686813354492
0.6275293350219726,0.8149686813354492
0.6264524459838867,0.8116556167602539
0.6264524459838867,0.8116556167602539
0.6317207336425781,0.8165279388427734
0.6317207336425781,0.8165279388427734
0.6256433486938476,0.8135141372680664
0.6256433486938476,0.8135141372680664
0.6299394607543946,0.8137418746948242
0.6299394607543946,0.8137418746948242
0.6282125473022461,0.8155574798583984
0.6282125473022461,0.8155574798583984
0.6268569946289062,0.8092895507812500
0.6268569946289062,0.8092895507812500
0.6276638031005859,0.8100471496582031
0.6276638031005859,0.8100471496582031
0.6202600479125976,0.8038581848144531
0.6202600479125976,0.8038581848144531
0.6219074249267578,0.7999179840087890
0.6219074249267578,0.7999179840087890
0.6194463729858398,0.7990671157836914
0.6194463729858398,0.7990671157836914
0.6146627426147461,0.7907644271850586
0.6146627426147461,0.7907644271850586
0.6162952423095703,0.7920976638793945
0.6162952423095703,0.7920976638793945
0.6090145111083984,0.7865089416503906
0.6090145111083984,0.7865089416503906
0.6129461288452148,0.7843196868896484
0.6129461288452148,0.7843196868896484
0.6096187591552734,0.7849302291870117
0.6096187591552734,0.7849302291870117
0.6071977615356445,0.7794061660766601
0.6071977615356445,0.7794061660766601
0.6100507736206054,0.7825767517089843
0.6100507736206054,0.7825767517089843
0.6052963256835937,0.7790771484375000
0.6052963256835937,0.7790771484375000
0.6082706451416016,0.7780311584472656
0.6082706451416016,0.7780311584472656
0.6070089340209961,0.7810420989990234
0.6070089340209961,0.7810420989990234
0.6054090499877930,0.7766166687011719
0.6054090499877930,0.7766166687011719
0.6102590560913086,0.7811159133911133
0.6102590560913086,0.7811159133911133
0.6042491912841796,0.7782274246215820
0.6042491912841796,0.7782274246215820
0.6087942123413086,0.7790805816650390
0.6087942123413086,0.7790805816650390
0.6082036972045898,0.7824462890625000
0.6082036972045898,0.7824462890625000
0.6081676483154297,0.7789152145385742
0.6081676483154297,0.7789152145385742
0.6112798690795899,0.7835014343261718
0.6112798690795899,0.7835014343261718
0.6065259933471679,0.7818117141723633
0.6065259933471679,0.7818117141723633
0.6111368179321289,0.7826391220092773
0.6111368179321289,0.7826391220092773
0.6118835449218750,0.7863521575927734
0.6118835449218750,0.7863521575927734
0.6096817016601562,0.7823776245117188
0.6096817016601562,0.7823776245117188
0.6138278961181640,0.7876893997192382
0.6138278961181640,0.7876893997192382
0.6090488433837891,0.7856889724731445
0.6090488433837891,0.7856889724731445
0.6146999359130859,0.7864185333251953
0.6131418228149413,0.7894552230834960
0.6120374679565429,0.7862354278564453
0.6120374679565429,0.7862354278564453
0.6160909652709960,0.7911643981933594
0.6160909652709960,0.7911643981933594
0.6124002456665039,0.7893711090087890
0.6124002456665039,0.7893711090087890
0.6159650802612304,0.7896223068237305
0.6159650802612304,0.7896223068237305
0.6155765533447265,0.7934795379638672
0.6155765533447265,0.7934795379638672
0.6143663406372070,0.7899908065795899
0.6143663406372070,0.7899908065795899
0.6195224761962891,0.7950702667236328
0.6195224761962891,0.7950702667236328
0.6137666702270508,0.7928197860717773
0.6137666702270508,0.7928197860717773
0.6183752059936524,0.7938199996948242
0.6183752059936524,0.7938199996948242
0.6178934097290039,0.7974517822265624
0.6178934097290039,0.7974517822265624
0.6177537918090820,0.7940122604370117
0.6177537918090820,0.7940122604370117
0.6208322525024413,0.7985870361328125
0.6208322525024413,0.7985870361328125
0.6163702011108398,0.7972148895263672
0.6163702011108398,0.7972148895263672
0.6209369659423828,0.7978054046630859
0.6209369659423828,0.7978054046630859
0.6217014312744140,0.8013994216918945
0.6217014312744140,0.8013994216918945
0.6189817428588867,0.7966272354125976
0.6189817428588867,0.7966272354125976
0.6220830917358399,0.8003242492675781
0.6220830917358399,0.8003242492675781
0.6159605026245117,0.7960973739624023
0.6159605026245117,0.7960973739624023
0.6198188781738281,0.7937261581420898
0.6198188781738281,0.7937261581420898
0.6163244247436523,0.7930418014526367
0.6163244247436523,0.7930418014526367
0.6123807907104492,0.7856523513793945
0.6123807907104492,0.7856523513793945
0.6138044357299804,0.7864568710327148
0.6138044357299804,0.7864568710327148
0.6076429367065429,0.7806575775146484
0.6076429367065429,0.7806575775146484
0.6088485717773438,0.7773920059204101
0.6088485717773438,0.7773920059204101
0.6067039489746093,0.7782983779907227
0.6067039489746093,0.7782983779907227
0.6035116195678710,0.7718055725097656
0.6035116195678710,0.7718055725097656
0.6072166442871093,0.7745510101318359
0.6072166442871093,0.7745510101318359
0.6003095626831054,0.7702766418457031
0.6003095626831054,0.7702766418457031
0.6039007186889648,0.7695539474487304
0.6039007186889648,0.7695539474487304
0.6027900695800781,0.7718250274658203
0.6027900695800781,0.7718250274658203
0.6019895553588867,0.7670265197753906
0.6019895553588867,0.7670265197753906
0.6048442840576171,0.7709547042846679
0.6048442840576171,0.7709547042846679
0.5997688293457031,0.7689039230346679
0.5997688293457031,0.7689039230346679
0.6040363311767578,0.7690567016601563
0.6040363311767578,0.7690567016601563
0.6048442840576171,0.7725019454956055
0.6048442840576171,0.7725019454956055
0.6023792266845703,0.7679861068725585
0.6023792266845703,0.7679861068725585
0.6064613342285156,0.7734203338623047
0.6064613342285156,0.7734203338623047
0.6015913009643554,0.7713655471801758
0.6015913009643554,0.7713655471801758
0.6072023391723632,0.7720104217529297
0.6072023391723632,0.7720104217529297
0.6061706542968750,0.7753383636474609
0.6061706542968750,0.7753383636474609
0.6045930862426757,0.7718793869018554
0.6045930862426757,0.7718793869018554
0.6088159561157226,0.7771797180175781
0.6057729721069336,0.7771797180175781
0.6098075866699219,0.7751787185668945
0.6089103698730468,0.7751787185668945
0.6085372924804687,0.7754293441772461
0.6085372924804687,0.7754293441772461
0.6084783554077148,0.7795246124267577
0.6084783554077148,0.7795246124267577
0.6068904876708984,0.7755231857299805
0.6068904876708984,0.7755231857299805
0.6121015548706055,0.7806146621704101
0.6121015548706055,0.7806146621704101
0.6062582015991210,0.7782096862792969
0.6062582015991210,0.7782096862792969
0.6107757568359374,0.7790794372558594
0.6107757568359374,0.7790794372558594
0.6106178283691406,0.7829177856445312
0.6122320175170898,0.7829177856445312
0.6101989746093750,0.7789793014526367
0.6101989746093750,0.7789793014526367
0.6134988784790039,0.7839569091796875
0.6134988784790039,0.7839569091796875
0.6086534500122071,0.7821922302246094
0.6086534500122071,0.7821922302246094
0.6132322311401367,0.7828571319580078
0.6132322311401367,0.7828571319580078
0.6143795013427734,0.7868911743164062
0.6143795013427734,0.7868911743164062
0.6117839813232422,0.7826116561889648
0.6117839813232422,0.7826116561889648
0.6162363052368164,0.7884361267089843
0.6162363052368164,0.7884361267089843
0.6115053176879882,0.7867389678955078
0.6115053176879882,0.7867389678955078
0.6171203613281250,0.7874719619750976
0.6171203613281250,0.7874719619750976
0.6162260055541992,0.7911323547363281
0.6162260055541992,0.7911323547363281
0.6147239685058593,0.7876670837402343
0.6154071807861328,0.7876670837402343
0.6190526962280273,0.7930898666381836
0.6190526962280273,0.7930898666381836
0.6157207489013672,0.7916198730468750
0.6157207489013672,0.7916198730468750
0.6191184997558593,0.7915443420410156
0.6191184997558593,0.7915443420410156
0.6188478469848633,0.7953598022460937
0.6188478469848633,0.7953598022460937
0.6166757583618164,0.7903118133544922
0.6166757583618164,0.7903118133544922
0.6213146209716797,0.7938783645629882
0.6213146209716797,0.7938783645629882
0.6138490676879883,0.7890077590942383
0.6138490676879883,0.7890077590942383
0.6165069580078125,0.7865747451782227
0.6165069580078125,0.7865747451782227
0.6141008377075196,0.7864952087402344
0.6141008377075196,0.7864952087402344
0.6112123489379883,0.7787927627563477
0.6112123489379883,0.7787927627563477
0.6121181488037110,0.7798473358154296
0.6121181488037110,0.7798473358154296
0.6052099227905273,0.7752239227294921
0.6052099227905273,0.7752239227294921
0.6077630996704101,0.7727457046508789
0.6077630996704101,0.7727457046508789
0.6072990417480468,0.7743627548217773
0.6072990417480468,0.7743627548217773
0.6035722732543946,0.7679637908935547
0.6035722732543946,0.7679637908935547
0.6068681716918946,0.7718399047851562
0.6068681716918946,0.7718399047851562
0.6013097763061523,0.7687929153442382
0.6013097763061523,0.7687929153442382
0.6059600830078125,0.7681594848632812
0.6059600830078125,0.7681594848632812
0.6045604705810547,0.7706531524658203
0.6045604705810547,0.7706531524658203
0.6025297164916992,0.7663398742675781
0.6025297164916992,0.7663398742675781
0.6062444686889649,0.7708660125732422
0.6062444686889649,0.7708660125732422
0.6023723602294921,0.7688489913940429
0.6023723602294921,0.7688489913940429
0.6053615570068359,0.7686275482177735
0.6053615570068359,0.7686275482177735
0.6054668426513672,0.7725208282470702
0.6054668426513672,0.7725208282470702
0.6037570953369140,0.7685966491699219
0.6037570953369140,0.7685966491699219
0.6088233947753906,0.7736623764038085
0.6088233947753906,0.7736623764038085
0.6033914566040038,0.7717540740966796
0.6033914566040038,0.7717540740966796
0.6076629638671874,0.7725002288818359
0.6076629638671874,0.7725002288818359
0.6079496383666992,0.7768650054931641
0.6079496383666992,0.7768650054931641
0.6073436737060547,0.7730546951293945
0.6073436737060547,0.7730546951293945
0.6111110687255860,0.7781009674072266
0.6111110687255860,0.7781009674072266
0.6066982269287109,0.7770269393920898
0.6066982269287109,0.7770269393920898
0.6107923507690429,0.7773874282836913
0.6107923507690429,0.7773874282836913
0.6117593765258789,0.7813682556152344
0.6117593765258789,0.7813682556152344
0.6094167709350585,0.7770521163940429
0.6094167709350585,0.7770521163940429
0.6135274887084960,0.7824548721313477
0.6135274887084960,0.7824548721313477
0.6088634490966797,0.7807931900024414
0.6088634490966797,0.7807931900024414
0.6138982772827148,0.7812068939208984
0.6138982772827148,0.7812068939208984
0.6134708404541015,0.7849039077758789
0.6134708404541015,0.7849039077758789
0.6118309020996093,0.7813436508178710
0.6118309020996093,0.7813436508178710
0.6161922454833985,0.7866348266601563
0.6161922454833985,0.7866348266601563
0.6126005172729492,0.7852186203002930
0.6177114486694336,0.7852186203002930
0.6160371780395507,0.7854749679565429
0.6160371780395507,0.7854749679565429
0.6162775039672851,0.7899650573730469
0.6162775039672851,0.7899650573730469
0.6145843505859375,0.7859882354736328
0.6145843505859375,0.7859882354736328
0.6198205947875977,0.7914905548095703
0.6198205947875977,0.7914905548095703
0.6147119522094726,0.7898632049560547
0.6147119522094726,0.7898632049560547
0.6188936233520508,0.7905761718750000
0.6188936233520508,0.7905761718750000
0.6192523956298828,0.7950130462646484
0.6192523956298828,0.7950130462646484
0.6185754776000977,0.7911672592163086
0.6189720153808593,0.7911672592163086
0.6222684860229492,0.7964115142822266
0.6222684860229492,0.7964115142822266
0.6177709579467773,0.7954559326171875
0.6177709579467773,0.7954559326171875
0.6218811035156250,0.7958913803100586
0.6218811035156250,0.7958913803100586
0.6230958938598633,0.8000061035156250
0.6230958938598633,0.8000061035156250
0.6203046798706054,0.7949260711669922
0.6203046798706054,0.7949260711669922
0.6239284515380860,0.7992622375488281
0.6239284515380860,0.7992622375488281
0.6183866500854492,0.7958507537841797
0.6183866500854492,0.7958507537841797
0.6216276168823242,0.7932065963745117
0.6216276168823242,0.7932065963745117
0.6190664291381835,0.7932226181030273
0.6190664291381835,0.7932226181030273
0.6148183822631835,0.7852317810058593
0.6148183822631835,0.7852317810058593
0.6166809082031249,0.7865381240844727
0.6166809082031249,0.7865381240844727
0.6104816436767578,0.7815004348754883
0.6104816436767578,0.7815004348754883
0.6117582321166992,0.7780185699462890
0.6117582321166992,0.7780185699462890
0.6102029800415039,0.7794736862182617
0.6102029800415039,0.7794736862182617
0.6068161010742187,0.7729660034179687
0.6068161010742187,0.7729660034179687
0.6106103897094727,0.7762933731079101
0.6106103897094727,0.7762933731079101
0.6044248580932617,0.7730810165405273
0.6044248580932617,0.7730810165405273
0.6076406478881836,0.7723045349121094
0.6076406478881836,0.7723045349121094
0.6073602676391602,0.7754413604736328
0.6073602676391602,0.7754413604736328
0.6058885574340820,0.7705810546874999
0.6058885574340820,0.7705810546874999
0.6092273712158203,0.7750310897827148
0.6092273712158203,0.7750310897827148
0.6046091079711914,0.7736120223999023
0.6046091079711914,0.7736120223999023
0.6085035324096679,0.7736114501953125
0.6085035324096679,0.7736114501953125
0.6096050262451171,0.7777725219726562
0.6096050262451171,0.7777725219726562
0.6071502685546875,0.7732732772827148
0.6071502685546875,0.7732732772827148
0.6114835739135742,0.7787498474121094
0.6114835739135742,0.7787498474121094
0.6071273803710937,0.7776975631713867
0.6071273803710937,0.7776975631713867
0.6120054244995117,0.7778978347778320
0.6120054244995117,0.7778978347778320
0.6117942810058593,0.7819387435913085
0.6117942810058593,0.7819387435913085
0.6101926803588867,0.7781845092773437
0.6101926803588867,0.7781845092773437
0.6145093917846679,0.7833806991577148
0.6145093917846679,0.7833806991577148
0.6110012054443359,0.7822385787963867
0.6110012054443359,0.7822385787963867
0.6142107009887695,0.7821098327636719
0.6142107009887695,0.7821098327636719
0.6147022247314453,0.7863327026367187
0.6147022247314453,0.7863327026367187
0.6127664566040039,0.7823112487792968
0.6127664566040039,0.7823112487792968
0.6138399124145507,0.7872751235961913
0.6138399124145507,0.7872751235961913
0.6126623153686523,0.7857027053833008
0.6180416107177734,0.7857027053833008
0.6164703369140625,0.7859796524047852
0.6164703369140625,0.7859796524047852
0.6167982101440429,0.7898672103881835
0.6167982101440429,0.7898672103881835
0.6156755447387695,0.7857971191406250
0.6156755447387695,0.7857971191406250
0.6191797256469727,0.7906642913818359
0.6160200119018554,0.7906642913818359
0.6149053573608398,0.7896858215332031
0.6149053573608398,0.7896858215332031
0.6186933517456055,0.7898792266845703
0.6186933517456055,0.7898792266845703
0.6198978424072266,0.7939687728881836
0.6198978424072266,0.7939687728881836
0.6174568176269531,0.7896251678466797
0.6174568176269531,0.7896251678466797
0.6216505050659179,0.7948762893676757
0.6216505050659179,0.7948762893676757
0.6173498153686523,0.7939167022705078
0.6173498153686523,0.7939167022705078
0.6219961166381835,0.7941038131713867
0.6219961166381835,0.7941038131713867
0.6217981338500976,0.7980405807495117
0.6217981338500976,0.7980405807495117
0.6201004028320313,0.7942068099975585
0.6201004028320313,0.7942068099975585
0.6244497299194336,0.7995231628417968
0.6244497299194336,0.7995231628417968
0.6208276748657227,0.7984148025512695
0.6208276748657227,0.7984148025512695
0.6239776611328125,0.7978494644165038
0.6239776611328125,0.7978494644165038
0.6240079879760742,0.8013570785522460
0.6240079879760742,0.8013570785522460
0.6213346481323242,0.7954519271850585
0.6213346481323242,0.7954519271850585
0.6249767303466797,0.7980897903442382
0.6249767303466797,0.7980897903442382
0.6178161621093750,0.7933267593383789
0.6178161621093750,0.7933267593383789
0.6191122055053710,0.7892320632934570
0.6191122055053710,0.7892320632934570
0.6167884826660156,0.7886747360229492
0.6167884826660156,0.7886747360229492
0.6127750396728515,0.7799148559570312
0.6127750396728515,0.7799148559570312
0.6136465072631836,0.7806203842163085
0.6136465072631836,0.7806203842163085
0.6067422866821289,0.7760284423828124
0.6067422866821289,0.7760284423828124
0.6084823608398438,0.7727897644042968
0.6084823608398438,0.7727897644042968
0.6079908370971679,0.7743999481201171
0.6079908370971679,0.7743999481201171
0.6039665222167968,0.7675992965698242
0.6039665222167968,0.7675992965698242
0.6070941925048828,0.7709672927856445
0.6070941925048828,0.7709672927856445
0.6015626907348632,0.7684055328369140
0.6015626907348632,0.7684055328369140
0.6053667068481445,0.7670310974121094
0.6053667068481445,0.7670310974121094
0.6045518875122070,0.7698268890380859
0.6045518875122070,0.7698268890380859
0.6020982742309570,0.7649900436401367
0.6020982742309570,0.7649900436401367
0.6060218811035156,0.7695865631103516
0.6060218811035156,0.7695865631103516
0.6021057128906250,0.7682430267333984
0.6021057128906250,0.7682430267333984
0.6053461074829102,0.7676084518432617
0.6053461074829102,0.7676084518432617
0.6056556701660156,0.7720407485961914
0.6056556701660156,0.7720407485961914
0.6037336349487304,0.7675912857055663
0.6037336349487304,0.7675912857055663
0.6089281082153321,0.7729522705078125
0.6089281082153321,0.7729522705078125
0.6040386199951172,0.7718564987182617
0.6040386199951172,0.7718564987182617
0.6079536437988281,0.7722078323364258
0.6079536437988281,0.7722078323364258
0.6086791992187500,0.7766475677490234
0.6086791992187500,0.7766475677490234
0.6077350616455078,0.7726249694824219
0.6077350616455078,0.7726249694824219
0.6116895675659180,0.7777244567871093
0.6089006423950195,0.7745693206787109
0.6073385238647461,0.7773342132568359
0.6129489898681640,0.7773342132568359
0.6112901687622070,0.7772266387939453
0.6112901687622070,0.7772266387939453
0.6127933502197266,0.7817367553710938
0.6127933502197266,0.7817367553710938
0.6103048324584961,0.7772563934326172
0.6103048324584961,0.7772563934326172
0.6146152496337890,0.7826362609863281
0.6146152496337890,0.7826362609863281
0.6103191375732422,0.7818637847900390
0.6103191375732422,0.7818637847900390
0.6149522781372070,0.7817584991455078
0.6149522781372070,0.7817584991455078
0.6149551391601562,0.7858308792114258
0.6149551391601562,0.7858308792114258
0.6129272460937499,0.7817613601684570
0.6129272460937499,0.7817613601684570
0.6173870086669921,0.7869667053222656
0.6173870086669921,0.7869667053222656
0.6137649536132812,0.7861907958984374
0.6137649536132812,0.7861907958984374
0.6169498443603515,0.7857965469360352
0.6169498443603515,0.7857965469360352
0.6175626754760742,0.7903284072875977
0.6186035156249999,0.7903284072875977
0.6157825469970702,0.7862852096557617
0.6157825469970702,0.7862852096557617
0.6213094711303710,0.7917406082153320
0.6213094711303710,0.7917406082153320
0.6162883758544921,0.7910018920898437
0.6162883758544921,0.7910018920898437
0.6204294204711914,0.7915346145629882
0.6204294204711914,0.7915346145629882
0.6213415145874023,0.7961591720581055
0.6213415145874023,0.7961591720581055
0.6204591751098633,0.7920415878295898
0.6204591751098633,0.7920415878295898
0.6242094039916992,0.7968532562255859
0.6242094039916992,0.7968532562255859
0.6195785522460937,0.7956315994262695
0.6195785522460937,0.7956315994262695
0.6224790573120117,0.7938194274902344
0.6224790573120117,0.7938194274902344
0.6225957870483398,0.7955028533935546
0.6225957870483398,0.7955028533935546
0.6177583694458008,0.7873929977416992
0.6177583694458008,0.7873929977416992
0.6197153091430664,0.7884160995483398
0.6197153091430664,0.7884160995483398
0.6124282836914062,0.7832502365112305
0.6124282836914062,0.7832502365112305
0.6143222808837890,0.7785896301269531
0.6143222808837890,0.7785896301269531
0.6114400863647461,0.7783035278320313
0.6114400863647461,0.7783035278320313
0.6069534301757812,0.7705667495727538
0.6069534301757812,0.7705667495727538
0.6092977523803711,0.7723875045776367
0.6092977523803711,0.7723875045776367
0.6039985656738281,0.7690029144287109
0.6039985656738281,0.7690029144287109
0.6054267883300781,0.7659124374389649
0.6054267883300781,0.7659124374389649
0.6047384262084960,0.7684867858886718
0.6047384262084960,0.7684867858886718
0.6015163421630859,0.7623207092285156
0.6015163421630859,0.7623207092285156
0.6058473587036133,0.7659090042114257
0.6058473587036133,0.7659090042114257
0.5998901367187500,0.7636734008789062
0.5998901367187500,0.7636734008789062
0.6030532836914062,0.7623407363891601
0.6030532836914062,0.7623407363891601
0.6031356811523437,0.7658843994140625
0.6037124633789063,0.7658843994140625
0.6016067504882813,0.7610401153564453
0.6016067504882813,0.7610401153564453
0.6049827575683594,0.7652681350708007
0.6049827575683594,0.7652681350708007
0.6003067016601562,0.7646221160888672
0.6003067016601562,0.7646221160888672
0.6039018630981445,0.7640882492065429
0.6039018630981445,0.7640882492065429
0.6055034637451172,0.7683803558349609
0.6055034637451172,0.7683803558349609
0.6026384353637695,0.7636722564697266
0.6026384353637695,0.7636722564697266
0.6071496963500976,0.7690521240234375
0.6071496963500976,0.7690521240234375
0.6027276992797851,0.7686904907226563
0.6027276992797851,0.7686904907226563
0.6074684143066406,0.7683780670166015
0.6074684143066406,0.7683780670166015
0.6075336456298828,0.7725780487060546
0.6075336456298828,0.7725780487060546
0.6054725646972656,0.7686967849731445
0.6054725646972656,0.7686967849731445
0.6099718093872070,0.7738649368286132
0.6099718093872070,0.7738649368286132
0.6065757751464843,0.7734443664550781
0.6065757751464843,0.7734443664550781
0.6095438003540039,0.7726484298706054
0.6095438003540039,0.7726484298706054
0.6101766586303711,0.7772157669067382
0.6101766586303711,0.7772157669067382
0.6081481933593750,0.7730861663818359
0.6081481933593750,0.7730861663818359
0.6136024475097656,0.7781805038452149
0.6136024475097656,0.7781805038452149
0.6085006713867187,0.7775917053222656
0.6085006713867187,0.7775917053222656
0.6123052597045898,0.7773965835571289
0.6123052597045898,0.7773965835571289
0.6130451202392578,0.7819662094116211
0.6130451202392578,0.7819662094116211
0.6120677947998047,0.7778709411621093
0.6120677947998047,0.7778709411621093
0.6158706665039062,0.7827827453613281
0.6158706665039062,0.7827827453613281
0.6115087509155274,0.7829864501953124
0.6115087509155274,0.7829864501953124
0.6154781341552734,0.7828102111816406
0.6154781341552734,0.7828102111816406
0.6174242019653320,0.7874542236328125
0.6177017211914062,0.7874542236328125
0.6145929336547852,0.7832256317138672
0.6145929336547852,0.7832256317138672
0.6193090438842773,0.7887691497802735
0.6193090438842773,0.7887691497802735
0.6151353836059570,0.7889488220214843
0.6151353836059570,0.7889488220214843
0.6200174331665039,0.7887062072753906
0.6200174331665039,0.7887062072753906
0.6201896667480469,0.7928844451904297
0.6201896667480469,0.7928844451904297
0.6180347442626953,0.7885917663574219
0.6180347442626953,0.7885917663574219
0.6219240188598633,0.7925296783447265
0.6219240188598633,0.7925296783447265
0.6174968719482422,0.7905155181884765
0.6174968719482422,0.7905155181884765
0.6188770294189453,0.7867406845092774
0.6188770294189453,0.7867406845092774
0.6173641204833984,0.7874742507934570
0.6173641204833984,0.7874742507934570
0.6124963760375977,0.7788236618041992
0.6124963760375977,0.7788236618041992
0.6150587081909179,0.7793083190917969
0.6150587081909179,0.7793083190917969
0.6071514129638672,0.7745458602905273
0.6071514129638672,0.7745458602905273
0.6083003997802734,0.7702823638916015
0.6083003997802734,0.7702823638916015
0.6066347122192383,0.7711641311645507
0.6066347122192383,0.7711641311645507
0.6034830093383788,0.7638628005981445
0.6034830093383788,0.7638628005981445
0.6055103302001953,0.7658557891845703
0.6055103302001953,0.7658557891845703
0.5996091842651367,0.7637752532958985
0.5996091842651367,0.7637752532958985
0.6019025802612304,0.7611413955688476
0.6019025802612304,0.7611413955688476
0.6026521682739258,0.7639600753784179
0.6026521682739258,0.7639600753784179
0.5989528656005859,0.7579095840454101
0.5989528656005859,0.7579095840454101
0.6027791976928710,0.7617622375488281
0.6027791976928710,0.7617622375488281
0.5976974487304687,0.7608673095703125
0.5976974487304687,0.7608673095703125
0.6018161773681641,0.7596593856811523
0.6018161773681641,0.7596593856811523
0.6016450881958008,0.7632614135742187
0.6016450881958008,0.7632614135742187
0.5994558334350586,0.7590139389038085
0.5994558334350586,0.7590139389038085
0.6038743972778320,0.7637723922729492
0.6038743972778320,0.7637723922729492
0.6003913879394531,0.7638731002807617
0.6003913879394531,0.7638731002807617
0.6034126281738281,0.7629512786865235
0.6034126281738281,0.7629512786865235
0.6045524597167968,0.7679580688476563
0.6045524597167968,0.7679580688476563
0.6025268554687500,0.7638267517089844
0.6025268554687500,0.7638267517089844
0.6082523345947265,0.7691871643066406
0.6082523345947265,0.7691871643066406
0.6032449722290039,0.7691528320312500
0.6032449722290039,0.7691528320312500
0.6072549819946289,0.7690870285034179
0.6072549819946289,0.7690870285034179
0.6083633422851562,0.7738946914672852
0.6083633422851562,0.7738946914672852
0.6073711395263671,0.7699573516845702
0.6073711395263671,0.7699573516845702
0.6114807128906250,0.7748708724975586
0.6114807128906250,0.7748708724975586
0.6072950363159180,0.7754808425903320
0.6072950363159180,0.7754808425903320
0.6111763000488281,0.7752101898193359
0.6111763000488281,0.7752101898193359
0.6133403778076172,0.7801563262939453
0.6133403778076172,0.7801563262939453
0.6105216979980469,0.7758985519409179
0.6105216979980469,0.7758985519409179
0.6155296325683594,0.7815450668334961
0.6155296325683594,0.7815450668334961
0.6112924575805664,0.7822214126586914
0.6112924575805664,0.7822214126586914
0.6162895202636719,0.7818775177001953
0.6162895202636719,0.7818775177001953
0.6168788909912110,0.7865633010864258
0.6168788909912110,0.7865633010864258
0.6151067733764648,0.7831197738647461
0.6151067733764648,0.7831197738647461
0.6200460433959961,0.7886260986328125
0.6200460433959961,0.7886260986328125
0.6169858932495117,0.7895565032958984
0.6169858932495117,0.7895565032958984
0.6202846527099609,0.7888921737670899
0.6202846527099609,0.7888921737670899
0.6216562271118163,0.7941679000854492
0.6216562271118163,0.7941679000854492
0.6197553634643554,0.7906024932861327
0.6197553634643554,0.7906024932861327
0.6256107330322266,0.7960847854614258
0.6256107330322266,0.7960847854614258
0.6207853317260742,0.7964326858520507
0.6207853317260742,0.7964326858520507
0.6247930526733398,0.7964120864868164
0.6247930526733398,0.7964120864868164
0.6261394500732421,0.8013971328735351
0.6261394500732421,0.8013971328735351
0.6250339508056640,0.7973316192626952
0.6250339508056640,0.7973316192626952
0.6287446975708008,0.8015659332275390
0.6287446975708008,0.8015659332275390
0.6237035751342773,0.8006687164306641
0.6237035751342773,0.8006687164306641
0.6263448715209960,0.7978448867797852
0.6263448715209960,0.7978448867797852
0.6265033721923828,0.7992078781127929
0.6265033721923828,0.7992078781127929
0.6210502624511719,0.7904388427734375
0.6210502624511719,0.7904388427734375
0.6228498458862305,0.7909177780151367
0.6228498458862305,0.7909177780151367
0.6152360916137695,0.7862308502197265
0.6152360916137695,0.7862308502197265
0.6169052124023438,0.7807857513427734
0.6169052124023438,0.7807857513427734
0.6144670486450196,0.7809139251708984
0.6144670486450196,0.7809139251708984
0.6097875595092773,0.7733425140380860
0.6097875595092773,0.7733425140380860
0.6123310089111328,0.7752702713012695
0.6123310089111328,0.7752702713012695
0.6071113586425781,0.7730506896972656
0.6071113586425781,0.7730506896972656
0.6084743499755859,0.7693439483642578
0.6084743499755859,0.7693439483642578
0.6083135604858398,0.7723978042602538
0.6083135604858398,0.7723978042602538
0.6050331115722656,0.7665744781494140
0.6050331115722656,0.7665744781494140
0.6098293304443360,0.7703659057617187
0.6098293304443360,0.7703659057617187
0.6039968490600586,0.7694847106933593
0.6039968490600586,0.7694847106933593
0.6072538375854492,0.7680913925170898
0.6072538375854492,0.7680913925170898
0.6080108642578125,0.7722610473632813
0.6080108642578125,0.7722610473632813
0.6065036773681640,0.7677017211914062
0.6065036773681640,0.7677017211914062
0.6104043960571289,0.7723005294799804
0.6104043960571289,0.7723005294799804
0.6059652328491211,0.7728801727294922
0.6059652328491211,0.7728801727294922
0.6098310470581054,0.7722536087036133
0.6098310470581054,0.7722536087036133
0.6121656417846679,0.7771791458129883
0.6121656417846679,0.7771791458129883
0.6092233657836914,0.7730987548828124
0.6092233657836914,0.7730987548828124
0.6141723632812500,0.7785758972167969
0.6141723632812500,0.7785758972167969
0.6099655151367187,0.7794067382812500
0.6099655151367187,0.7794067382812500
0.6147645950317383,0.7786640167236328
0.6147645950317383,0.7786640167236328
0.6153488159179688,0.7833864212036132
0.6153488159179688,0.7833864212036132
0.6131978988647461,0.7797220230102538
0.6131978988647461,0.7797220230102538
0.6152400970458984,0.7821252822875976
0.6152400970458984,0.7821252822875976
0.6152400970458984,0.7821332931518554
0.6193107604980469,0.7876018524169922
0.6171936035156250,0.7876018524169922
0.6151599884033203,0.7851716995239257
0.6199447631835937,0.7851716995239257
0.6187929153442383,0.7874885559082031
0.6152132034301757,0.7874885559082031
0.6184181213378906,0.7908056259155273
0.6224103927612304,0.7908056259155273
0.6189096450805663,0.7879743576049805
0.6177967071533202,0.7879743576049805
0.6227588653564453,0.7934961318969727
0.6208431243896484,0.7934961318969727
0.6175809860229492,0.7910659790039062
0.6224927902221680,0.7910659790039062
0.6239439010620117,0.7932374954223632
0.6210485458374023,0.7932374954223632
0.6224212646484375,0.7967359542846679
0.6253051757812500,0.7967359542846679
0.6224973678588867,0.7938966751098633
0.6224973678588867,0.7938966751098633
0.6249721527099609,0.7994424819946289
0.6249721527099609,0.7994424819946289
0.6225145339965820,0.7968624114990234
0.6281587600708007,0.7968624114990234
0.6275419235229492,0.7990287780761719
0.6238603591918945,0.7990287780761719
0.6257944107055664,0.8023069381713867
0.6287721633911133,0.8023069381713867
0.6248977661132812,0.7996604919433593
0.6236886978149414,0.7996604919433593
0.6300247192382812,0.8051382064819336
0.6289569854736328,0.8051382064819336
0.6263849258422851,0.8024705886840821
0.6309511184692382,0.8024705886840821
0.6311588287353516,0.8046976089477539
0.6273622512817383,0.8046976089477539
0.6279636383056640,0.8080352783203125
0.6310157775878906,0.8080352783203125
0.6295160293579102,0.8051708221435546
0.6292860031127929,0.8051708221435546
0.6333732604980469,0.8100402832031249
0.6311124801635742,0.8100402832031249
0.6287870407104492,0.8064863204956054
0.6287870407104492,0.8064863204956054
0.6317070007324218,0.8069972991943359
0.6272146224975585,0.8069972991943359
0.6298381805419921,0.8078195571899414
0.6327592849731445,0.8078195571899414
0.6284191131591796,0.8012912750244140
0.6258213043212890,0.8012912750244140
0.6294828414916992,0.8026056289672852
0.6260931015014648,0.8026056289672852
0.6215160369873046,0.7955291748046874
0.6249109268188476,0.7955291748046874
0.6249898910522461,0.7930624008178710
0.6206342697143554,0.7930624008178710
0.6205644607543945,0.7921663284301758
0.6222152709960938,0.7921663284301758
0.6181594848632812,0.7851551055908202
0.6158151626586914,0.7851551055908202
0.6183872222900391,0.7871910095214844
0.6153951644897461,0.7871910095214844
0.6137655258178710,0.7818592071533202
0.6186544418334960,0.7818592071533202
0.6174304962158202,0.7812704086303711
0.6127676010131836,0.7812704086303711
0.6140613555908203,0.7827346801757812
0.6166225433349609,0.7827346801757812
0.6118452072143554,0.7783990859985351
0.6104518890380859,0.7783990859985351
0.6163101196289062,0.7823507308959960
0.6148944854736328,0.7823507308959960
0.6116855621337890,0.7790622711181641
0.6163684844970703,0.7790622711181641
0.6162569046020507,0.7802055358886718
0.6124568939208984,0.7802055358886718
0.6130926132202148,0.7834625244140625
0.6159587860107422,0.7834625244140625
0.6143543243408203,0.7800733566284179
0.6139989852905273,0.7800733566284179
0.6182865142822266,0.7853061676025390
0.6160383224487305,0.7853061676025390
0.6138250350952148,0.7828714370727539
0.6188632965087890,0.7828714370727539
0.6175569534301758,0.7847791671752929
0.6139583587646484,0.7847791671752929
0.6172988891601562,0.7882112503051758
0.6211652755737305,0.7882112503051758
0.6176353454589844,0.7853731155395508
0.6164794921875000,0.7853731155395508
0.6214170455932617,0.7905567169189452
0.6194034576416015,0.7905567169189452
0.6161670684814453,0.7885494232177734
0.6211944580078125,0.7885494232177734
0.6224361419677734,0.7902265548706054
0.6196666717529297,0.7902265548706054
0.6211383819580077,0.7937421798706055
0.6238843917846679,0.7937421798706055
0.6210657119750976,0.7907432556152344
0.6210657119750976,0.7907432556152344
0.6236337661743164,0.7961082458496094
0.6215354919433593,0.7961082458496094
0.6207630157470703,0.7935436248779296
0.6267133712768554,0.7935436248779296
0.6257234573364258,0.7953786849975586
0.6219858169555664,0.7953786849975586
0.6240463256835938,0.7986871719360351
0.6270807266235351,0.7986871719360351
0.6229076385498047,0.7957849502563477
0.6229076385498047,0.7957849502563477
0.6281301498413085,0.8009096145629883
0.6269262313842773,0.8009096145629883
0.6243415832519531,0.7985383987426757
0.6289037704467774,0.7985383987426757
0.6288768768310546,0.8002401351928711
0.6251266479492187,0.8002401351928711
0.6257720947265625,0.8037208557128906
0.6288265228271485,0.8037208557128906
0.6274538040161133,0.8006103515624999
0.6272335052490234,0.8006103515624999
0.6312440872192383,0.8057899475097656
0.6312440872192383,0.8057899475097656
0.6268707275390625,0.8033100128173828
0.6319581985473632,0.8033100128173828
0.6306587219238281,0.8050626754760742
0.6268426895141601,0.8050626754760742
0.6302009582519531,0.8084495544433593
0.6340536117553711,0.8084495544433593
0.6304315567016602,0.8052984237670898
0.6292356491088867,0.8052984237670898
0.6340427398681641,0.8104099273681641
0.6318529129028320,0.8104099273681641
0.6283864974975586,0.8080226898193359
0.6334419250488281,0.8080226898193359
0.6347047805786132,0.8096940994262695
0.6318357467651367,0.8096940994262695
0.6330339431762695,0.8129487991333008
0.6330339431762695,0.8129487991333008
0.6328508377075195,0.8094503402709960
0.6318271636962890,0.8094503402709960
0.6349588394165039,0.8137773513793946
0.6325773239135742,0.8137773513793946
0.6313293457031249,0.8099676132202148
0.6366085052490235,0.8099676132202148
0.6351734161376953,0.8089771270751953
0.6303188323974609,0.8089771270751953
0.6312623977661133,0.8088232040405273
0.6328657150268554,0.8088232040405273
0.6274509429931641,0.8013284683227538
0.6249950408935546,0.8013284683227538
0.6296110153198242,0.8015316009521484
0.6265920639038086,0.8015316009521484
0.6220161437988281,0.7937313079833984
0.6252748489379882,0.7937313079833984
0.6234094619750976,0.7897584915161132
0.6180044174194336,0.7897584915161132
0.6171003341674804,0.7882604598999023
0.6183374404907226,0.7882604598999023
0.6153402328491211,0.7805654525756835
0.6138547897338867,0.7805654525756835
0.6168891906738281,0.7816629409790039
0.6132642745971679,0.7816629409790039
0.6099620819091797,0.7758625030517577
0.6139051437377929,0.7758625030517577
0.6116552352905273,0.7745933532714844
0.6070026397705078,0.7745933532714844
0.6096656799316406,0.7755523681640625
0.6096656799316406,0.7755523681640625
0.6082254409790039,0.7702629089355468
0.6066719055175781,0.7702629089355468
0.6109010696411132,0.7732973098754883
0.6082208633422851,0.7732973098754883
0.6089429855346680,0.7696695327758789
0.6089429855346680,0.7696695327758789
0.6097526550292969,0.7700323104858399
0.6066123962402343,0.7700323104858399
0.6079410552978516,0.7727359771728516
0.6102396011352539,0.7727359771728516
0.6071239471435547,0.7687963485717774
0.6059692382812499,0.7687963485717774
0.6093578338623047,0.7735158920288085
0.6071353912353515,0.7735158920288085
0.6060911178588867,0.7709060668945312
0.6120689392089843,0.7709060668945312
0.6110498428344726,0.7722307205200195
0.6071479797363281,0.7722307205200195
0.6093721389770508,0.7754098892211914
0.6121553421020508,0.7754098892211914
0.6079444885253906,0.7723554611206055
0.6071491241455078,0.7723554611206055
0.6132276535034179,0.7774646759033202
0.6132276535034179,0.7774646759033202
0.6091798782348633,0.7753480911254883
0.6140974044799804,0.7753480911254883
0.6139245986938476,0.7767374038696289
0.6102773666381835,0.7767374038696289
0.6111059188842773,0.7804349899291992
0.6140464782714844,0.7804349899291992
0.6124328613281250,0.7773038864135742
0.6124174118041992,0.7773038864135742
0.6164405822753906,0.7823284149169921
0.6164405822753906,0.7823284149169921
0.6119676589965820,0.7800178527832031
0.6119676589965820,0.7800178527832031
0.6156578063964844,0.7814952850341796
0.6119688034057617,0.7814952850341796
0.6154106140136718,0.7850011825561524
0.6190612792968749,0.7850011825561524
0.6156005859375000,0.7819421768188476
0.6146192550659180,0.7819421768188476
0.6193593978881836,0.7869707107543945
0.6172033309936523,0.7869707107543945
0.6136734008789062,0.7848300933837891
0.6136734008789062,0.7848300933837891
0.6201187133789062,0.7864265441894531
0.6172822952270508,0.7864265441894531
0.6187047958374023,0.7899913787841797
0.6187047958374023,0.7899913787841797
0.6186040878295899,0.7868127822875977
0.6186040878295899,0.7868127822875977
0.6213563919067383,0.7921874999999999
0.6193233489990234,0.7921874999999999
0.6184753417968750,0.7902843475341796
0.6246397018432617,0.7902843475341796
0.6238334655761718,0.7917720794677734
0.6198938369750976,0.7917720794677734
0.6220579147338867,0.7954610824584961
0.6248994827270508,0.7954610824584961
0.6207527160644531,0.7925617218017578
0.6199779510498047,0.7925617218017578
0.6261440277099609,0.7977035522460937
0.6247558593750000,0.7977035522460937
0.6218210220336914,0.7955795288085937
0.6271396636962890,0.7955795288085937
0.6267402648925781,0.7968881607055663
0.6231891632080078,0.7968881607055663
0.6239587783813476,0.8003654479980469
0.6239587783813476,0.8003654479980469
0.6248777389526367,0.7963937759399414
0.6243495941162109,0.7963937759399414
0.6281862258911133,0.7995151519775391
0.6249572753906250,0.7995151519775391
0.6218204498291016,0.7944917678833008
0.6218204498291016,0.7944917678833008
0.6232006072998046,0.7919895172119140
0.6181085586547851,0.7919895172119140
0.6200534820556640,0.7905281066894531
0.6200534820556640,0.7905281066894531
0.6165904998779297,0.7818614959716796
0.6139274597167969,0.7818614959716796
0.6170368194580078,0.7812904357910156
0.6170368194580078,0.7812904357910156
0.6079536437988281,0.7743455886840820
0.6079536437988281,0.7743455886840820
0.6113061904907227,0.7712991714477538
0.6071296691894531,0.7712991714477538
0.6075696945190430,0.7709621429443360
0.6075696945190430,0.7709621429443360
0.6047143936157227,0.7641614913940430
0.6027929306030273,0.7641614913940430
0.6053060531616211,0.7662242889404297
0.6021234512329101,0.7662242889404297
0.6004343032836914,0.7615568161010742
0.6004343032836914,0.7615568161010742
0.6040288925170898,0.7605056762695312
0.5996915817260742,0.7605056762695312
0.6012908935546875,0.7621461868286132
0.6034034729003906,0.7621461868286132
0.5987062454223633,0.7574266433715821
0.5975618362426758,0.7574266433715821
0.6032163619995117,0.7610246658325195
0.6014070510864258,0.7610246658325195
0.5982215881347656,0.7577894210815429
0.6029800415039063,0.7577894210815429
0.6023317337036133,0.7582906723022461
0.5985134124755859,0.7582906723022461
0.5993133544921875,0.7612426757812499
0.6018379211425781,0.7612426757812499
0.6001384735107421,0.7576074600219727
0.6001007080078125,0.7576074600219727
0.6041347503662109,0.7623172760009765
0.6017847061157227,0.7623172760009765
0.5993848800659179,0.7599655151367187
0.6046113967895508,0.7599655151367187
0.6031213760375976,0.7614807128906250
0.5995130538940430,0.7614807128906250
0.6030847549438476,0.7651811599731445
0.6030847549438476,0.7651811599731445
0.6032072067260742,0.7620288848876953
0.6022899627685546,0.7620288848876953
0.6071325302124023,0.7671672821044921
0.6071325302124023,0.7671672821044921
0.6013664245605469,0.7652956008911133
0.6067766189575196,0.7652956008911133
0.6077613830566406,0.7666734695434571
0.6051012039184570,0.7666734695434571
0.6067211151123046,0.7704792022705078
0.6095712661743163,0.7704792022705078
0.6054468154907227,0.7707046508789063
0.6054468154907227,0.7707046508789063
0.6088256835937500,0.7692392349243163
0.6088256835937500,0.7692392349243163
0.6113250732421874,0.7745893478393554
0.6113250732421874,0.7745893478393554
0.6075839996337891,0.7699230194091796
0.6075839996337891,0.7699230194091796
0.6131515502929688,0.7749818801879883
0.6131515502929688,0.7749818801879883
0.6083204269409179,0.7757892608642578
0.6083204269409179,0.7757892608642578
0.6129455566406250,0.7743656158447265
0.6129455566406250,0.7743656158447265
0.6139320373535156,0.7795761108398437
0.6139320373535156,0.7795761108398437
0.6108495712280273,0.7754001617431641
0.6108495712280273,0.7754001617431641
0.6166242599487305,0.7804412841796875
0.6166242599487305,0.7804412841796875
0.6128791809082031,0.7816137313842774
0.6128791809082031,0.7816137313842774
0.6157762527465820,0.7797941207885742
0.6157762527465820,0.7797941207885742
0.6176296234130859,0.7857387542724609
0.6176296234130859,0.7857387542724609
0.6146158218383789,0.7813619613647461
0.6146158218383789,0.7813619613647461
0.6213975906372070,0.7866531372070312
0.6213975906372070,0.7866531372070312
0.6158649444580078,0.7874668121337890
0.6158649444580078,0.7874668121337890
0.6197965621948242,0.7862611770629883
0.6197965621948242,0.7862611770629883
0.6216590881347656,0.7920352935791015
0.6216590881347656,0.7920352935791015
0.6192243576049804,0.7873237609863281
0.6192243576049804,0.7873237609863281
0.6241744995117188,0.7913726806640625
0.6241744995117188,0.7913726806640625
0.6185182571411133,0.7910699844360352
0.6207378387451171,0.7866720199584961
0.6207378387451171,0.7866720199584961
0.6212900161743163,0.7885236740112305
0.6212900161743163,0.7885236740112305
0.6143423080444336,0.7787796020507812
0.6157636642456055,0.7787796020507812
0.6169378280639648,0.7787733078002930
0.6169378280639648,0.7787733078002930
0.6087375640869140,0.7744571685791015
0.6087375640869140,0.7744571685791015
0.6099826812744140,0.7679655075073242
0.6099826812744140,0.7679655075073242
0.6081224441528320,0.7687213897705077
0.6081224441528320,0.7687213897705077
0.6023591995239258,0.7605525970458984
0.6023591995239258,0.7605525970458984
0.6057558059692383,0.7620471954345703
0.6057558059692383,0.7620471954345703
0.6000463485717773,0.7601823806762695
0.6000463485717773,0.7601823806762695
0.6011541366577148,0.7556659698486328
0.6011541366577148,0.7556659698486328
0.6016296386718750,0.7592067718505859
0.6016296386718750,0.7592067718505859
0.5970794677734375,0.7527088165283203
0.5970794677734375,0.7527088165283203
0.6028135299682617,0.7562770843505859
0.6028135299682617,0.7562770843505859
0.5964294433593750,0.7555938720703125
0.5964294433593750,0.7555938720703125
0.5994678497314453,0.7531579971313477
0.5994678497314453,0.7531579971313477
0.6008222579956054,0.7578575134277343
0.6008222579956054,0.7578575134277343
0.5979984283447265,0.7527912139892577
0.5979984283447265,0.7527912139892577
0.6029211044311523,0.7571125030517578
0.6029211044311523,0.7571125030517578
0.5980951309204101,0.7581476211547852
0.6037605285644531,0.7581476211547852
0.6015724182128906,0.7563503265380859
0.6015724182128906,0.7563503265380859
0.6044139862060547,0.7621067047119140
0.6044139862060547,0.7621067047119140
0.6004394531250000,0.7572418212890625
0.6004394531250000,0.7572418212890625
0.6064350128173828,0.7627922058105469
0.6064350128173828,0.7627922058105469
0.6018682479858398,0.7640756607055664
0.6018682479858398,0.7640756607055664
0.6065242767333984,0.7627676010131835
0.6065242767333984,0.7627676010131835
0.6077865600585938,0.7681955337524414
0.6077865600585938,0.7681955337524414
0.6047103881835937,0.7642244338989258
0.6047103881835937,0.7642244338989258
0.6106063842773437,0.7693428039550781
0.6106063842773437,0.7693428039550781
0.6070547103881836,0.7708465576171875
0.6070547103881836,0.7708465576171875
0.6099357604980469,0.7690006256103515
0.6099357604980469,0.7690006256103515
0.6121702194213867,0.7750717163085937
0.6121702194213867,0.7750717163085937
0.6089235305786133,0.7710010528564453
0.6089235305786133,0.7710010528564453
0.6158134460449218,0.7762247085571289
0.6158134460449218,0.7762247085571289
0.6106796264648438,0.7773799896240234
0.6106796264648438,0.7773799896240234
0.6142473220825195,0.7763528823852539
0.6142473220825195,0.7763528823852539
0.6165653228759765,0.7823003768920899
0.6165653228759765,0.7823003768920899
0.6144538879394531,0.7783041000366211
0.6144538879394531,0.7783041000366211
0.6197416305541992,0.7834774017333984
0.6197416305541992,0.7834774017333984
0.6153671264648437,0.7852163314819336
0.6153671264648437,0.7852163314819336
0.6190486907958984,0.7839368820190430
0.6190486907958984,0.7839368820190430
0.6223234176635742,0.7901304244995117
0.6223234176635742,0.7901304244995117
0.6183437347412110,0.7854898452758788
0.6183437347412110,0.7854898452758788
0.6245069503784180,0.7911340713500976
0.6245069503784180,0.7911340713500976
0.6199510574340820,0.7925279617309570
0.6199510574340820,0.7925279617309570
0.6245939254760742,0.7914058685302734
0.6245939254760742,0.7914058685302734
0.6259346008300781,0.7968767166137695
0.6259346008300781,0.7968767166137695
0.6228492736816406,0.7929782867431641
0.6228492736816406,0.7929782867431641
0.6287469863891602,0.7980119705200195
0.6287469863891602,0.7980119705200195
0.6248931884765625,0.7987695693969726
0.6248931884765625,0.7987695693969726
0.6270538330078125,0.7957923889160156
0.6270538330078125,0.7957923889160156
0.6282228469848633,0.7997720718383788
0.6282228469848633,0.7997720718383788
0.6231657028198242,0.7924592971801757
0.6231657028198242,0.7924592971801757
0.6277233123779297,0.7935510635375976
0.6277233123779297,0.7935510635375976
0.6195533752441406,0.7894987106323242
0.6195533752441406,0.7894987106323242
0.6197341918945313,0.7828622817993164
0.6197341918945313,0.7828622817993164
0.6185302734375000,0.7833669662475585
0.6185302734375000,0.7833669662475585
0.6128648757934571,0.7739084243774413
0.6128648757934571,0.7739084243774413
0.6150358200073242,0.7740995407104492
0.6150358200073242,0.7740995407104492
0.6079765319824219,0.7718044281005859
0.6079765319824219,0.7718044281005859
0.6091278076171874,0.7668388366699218
0.6051126480102539,0.7668388366699218
0.6104610443115234,0.7700151443481446
0.6104610443115234,0.7700151443481446
0.6047796249389649,0.7628900527954101
0.6047796249389649,0.7628900527954101
0.6093629837036133,0.7661470413208008
0.6093629837036133,0.7661470413208008
0.6037405014038085,0.7657035827636719
0.6037405014038085,0.7657035827636719
0.6071605682373047,0.7628099441528320
0.6071605682373047,0.7628099441528320
0.6079032897949218,0.7672033309936523
0.6079032897949218,0.7672033309936523
0.6040969848632812,0.7622240066528320
0.6073127746582031,0.7622240066528320
0.6095964431762695,0.7667049407958985
0.6095964431762695,0.7667049407958985
0.6058267593383789,0.7677749633789063
0.6058267593383789,0.7677749633789063
0.6082912445068359,0.7655204772949219
0.6082912445068359,0.7655204772949219
0.6104953765869140,0.7715314865112305
0.6104953765869140,0.7715314865112305
0.6071645736694335,0.7672330856323242
0.6071645736694335,0.7672330856323242
0.6139909744262695,0.7725397109985351
0.6139909744262695,0.7725397109985351
0.6089235305786133,0.7735370635986328
0.6089235305786133,0.7735370635986328
0.6122325897216797,0.7723400115966796
0.6122325897216797,0.7723400115966796
0.6146015167236328,0.7782056808471679
0.6146015167236328,0.7782056808471679
0.6123006820678710,0.7740171432495117
0.6123006820678710,0.7740171432495117
0.6174774169921875,0.7789272308349610
0.6174774169921875,0.7789272308349610
0.6131315231323242,0.7805351257324219
0.6131315231323242,0.7805351257324219
0.6163164138793945,0.7789546966552734
0.6163164138793945,0.7789546966552734
0.6196077346801757,0.7847826004028320
0.6196077346801757,0.7847826004028320
0.6154804229736328,0.7801156997680664
0.6154804229736328,0.7801156997680664
0.6213552474975585,0.7854835510253906
0.6213552474975585,0.7854835510253906
0.6168863296508789,0.7868162155151367
0.6168863296508789,0.7868162155151367
0.6211412429809570,0.7851408004760742
0.6211412429809570,0.7851408004760742
0.6226020812988281,0.7905961990356445
0.6226020812988281,0.7905961990356445
0.6193834304809570,0.7863155364990234
0.6193834304809570,0.7863155364990234
0.6250951766967773,0.7913675308227539
0.6250951766967773,0.7913675308227539
0.6216733932495117,0.7928535461425781
0.6216733932495117,0.7928535461425781
0.6239788055419921,0.7907850265502929
0.6239788055419921,0.7907850265502929
0.6230060577392578,0.7923603057861328
0.6230060577392578,0.7923603057861328
0.6254888534545898,0.7947011947631836
0.6254888534545898,0.7947011947631836
0.6276861190795898,0.7969144821166992
0.6276861190795898,0.7969144821166992
0.6298942565917969,0.8026376724243164
0.6294158935546875,0.8026376724243164
0.6274795532226562,0.7982397079467773
0.6274795532226562,0.7982397079467773
0.6324754714965820,0.8027303695678710
0.6324754714965820,0.8027303695678710
0.6281375885009766,0.8042924880981445
0.6281375885009766,0.8042924880981445
0.6310403823852538,0.8023218154907227
0.6310403823852538,0.8023218154907227
0.6340141296386719,0.8076118469238281
0.6340141296386719,0.8076118469238281
0.6293134689331055,0.8017118453979492
0.6293134689331055,0.8017118453979492
0.6343145370483398,0.8052091598510742
0.6343145370483398,0.8052091598510742
0.6285289764404297,0.8037900924682617
0.6328588485717773,0.8037900924682617
0.6304212570190429,0.7986339569091797
0.6304212570190429,0.7986339569091797
0.6295858383178711,0.7997560501098633
0.6295858383178711,0.7997560501098633
0.6233156204223632,0.7907415390014648
0.6233156204223632,0.7907415390014648
0.6261142730712891,0.7910688400268554
0.6261142730712891,0.7910688400268554
0.6198875427246093,0.7879383087158203
0.6198875427246093,0.7879383087158203
0.6194561004638671,0.7815147399902344
0.6194561004638671,0.7815147399902344
0.6193593978881836,0.7838499069213867
0.6193593978881836,0.7838499069213867
0.6138908386230468,0.7761606216430664
0.6138908386230468,0.7761606216430664
0.6188884735107422,0.7786520004272460
0.6188884735107422,0.7786520004272460
0.6123825073242187,0.7775608062744140
0.6123825073242187,0.7775608062744140
0.6142621994018554,0.7744497299194336
0.6142621994018554,0.7744497299194336
0.6157321929931641,0.7787921905517577
0.6157321929931641,0.7787921905517577
0.6126194000244141,0.7735193252563476
0.6126194000244141,0.7735193252563476
0.6173034667968750,0.7774990081787109
0.6173034667968750,0.7774990081787109
0.6126909255981445,0.7785518646240234
0.6126909255981445,0.7785518646240234
0.6154506683349609,0.7766561508178711
0.6123950958251952,0.7766561508178711
0.6187208175659179,0.7821962356567382
0.6187208175659179,0.7821962356567382
0.6143629074096679,0.7772186279296874
0.6143629074096679,0.7772186279296874
0.6202062606811524,0.7826465606689453
0.6202062606811524,0.7826465606689453
0.6159725189208984,0.7840055465698242
0.6159725189208984,0.7840055465698242
0.6199562072753906,0.7824193954467773
0.6199562072753906,0.7824193954467773
0.6215806961059570,0.7878593444824219
0.6215806961059570,0.7878593444824219
0.6181274414062500,0.7835002899169922
0.6217048645019531,0.7835002899169922
0.6202245712280273,0.7858028411865234
0.6212162017822266,0.7858028411865234
0.6248142242431640,0.7915884017944336
0.6217844009399414,0.7915884017944336
0.6196334838867187,0.7891370773315429
0.6259798049926758,0.7891370773315429
0.6238477706909179,0.7904211044311523
0.6200082778930663,0.7904211044311523
0.6242156982421875,0.7944780349731445
0.6275207519531250,0.7944780349731445
0.6237030029296875,0.7907495498657227
0.6235628128051758,0.7907495498657227
0.6279150009155273,0.7964504241943359
0.6248445510864258,0.7964504241943359
0.6213209152221679,0.7941415786743163
0.6277770996093750,0.7941415786743163
0.6282251358032226,0.7953346252441406
0.6253618240356446,0.7953346252441406
0.6274755477905273,0.7994190216064453
0.6297798156738281,0.7994190216064453
0.6264513015747070,0.7955755233764649
0.6266492843627930,0.7955755233764649
0.6296888351440429,0.8014497756958008
0.6266475677490234,0.8014497756958008
0.6257486343383789,0.7992605209350586
0.6330997467041015,0.7992605209350586
0.6315279006958008,0.8003562927246094
0.6276088714599609,0.8003562927246094
0.6304847717285156,0.8043828964233398
0.6328210830688477,0.8043828964233398
0.6281461715698242,0.8006933212280273
0.6284191131591796,0.8006933212280273
0.6340867996215820,0.8064228057861328
0.6318798065185547,0.8064228057861328
0.6288408279418946,0.8041637420654296
0.6352357864379883,0.8041637420654296
0.6343523025512695,0.8050638198852539
0.6305591583251953,0.8050638198852539
0.6320898056030273,0.8092363357543945
0.6344564437866210,0.8092363357543945
0.6324783325195312,0.8055072784423828
0.6335477828979492,0.8055072784423828
0.6372951507568360,0.8109432220458984
0.6337406158447265,0.8109432220458984
0.6315999984741211,0.8084026336669922
0.6378410339355468,0.8084026336669922
0.6352409362792969,0.8086967468261719
0.6313076019287109,0.8086967468261719
0.6351596832275390,0.8115417480468750
0.6377357482910156,0.8115417480468750
0.6331066131591797,0.8053876876831054
0.6323684692382813,0.8053876876831054
0.6357433319091796,0.8076438903808594
0.6314374923706054,0.8076438903808594
0.6267282485961914,0.8014022827148437
0.6317430496215820,0.8014022827148437
0.6306169509887695,0.7974918365478515
0.6261577606201172,0.7974918365478515
0.6267923355102539,0.7960247039794922
0.6270521163940429,0.7960247039794922
0.6219663619995117,0.7866468429565430
0.6204586029052734,0.7866468429565430
0.6218376159667969,0.7868602752685546
0.6218376159667969,0.7868602752685546
0.6146478652954102,0.7796762466430663
0.6203968048095703,0.7796762466430663
0.6172668457031250,0.7762464523315430
0.6121570587158203,0.7762464523315430
0.6139554977416992,0.7765794754028320
0.6150587081909179,0.7765794754028320
0.6095214843750000,0.7695865631103516
0.6088182449340820,0.7695865631103516
0.6135961532592773,0.7725328445434571
0.6104810714721679,0.7725328445434571
0.6069477081298827,0.7679254531860351
0.6069477081298827,0.7679254531860351
0.6107700347900390,0.7670162200927734
0.6064218521118164,0.7670162200927734
0.6076234817504883,0.7693571090698242
0.6093927383422851,0.7693571090698242
0.6070661544799805,0.7641757965087891
0.6078609466552735,0.7641757965087891
0.6110727310180664,0.7689250946044922
0.6075113296508788,0.7689250946044922
0.6051950454711914,0.7658145904541015
0.6051950454711914,0.7658145904541015
0.6088674545288085,0.7665441513061523
0.6051166534423827,0.7665441513061523
0.6094305038452148,0.7703023910522461
0.6124259948730468,0.7703023910522461
0.6085355758666992,0.7661865234374999
0.6086311340332031,0.7661865234374999
0.6128013610839843,0.7716539382934570
0.6096124649047852,0.7716539382934570
0.6060991287231445,0.7696598052978515
0.6060991287231445,0.7696598052978515
0.6129444122314452,0.7708225250244141
0.6129444122314452,0.7708225250244141
0.6124511718750000,0.7750585556030273
0.6146530151367188,0.7750585556030273
0.6112792968749999,0.7710771560668945
0.6117124557495117,0.7710771560668945
0.6147113800048828,0.7770114898681640
0.6114835739135742,0.7770114898681640
0.6107151031494140,0.7748079299926758
0.6181074142456054,0.7748079299926758
0.6163890838623046,0.7758853912353515
0.6125392913818359,0.7758853912353515
0.6155181884765625,0.7801031112670899
0.6177600860595703,0.7801031112670899
0.6130388259887695,0.7761995315551757
0.6135200500488281,0.7761995315551757
0.6191860198974609,0.7819473266601562
0.6167959213256836,0.7819473266601562
0.6138753890991211,0.7797620773315429
0.6203927993774414,0.7797620773315429
0.6191705703735352,0.7806861877441406
0.6156452178955077,0.7806861877441406
0.6173904418945312,0.7849800109863281
0.6196220397949218,0.7849800109863281
0.6177274703979492,0.7812286376953125
0.6188684463500976,0.7812286376953125
0.6225906372070312,0.7868963241577148
0.6191047668457031,0.7868963241577148
0.6169424057006836,0.7848815917968750
0.6235101699829101,0.7848815917968750
0.6210433959960937,0.7857856750488281
0.6174854278564453,0.7857856750488281
0.6219411849975586,0.7902111053466797
0.6249298095703125,0.7902111053466797
0.6207996368408203,0.7861101150512695
0.6210880279541016,0.7861101150512695
0.6255500793457031,0.7919408798217773
0.6221780776977539,0.7919408798217773
0.6187974929809570,0.7899381637573242
0.6252141952514648,0.7899381637573242
0.6255311965942383,0.7909389495849609
0.6255311965942383,0.7909389495849609
0.6253017425537110,0.7952299118041992
0.6272037506103515,0.7952299118041992
0.6237447738647460,0.7912364959716797
0.6241962432861328,0.7912364959716797
0.6270360946655273,0.7968944549560547
0.6237951278686523,0.7968944549560547
0.6229310989379883,0.7943367004394531
0.6301002502441406,0.7943367004394531
0.6278560638427734,0.7944391250610351
0.6238729476928710,0.7944391250610351
0.6263368606567382,0.7967657089233399
0.6278657913208008,0.7967657089233399
0.6222015380859375,0.7900434494018554
0.6216470718383789,0.7900434494018554
0.6259157180786132,0.7914665222167968
0.6220722198486328,0.7914665222167968
0.6178464889526367,0.7843402862548828
0.6224876403808594,0.7843402862548828
0.6195150375366211,0.7796419143676757
0.6139875411987304,0.7796419143676757
0.6140722274780274,0.7780208587646484
0.6142261505126952,0.7780208587646484
0.6106653213500977,0.7689016342163085
0.6104152679443359,0.7689016342163085
0.6123258590698242,0.7699464797973633
0.6077299118041992,0.7699464797973633
0.6043813705444335,0.7636585235595703
0.6043813705444335,0.7636585235595703
0.6059211730957031,0.7611728668212890
0.6059211730957031,0.7611728668212890
0.6047681808471680,0.7621662139892578
0.6066507339477539,0.7621662139892578
0.6020799636840820,0.7556991577148438
0.6017320632934570,0.7556991577148438
0.6050004959106445,0.7592159271240234
0.6010883331298827,0.7592159271240234
0.5972906112670898,0.7552116394042968
0.6031064987182617,0.7552116394042968
0.6027093887329101,0.7545627593994141
0.6027093887329101,0.7545627593994141
0.6015100479125977,0.7574054718017578
0.6031259536743164,0.7574054718017578
0.5996538162231445,0.7524599075317383
0.5996538162231445,0.7524599075317383
0.6023557662963867,0.7574615478515625
0.5988224029541015,0.7574615478515625
0.5982244491577148,0.7548419952392578
0.5982244491577148,0.7548419952392578
0.6034492492675781,0.7553575515747070
0.6034492492675781,0.7553575515747070
0.6028341293334961,0.7594230651855468
0.6047458648681641,0.7594230651855468
0.6002025604248047,0.7555366516113281
0.6008646011352539,0.7555366516113281
0.6062376022338867,0.7611660003662110
0.6062376022338867,0.7611660003662110
0.6012886047363281,0.7593372344970702
0.6012886047363281,0.7593372344970702
0.6063743591308594,0.7603918075561523
0.6030555725097656,0.7603918075561523
0.6048711776733399,0.7647085189819336
0.6069425582885742,0.7647085189819336
0.6051212310791015,0.7610853195190429
0.6051212310791015,0.7610853195190429
0.6100782394409180,0.7667615890502929
0.6065843582153320,0.7667615890502929
0.6045879364013672,0.7647554397583007
0.6110589981079101,0.7647554397583007
0.6084932327270508,0.7657081604003906
0.6050296783447265,0.7657081604003906
0.6094282150268554,0.7697782516479492
0.6120901107788086,0.7697782516479492
0.6081905364990234,0.7660062789916992
0.6081905364990234,0.7660062789916992
0.6126531600952149,0.7714645385742187
0.6094585418701172,0.7714645385742187
0.6063428878784179,0.7696317672729492
0.6063428878784179,0.7696317672729492
0.6127447128295899,0.7706474304199219
0.6102224349975586,0.7706474304199219
0.6127687454223633,0.7748691558837890
0.6145832061767578,0.7748691558837890
0.6113204956054688,0.7712081909179688
0.6120105743408203,0.7712081909179688
0.6147651672363281,0.7770200729370117
0.6147651672363281,0.7770200729370117
0.6112152099609375,0.7755220413208007
0.6184541702270507,0.7755220413208007
0.6166236877441406,0.7768003463745117
0.6133094787597656,0.7768003463745117
0.6165853500366211,0.7813619613647461
0.6186904907226562,0.7813619613647461
0.6142501831054688,0.7779390335083007
0.6150604248046875,0.7779390335083007
0.6204860687255859,0.7839488983154297
0.6204860687255859,0.7839488983154297
0.6160005569458008,0.7824640274047852
0.6221179962158203,0.7824640274047852
0.6209604263305664,0.7837102890014648
0.6178081512451171,0.7837102890014648
0.6197513580322266,0.7883348464965820
0.6217906951904296,0.7883348464965820
0.6199298858642578,0.7847917556762695
0.6213781356811523,0.7847917556762695
0.6247615814208984,0.7907804489135742
0.6217157363891601,0.7907804489135742
0.6197971343994141,0.7888881683349609
0.6262075424194335,0.7888881683349609
0.6237104415893554,0.7900800704956055
0.6203241348266602,0.7900800704956055
0.6248102188110352,0.7942663192749023
0.6248102188110352,0.7942663192749023
0.6234992980957031,0.7897132873535156
0.6236028671264648,0.7897132873535156
0.6272249221801758,0.7938669204711913
0.6233659744262695,0.7938669204711913
0.6193302154541015,0.7893957138061524
0.6245115280151367,0.7893957138061524
0.6233911514282227,0.7861204147338867
0.6194990158081054,0.7861204147338867
0.6204088211059570,0.7855253219604492
0.6206966400146484,0.7855253219604492
0.6157299041748047,0.7761697769165039
0.6146278381347656,0.7761697769165039
0.6159193038940429,0.7767951965332031
0.6159193038940429,0.7767951965332031
0.6090185165405273,0.7700986862182617
0.6146701812744141,0.7700986862182617
0.6116106033325195,0.7667839050292968
0.6067394256591797,0.7667839050292968
0.6087278366088867,0.7675964355468750
0.6096427917480468,0.7675964355468750
0.6041044235229492,0.7605285644531250
0.6038251876831054,0.7605285644531250
0.6083644866943360,0.7636510848999023
0.6050971984863281,0.7636510848999023
0.6018058776855468,0.7595529556274414
0.6018058776855468,0.7595529556274414
0.6056482315063476,0.7583393096923828
0.6056482315063476,0.7583393096923828
0.6031356811523437,0.7612506866455078
0.6047075271606445,0.7612506866455078
0.6023254394531250,0.7561489105224609
0.6033079147338867,0.7561489105224609
0.6067388534545898,0.7611700057983398
0.6030418395996093,0.7611700057983398
0.6008113861083985,0.7585515975952148
0.6008113861083985,0.7585515975952148
0.6043178558349609,0.7588531494140625
0.6043178558349609,0.7588531494140625
0.6054548263549805,0.7631475448608398
0.6080909729003906,0.7631475448608398
0.6040225982666015,0.7590665817260742
0.6046274185180663,0.7590665817260742
0.6087347030639648,0.7649459838867188
0.6056247711181640,0.7649459838867188
0.6025033950805664,0.7633243560791015
0.6090528488159179,0.7633243560791015
0.6091569900512696,0.7644756317138671
0.6066673278808593,0.7644756317138671
0.6094968795776367,0.7691390991210937
0.6113645553588867,0.7691390991210937
0.6132276535034179,0.7700803756713867
0.6117816925048828,0.7700803756713867
0.6104650497436523,0.7682693481445312
0.6104650497436523,0.7682693481445312
0.6143566131591797,0.7744291305541992
0.6143566131591797,0.7744291305541992
0.6100856781005859,0.7697908401489257
0.6100856781005859,0.7697908401489257
0.6159067153930664,0.7749481201171875
0.6159067153930664,0.7749481201171875
0.6122886657714843,0.7766469955444336
0.6122886657714843,0.7766469955444336
0.6153539657592774,0.7750219345092774
0.6153539657592774,0.7750219345092774
0.6178253173828124,0.7806747436523437
0.6178253173828124,0.7806747436523437
0.6142175674438476,0.7767219543457031
0.6142175674438476,0.7767219543457031
0.6200563430786132,0.7817447662353515
0.6200563430786132,0.7817447662353515
0.6173789978027343,0.7835552215576171
0.6215932846069335,0.7835552215576171
0.6188684463500976,0.7815038681030273
0.6188684463500976,0.7815038681030273
0.6220338821411132,0.7877941131591797
0.6220338821411132,0.7877941131591797
0.6184444427490234,0.7833429336547851
0.6184444427490234,0.7833429336547851
0.6250568389892578,0.7884687423706055
0.6250568389892578,0.7884687423706055
0.6207315444946289,0.7899816513061523
0.6207315444946289,0.7899816513061523
0.6228876113891602,0.7882844924926757
0.6228876113891602,0.7882844924926757
0.6259363174438476,0.7943115234375000
0.6259363174438476,0.7943115234375000
0.6232360839843750,0.7899633407592773
0.6232360839843750,0.7899633407592773
0.6281501770019531,0.7945072174072265
0.6281501770019531,0.7945072174072265
0.6247386932373047,0.7966192245483398
0.6247386932373047,0.7966192245483398
0.6267339706420898,0.7946640014648437
0.6267339706420898,0.7946640014648437
0.6308029174804687,0.8007350921630859
0.6308029174804687,0.8007350921630859
0.6262229919433594,0.7960081100463867
0.6262229919433594,0.7960081100463867
0.6319456100463867,0.8009347915649414
0.6319456100463867,0.8009347915649414
0.6282920837402344,0.8026388168334960
0.6282920837402344,0.8026388168334960
0.6332199096679687,0.8055330276489258
0.6332199096679687,0.8055330276489258
0.6303571701049805,0.8021352767944335
0.6332828521728515,0.8021352767944335
0.6276306152343750,0.7939825057983398
0.6276306152343750,0.7939825057983398
0.6215526580810546,0.7901418685913085
0.6215526580810546,0.7866800308227538
0.6253292083740234,0.7819009780883789
0.6196060180664062,0.7819009780883789
0.6181257247924804,0.7839242935180664
0.6181257247924804,0.7780122756958008
0.6132431030273438,0.7787361145019531
0.6186447143554688,0.7787361145019531
0.6179105758666992,0.7766693115234374
0.6179105758666992,0.7766693115234374
0.6164955139160156,0.7786972045898437
0.6164955139160156,0.7786972045898437
0.6133712768554688,0.7726152420043945
0.6133712768554688,0.7726152420043945
0.6159227371215820,0.7771007537841796
0.6159227371215820,0.7771007537841796
0.6112827301025391,0.7740285873413085
0.6112827301025391,0.7740285873413085
0.6158929824829101,0.7739204406738281
0.6158929824829101,0.7739204406738281
0.6153894424438476,0.7777473449707031
0.6153894424438476,0.7777473449707031
0.6122663497924804,0.7733980178833008
0.6122663497924804,0.7733980178833008
0.6183237075805664,0.7790971755981445
0.6183237075805664,0.7790971755981445
0.6133386611938476,0.7772472381591796
0.6133386611938476,0.7772472381591796
0.6182510375976562,0.7779664993286133
0.6182510375976562,0.7779664993286133
0.6168811798095702,0.7825859069824218
0.6168811798095702,0.7825859069824218
0.6166711807250976,0.7785427093505859
0.6166711807250976,0.7785427093505859
0.6215423583984375,0.7845308303833007
0.6215423583984375,0.7845308303833007
0.6165458679199218,0.7826614379882812
0.6165458679199218,0.7826614379882812
0.6203510284423828,0.7836811065673828
0.6203510284423828,0.7836811065673828
0.6215841293334960,0.7880819320678710
0.6215841293334960,0.7880819320678710
0.6203098297119141,0.7840747833251953
0.6203098297119141,0.7840747833251953
0.6248920440673827,0.7899713516235352
0.6248920440673827,0.7899713516235352
0.6184101104736328,0.7880802154541016
0.6184101104736328,0.7880802154541016
0.6248085021972656,0.7888818740844726
0.6248085021972656,0.7888818740844726
0.6250202178955078,0.7933382034301758
0.6250202178955078,0.7933382034301758
0.6232721328735351,0.7891794204711914
0.6232721328735351,0.7891794204711914
0.6268495559692383,0.7951063156127930
0.6268495559692383,0.7951063156127930
0.6230340957641601,0.7932701110839844
0.6230340957641601,0.7932701110839844
0.6284105300903320,0.7940471649169921
0.6284105300903320,0.7940471649169921
0.6280654907226563,0.7984989166259765
0.6280654907226563,0.7984989166259765
0.6252267837524413,0.7943853378295899
0.6252267837524413,0.7943853378295899
0.6315135955810547,0.8005216598510742
0.6315135955810547,0.8005216598510742
0.6264656066894531,0.7986619949340820
0.6264656066894531,0.7986619949340820
0.6312669754028321,0.7991306304931640
0.6312669754028321,0.7991306304931640
0.6300333023071288,0.8036321640014649
0.6300333023071288,0.8036321640014649
0.6296178817749023,0.7996004104614257
0.6296178817749023,0.7996004104614257
0.6346876144409179,0.8053899765014648
0.6346876144409179,0.8053899765014648
0.6291973114013671,0.8034473419189453
0.6291973114013671,0.8034473419189453
0.6328227996826171,0.8041185379028321
0.6328227996826171,0.8041185379028321
0.6341686248779297,0.8085102081298828
0.6341686248779297,0.8085102081298828
0.6326814651489258,0.8042461395263671
0.6326814651489258,0.8042461395263671
0.6372762680053711,0.8098463058471680
0.6372762680053711,0.8098463058471680
0.6307405471801758,0.8078819274902344
0.6307405471801758,0.8078819274902344
0.6368225097656249,0.8079030990600585
0.6368225097656249,0.8079030990600585
0.6364007949829101,0.8110136032104492
0.6364007949829101,0.8110136032104492
0.6333669662475586,0.8043062210083007
0.6333669662475586,0.8043062210083007
0.6348936080932617,0.8066974639892578
0.6348936080932617,0.8066974639892578
0.6287372589111327,0.8005004882812500
0.6287372589111327,0.8005004882812500
0.6309625625610351,0.7965179443359375
0.6309625625610351,0.7965179443359375
0.6278669357299804,0.7958026885986328
0.6278669357299804,0.7958026885986328
0.6218141555786133,0.7866806030273438
0.6218141555786133,0.7866806030273438
0.6250133514404297,0.7878519058227539
0.6209718704223632,0.7878519058227539
0.6173727035522460,0.7817625045776367
0.6173727035522460,0.7817625045776367
0.6195842742919921,0.7787309646606445
0.6195842742919921,0.7787309646606445
0.6161785125732422,0.7799108505249023
0.6161785125732422,0.7799108505249023
0.6140922546386719,0.7728841781616210
0.6140922546386719,0.7728841781616210
0.6174739837646485,0.7765222549438476
0.6174739837646485,0.7765222549438476
0.6110589981079101,0.7728475570678711
0.6110589981079101,0.7728475570678711
0.6137014389038086,0.7720287322998046
0.6137014389038086,0.7720287322998046
0.6143915176391601,0.7754081726074219
0.6143915176391601,0.7754081726074219
0.6124259948730468,0.7705192565917969
0.6124259948730468,0.7705192565917969
0.6164840698242188,0.7757858276367188
0.6164840698242188,0.7757858276367188
0.6098293304443360,0.7735124588012695
0.6098293304443360,0.7735124588012695
0.6158569335937499,0.7740411758422852
0.6158569335937499,0.7740411758422852
0.6158884048461913,0.7782903671264648
0.6158884048461913,0.7782903671264648
0.6141706466674804,0.7739913940429687
0.6141706466674804,0.7739913940429687
0.6177131652832031,0.7802301406860351
0.6177131652832031,0.7802301406860351
0.6139898300170898,0.7784809112548828
0.6139898300170898,0.7784809112548828
0.6192146301269531,0.7792613983154296
0.6192146301269531,0.7792613983154296
0.6192037582397460,0.7839477539062499
0.6192037582397460,0.7839477539062499
0.6162963867187500,0.7797740936279297
0.6162963867187500,0.7797740936279297
0.6225133895874023,0.7858514785766602
0.6225133895874023,0.7858514785766602
0.6175804138183594,0.7841663360595703
0.6175804138183594,0.7841663360595703
0.6225448608398437,0.7850189208984375
0.6225448608398437,0.7850189208984375
0.6213512420654297,0.7896715164184570
0.6213512420654297,0.7896715164184570
0.6211612701416015,0.7855144500732422
0.6211612701416015,0.7855144500732422
0.6262550354003906,0.7915769577026367
0.6262550354003906,0.7915769577026367
0.6208797454833984,0.7898792266845703
0.6208797454833984,0.7898792266845703
0.6246065139770508,0.7906785964965820
0.6246065139770508,0.7906785964965820
0.6260576248168945,0.7953495025634766
0.6260576248168945,0.7953495025634766
0.6246397018432617,0.7912914276123046
0.6246397018432617,0.7912914276123046
0.6294736862182617,0.7972835540771485
0.6294736862182617,0.7972835540771485
0.6230306625366211,0.7957712173461914
0.6230306625366211,0.7957712173461914
0.6294548034667968,0.7964893341064453
0.6294548034667968,0.7964893341064453
0.6298547744750976,0.8011625289916992
0.6298547744750976,0.8011625289916992
0.6280660629272461,0.7971244812011719
0.6280660629272461,0.7971244812011719
0.6316091537475585,0.8029838562011719
0.6316091537475585,0.8029838562011719
0.6279710769653321,0.8013547897338867
0.6279710769653321,0.8013547897338867
0.6328514099121093,0.8021249771118164
0.6328514099121093,0.8021249771118164
0.6328840255737305,0.8065080642700195
0.6328840255737305,0.8065080642700195
0.6299280166625977,0.8024230957031250
0.6299280166625977,0.8024230957031250
0.6360065460205078,0.8082721710205077
0.6360065460205078,0.8082721710205077
0.6310455322265625,0.8061807632446288
0.6310455322265625,0.8061807632446288
0.6355184555053711,0.8065086364746094
0.6355184555053711,0.8065086364746094
0.6338104248046875,0.8100151062011719
0.6338104248046875,0.8100151062011719
0.6325956344604492,0.8037981033325196
0.6325956344604492,0.8037981033325196
0.6358388900756836,0.8064073562622071
0.6358388900756836,0.8064073562622071
0.6283544540405274,0.8004753112792968
0.6283544540405274,0.8004753112792968
0.6292196273803711,0.7964790344238281
0.6292196273803711,0.7964790344238281
0.6276512145996094,0.7959245681762696
0.6276512145996094,0.7959245681762696
0.6231142044067383,0.7866594314575195
0.6231142044067383,0.7866594314575195
0.6245784759521484,0.7875881195068359
0.6245784759521484,0.7875881195068359
0.6152257919311523,0.7812629699707031
0.6152257919311523,0.7812629699707031
0.6188238143920898,0.7777793884277343
0.6188238143920898,0.7777793884277343
0.6165756225585938,0.7785444259643555
0.6165756225585938,0.7785444259643555
0.6128992080688477,0.7710348129272461
0.6128992080688477,0.7710348129272461
0.6145975112915039,0.7743633270263671
0.6145975112915039,0.7743633270263671
0.6095701217651367,0.7706039428710937
0.6159799575805663,0.7706039428710937
0.6134765624999999,0.7694829940795899
0.6095483779907226,0.7694829940795899
0.6124151229858398,0.7725671768188477
0.6124151229858398,0.7725671768188477
0.6088331222534179,0.7673669815063476
0.6088331222534179,0.7673669815063476
0.6145648956298828,0.7725408554077148
0.6145648956298828,0.7725408554077148
0.6093297958374023,0.7704013824462891
0.6093297958374023,0.7704013824462891
0.6139446258544922,0.7706371307373047
0.6139446258544922,0.7706371307373047
0.6126794815063477,0.7751214981079101
0.6126794815063477,0.7751214981079101
0.6124465942382812,0.7711246490478515
0.6141597747802734,0.7711246490478515
0.6175317764282227,0.7772254943847656
0.6140893936157227,0.7772254943847656
0.6124528884887696,0.7756336212158202
0.6124528884887696,0.7756336212158202
0.6160583496093750,0.7765611648559571
0.6160583496093750,0.7765611648559571
0.6176902770996093,0.7813379287719726
0.6176902770996093,0.7813379287719726
0.6163301467895508,0.7775030136108398
0.6163301467895508,0.7775030136108398
0.6211240768432617,0.7835117340087890
0.6211240768432617,0.7835117340087890
0.6150810241699218,0.7821870803833008
0.6150810241699218,0.7821870803833008
0.6212522506713867,0.7829647064208984
0.6212522506713867,0.7829647064208984
0.6218971252441406,0.7877460479736328
0.6218971252441406,0.7877460479736328
0.6199905395507812,0.7835626602172852
0.6199905395507812,0.7835626602172852
0.6236629486083984,0.7896440505981445
0.6236629486083984,0.7896440505981445
0.6200860977172852,0.7881259918212891
0.6200860977172852,0.7881259918212891
0.6250900268554688,0.7888847351074219
0.6250900268554688,0.7888847351074219
0.6252244949340821,0.7934961318969727
0.6252244949340821,0.7934961318969727
0.6223308563232421,0.7892961502075195
0.6223308563232421,0.7892961502075195
0.6285547256469727,0.7954570770263671
0.6285547256469727,0.7954570770263671
0.6239398956298828,0.7938652038574219
0.6239398956298828,0.7938652038574219
0.6285604476928711,0.7945444107055664
0.6285604476928711,0.7945444107055664
0.6275648117065430,0.7992210388183594
0.6275648117065430,0.7992210388183594
0.6273204803466796,0.7953123092651367
0.6273204803466796,0.7953123092651367
0.6322168350219727,0.8012575149536133
0.6322168350219727,0.8012575149536133
0.6273044586181641,0.7997108459472656
0.6273044586181641,0.7997108459472656
0.6308521270751953,0.8006372451782227
0.6308521270751953,0.8006372451782227
0.6324422836303710,0.8052412033081054
0.6324422836303710,0.8052412033081054
0.6311536788940429,0.8012271881103515
0.6311536788940429,0.8012271881103515
0.6356294631958007,0.8071289062500000
0.6356294631958007,0.8071289062500000
0.6294216156005860,0.8055662155151367
0.6294216156005860,0.8055662155151367
0.6355144500732421,0.8060520172119140
0.6355144500732421,0.8060520172119140
0.6356964111328125,0.8103452682495117
0.6356964111328125,0.8103452682495117
0.6336278915405273,0.8053253173828124
0.6336278915405273,0.8053253173828124
0.6363035202026367,0.8098760604858398
0.6363035202026367,0.8098760604858398
0.6314769744873047,0.8056011199951172
0.6314769744873047,0.8056011199951172
0.6345067977905273,0.8024105072021485
0.6345067977905273,0.8024105072021485
0.6319101333618163,0.8025695800781250
0.6319101333618163,0.8025695800781250
0.6261028289794922,0.7937009811401367
0.6261028289794922,0.7937009811401367
0.6295074462890625,0.7947269439697265
0.6295074462890625,0.7947269439697265
0.6218118667602539,0.7883600234985352
0.6218118667602539,0.7883600234985352
0.6237659454345703,0.7846899032592773
0.6237659454345703,0.7846899032592773
0.6200792312622070,0.7853136062622070
0.6200792312622070,0.7853136062622070
0.6177068710327148,0.7777313232421875
0.6177068710327148,0.7777313232421875
0.6208414077758789,0.7803812026977539
0.6208414077758789,0.7803812026977539
0.6140207290649414,0.7763545989990234
0.6140207290649414,0.7763545989990234
0.6159118652343750,0.7748886108398437
0.6159118652343750,0.7748886108398437
0.6166757583618164,0.7778669357299804
0.6166757583618164,0.7778669357299804
0.6142902374267578,0.7724784851074219
0.6142902374267578,0.7724784851074219
0.6184352874755860,0.7774114608764648
0.6184352874755860,0.7774114608764648
0.6117399215698242,0.7754653930664063
0.6117399215698242,0.7754653930664063
0.6179821014404296,0.7759546279907227
0.6179821014404296,0.7759546279907227
0.6184186935424805,0.7802547454833985
0.6184186935424805,0.7802547454833985
0.6166843414306641,0.7764987945556641
0.6166843414306641,0.7764987945556641
0.6201072692871094,0.7825927734375000
0.6201072692871094,0.7825927734375000
0.6171180725097656,0.7814598083496094
0.6171180725097656,0.7814598083496094
0.6223073959350586,0.7826631546020507
0.6223073959350586,0.7826631546020507
0.6228263854980468,0.7876464843750000
0.6228263854980468,0.7876464843750000
0.6199916839599610,0.7841176986694336
0.6199916839599610,0.7841176986694336
0.6265457153320312,0.7905687332153321
0.6265457153320312,0.7905687332153321
0.6224241256713867,0.7893682479858398
0.6224241256713867,0.7893682479858398
0.6269725799560547,0.7904766082763671
0.6269725799560547,0.7904766082763671
0.6259918212890625,0.7953392028808594
0.6259918212890625,0.7953392028808594
0.6260433197021484,0.7913457870483398
0.6260433197021484,0.7913457870483398
0.6309968948364257,0.7974231719970702
0.6309968948364257,0.7974231719970702
0.6262058258056641,0.7960481643676758
0.6262058258056641,0.7960481643676758
0.6295984268188476,0.7970329284667969
0.6295984268188476,0.7970329284667969
0.6315971374511719,0.8017507553100586
0.6315971374511719,0.8017507553100586
0.6303514480590821,0.7980216979980469
0.6303514480590821,0.7980216979980469
0.6349685668945312,0.8039291381835937
0.6349685668945312,0.8039291381835937
0.6287023544311523,0.8024866104125976
0.6287023544311523,0.8024866104125976
0.6350990295410156,0.8033992767333984
0.6350990295410156,0.8033992767333984
0.6355459213256835,0.8080026626586914
0.6355459213256835,0.8080026626586914
0.6337783813476562,0.8038478851318359
0.6337783813476562,0.8038478851318359
0.6370788574218750,0.8098594665527343
0.6370788574218750,0.8098594665527343
0.6338813781738281,0.8085067749023437
0.6338813781738281,0.8085067749023437
0.6389190673828125,0.8091190338134765
0.6389190673828125,0.8091190338134765
0.6387920379638672,0.8134511947631836
0.6387920379638672,0.8134511947631836
0.6355218887329102,0.8093095779418945
0.6355218887329102,0.8093095779418945
0.6418167114257812,0.8151557922363281
0.6418167114257812,0.8151557922363281
0.6370113372802734,0.8136417388916015
0.6370113372802734,0.8136417388916015
0.6414327621459961,0.8138683319091796
0.6414327621459961,0.8138683319091796
0.6401435852050781,0.8184167861938476
0.6401435852050781,0.8184167861938476
0.6398946762084960,0.8141178131103516
0.6398946762084960,0.8141178131103516
0.6448162078857421,0.8194313049316406
0.6448162078857421,0.8194313049316406
0.6392944335937499,0.8172735214233399
0.6392944335937499,0.8172735214233399
0.6416719436645507,0.8164690017700195
0.6416719436645507,0.8164690017700195
0.6425834655761719,0.8189163208007812
0.6425834655761719,0.8189163208007812
0.6393161773681640,0.8115795135498046
0.6393161773681640,0.8115795135498046
0.6417692184448242,0.8131999969482422
0.6417692184448242,0.8131999969482422
0.6328462600708008,0.8074802398681641
0.6328462600708008,0.8074802398681641
0.6364185333251953,0.8036127090454102
0.6364185333251953,0.8036127090454102
0.6345211029052734,0.8038518905639648
0.6345211029052734,0.8038518905639648
0.6299343109130859,0.7953706741333008
0.6299343109130859,0.7953706741333008
0.6306032180786133,0.7972560882568359
0.6312669754028321,0.7921846389770507
0.6278686523437500,0.7897956848144531
0.6278686523437500,0.7897956848144531
0.6264009475708008,0.7913692474365234
0.6264009475708008,0.7913692474365234
0.6215538024902344,0.7849033355712890
0.6215538024902344,0.7849033355712890
0.6265594482421875,0.7887250900268554
0.6265594482421875,0.7887250900268554
0.6209856033325195,0.7854497909545898
0.6209856033325195,0.7854497909545898
0.6243021011352539,0.7846349716186524
0.6243021011352539,0.7846349716186524
0.6226186752319336,0.7883434295654297
0.6226186752319336,0.7883434295654297
0.6219755172729492,0.7835700988769531
0.6219755172729492,0.7835700988769531
0.6266029357910156,0.7891576766967773
0.6266029357910156,0.7891576766967773
0.6214611053466796,0.7872768402099609
0.6214611053466796,0.7872768402099609
0.6246860504150390,0.7880184173583984
0.6246860504150390,0.7880184173583984
0.6266681671142578,0.7927328109741211
0.6266681671142578,0.7927328109741211
0.6252828598022461,0.7887725830078125
0.6252828598022461,0.7887725830078125
0.6299394607543946,0.7948740005493163
0.6299394607543946,0.7948740005493163
0.6237270355224609,0.7935642242431641
0.6237270355224609,0.7935642242431641
0.6300767898559571,0.7943796157836914
0.6300767898559571,0.7943796157836914
0.6305477142333984,0.7991283416748046
0.6305477142333984,0.7991283416748046
0.6287097930908203,0.7947275161743164
0.6287097930908203,0.7947275161743164
0.6322460174560547,0.8009662628173828
0.6322460174560547,0.8009662628173828
0.6288276672363281,0.7993904113769531
0.6288276672363281,0.7993904113769531
0.6338132858276367,0.8000181198120117
0.6338132858276367,0.8000181198120117
0.6338367462158203,0.8045505523681641
0.6338367462158203,0.8045505523681641
0.6305768966674804,0.8003065109252929
0.6305768966674804,0.8003065109252929
0.6369489669799805,0.8062242507934571
0.6369489669799805,0.8062242507934571
0.6320440292358398,0.8045877456665039
0.6320440292358398,0.8045877456665039
0.6366571426391602,0.8050764083862304
0.6366571426391602,0.8050764083862304
0.6354749679565429,0.8097450256347656
0.6354749679565429,0.8097450256347656
0.6352489471435546,0.8054689407348633
0.6352489471435546,0.8054689407348633
0.6403478622436524,0.8113311767578125
0.6403478622436524,0.8113311767578125
0.6350698471069336,0.8095802307128906
0.6350698471069336,0.8095802307128906
0.6381156921386718,0.8099922180175781
0.6381156921386718,0.8099922180175781
0.6399038314819335,0.8146379470825195
0.6399038314819335,0.8146379470825195
0.6381214141845702,0.8101707458496094
0.6381214141845702,0.8101707458496094
0.6427568435668946,0.8159688949584961
0.6427568435668946,0.8159688949584961
0.6362405776977539,0.8142871856689453
0.6362405776977539,0.8142871856689453
0.6424427032470703,0.8146299362182617
0.6424427032470703,0.8146299362182617
0.6428632736206055,0.8191520690917968
0.6428632736206055,0.8191520690917968
0.6406511306762696,0.8145978927612304
0.6406511306762696,0.8145978927612304
0.6437713623046875,0.8202386856079101
0.6437713623046875,0.8202386856079101
0.6402408599853515,0.8184591293334961
0.6402408599853515,0.8184591293334961
0.6448190689086913,0.8185861587524413
0.6448190689086913,0.8185861587524413
0.6446376800537109,0.8225412368774414
0.6446376800537109,0.8225412368774414
0.6407896041870117,0.8171791076660156
0.6407896041870117,0.8171791076660156
0.6463308334350586,0.8211605072021484
0.6463308334350586,0.8211605072021484
0.6402391433715821,0.8168792724609375
0.6402391433715821,0.8168792724609375
0.6426589965820312,0.8138357162475586
0.6426589965820312,0.8138357162475586
0.6391027450561523,0.8142734527587890
0.6391027450561523,0.8142734527587890
0.6362977981567383,0.8056257247924804
0.6362977981567383,0.8056257247924804
0.6384670257568359,0.8069629669189453
0.6384670257568359,0.8069629669189453
0.6308938980102539,0.8011779785156250
0.6357278823852539,0.8011779785156250
0.6315238952636718,0.7976903915405273
0.6315238952636718,0.7976903915405273
0.6310798645019531,0.7985481262207031
0.6310798645019531,0.7985481262207031
0.6274869918823242,0.7909715652465820
0.6274869918823242,0.7909715652465820
0.6303789138793945,0.7941576004028320
0.6303789138793945,0.7941576004028320
0.6224115371704101,0.7901109695434571
0.6224115371704101,0.7901109695434571
0.6272701263427735,0.7887216567993164
0.6272701263427735,0.7887216567993164
0.6265892028808594,0.7917034149169921
0.6265892028808594,0.7917034149169921
0.6239656448364258,0.7861988067626953
0.6248600006103515,0.7913595199584961
0.6267683029174804,0.7913246154785156
0.6230524063110351,0.7913246154785156
0.6229528427124024,0.7891559600830078
0.6229528427124024,0.7891559600830078
0.6276288986206054,0.7892412185668946
0.6276288986206054,0.7892412185668946
0.6275516510009765,0.7937627792358398
0.6275516510009765,0.7937627792358398
0.6242025375366210,0.7894060134887695
0.6242025375366210,0.7894060134887695
0.6306879043579101,0.7952779769897461
0.6306879043579101,0.7952779769897461
0.6258504867553710,0.7939687728881836
0.6258504867553710,0.7939687728881836
0.6305929183959961,0.7945180892944336
0.6305929183959961,0.7945180892944336
0.6293872833251953,0.7993864059448242
0.6293872833251953,0.7993864059448242
0.6292070388793946,0.7951663970947266
0.6292070388793946,0.7951663970947266
0.6344615936279296,0.8012414932250976
0.6344615936279296,0.8012414932250976
0.6293231964111328,0.7997091293334960
0.6293231964111328,0.7997091293334960
0.6323616027832031,0.8003225326538086
0.6323616027832031,0.8003225326538086
0.6342824935913086,0.8047891616821289
0.6342824935913086,0.8047891616821289
0.6326002120971680,0.8006589889526367
0.6326002120971680,0.8006589889526367
0.6373414993286133,0.8063226699829101
0.6373414993286133,0.8063226699829101
0.6309339523315429,0.8048950195312500
0.6309339523315429,0.8048950195312500
0.6370662689208985,0.8053585052490234
0.6370662689208985,0.8053585052490234
0.6376161575317383,0.8098628997802734
0.6376161575317383,0.8098628997802734
0.6354869842529297,0.8054002761840821
0.6354869842529297,0.8054002761840821
0.6388029098510742,0.8111669540405273
0.6388029098510742,0.8111669540405273
0.6353588104248047,0.8096088409423828
0.6353588104248047,0.8096088409423828
0.6398683547973633,0.8099315643310546
0.6398683547973633,0.8099315643310546
0.6400543212890625,0.8143798828125000
0.6400543212890625,0.8143798828125000
0.6365386962890625,0.8099235534667969
0.6365386962890625,0.8099235534667969
0.6427568435668946,0.8156564712524413
0.6427568435668946,0.8156564712524413
0.6381294250488281,0.8138998031616210
0.6381294250488281,0.8138998031616210
0.6421669006347656,0.8140119552612305
0.6421669006347656,0.8140119552612305
0.6407667160034179,0.8184402465820312
0.6407667160034179,0.8184402465820312
0.6402397155761719,0.8138328552246094
0.6402397155761719,0.8138328552246094
0.6451045989990234,0.8194828033447266
0.6451045989990234,0.8194828033447266
0.6399221420288086,0.8176534652709960
0.6399221420288086,0.8176534652709960
0.6428718566894531,0.8179658889770508
0.6428718566894531,0.8179658889770508
0.6445215225219726,0.8222751617431641
0.6445215225219726,0.8222751617431641
0.6427751541137695,0.8174446105957031
0.6427751541137695,0.8174446105957031
0.6469739913940430,0.8225217819213867
0.6469739913940430,0.8225217819213867
0.6398414611816406,0.8195096969604492
0.6398414611816406,0.8195096969604492
0.6446273803710937,0.8173582077026367
0.6446273803710937,0.8173582077026367
0.6431453704833984,0.8184608459472656
0.6431453704833984,0.8184608459472656
0.6386329650878906,0.8094594955444335
0.6386329650878906,0.8094594955444335
0.6391021728515625,0.8103939056396484
0.6391021728515625,0.8103939056396484
0.6325109481811523,0.8034896850585938
0.6325109481811523,0.8034896850585938
0.6339878082275391,0.7984725952148437
0.6339878082275391,0.7984725952148437
0.6306947708129883,0.7977241516113281
0.6306947708129883,0.7977241516113281
0.6241464614868164,0.7881877899169921
0.6241464614868164,0.7881877899169921
0.6275470733642577,0.7893997192382812
0.6275470733642577,0.7893997192382812
0.6201250076293945,0.7838830947875977
0.6201250076293945,0.7838830947875977
0.6221546173095703,0.7805133819580078
0.6221546173095703,0.7805133819580078
0.6190687179565429,0.7821195602416992
0.6190687179565429,0.7821195602416992
0.6169504165649414,0.7752822875976563
0.6169504165649414,0.7752822875976563
0.6206983566284180,0.7789575576782226
0.6206983566284180,0.7789575576782226
0.6142930984497070,0.7756341934204102
0.6142930984497070,0.7756341934204102
0.6165401458740234,0.7746379852294921
0.6165401458740234,0.7746379852294921
0.6175563812255859,0.7782743453979492
0.6175563812255859,0.7782743453979492
0.6154209136962890,0.7730970382690430
0.6154209136962890,0.7730970382690430
0.6198944091796875,0.7785730361938477
0.6198944091796875,0.7785730361938477
0.6134164810180663,0.7767528533935547
0.6134164810180663,0.7767528533935547
0.6193937301635742,0.7773450851440430
0.6193937301635742,0.7773450851440430
0.6201736450195312,0.7820663452148438
0.6201736450195312,0.7820663452148438
0.6181011199951172,0.7778017044067382
0.6181011199951172,0.7778017044067382
0.6217969894409180,0.7841468811035156
0.6217969894409180,0.7841468811035156
0.6183523178100586,0.7827827453613281
0.6183523178100586,0.7827827453613281
0.6233322143554687,0.7835660934448242
0.6202400207519531,0.7835660934448242
0.6237756729125976,0.7883897781372070
0.6251775741577148,0.7883897781372070
0.6205781936645508,0.7841268539428711
0.6219326019287109,0.7841268539428711
0.6271516799926757,0.7903072357177734
0.6271516799926757,0.7903072357177734
0.6225437164306641,0.7889722824096680
0.6225437164306641,0.7889722824096680
0.6269577026367187,0.7895353317260742
0.6269577026367187,0.7895353317260742
0.6260416030883789,0.7943149566650390
0.6260416030883789,0.7943149566650390
0.6256793975830078,0.7900680541992188
0.6277719497680664,0.7900680541992188
0.6306735992431640,0.7960624694824219
0.6306735992431640,0.7960624694824219
0.6257846832275390,0.7945724487304687
0.6257846832275390,0.7945724487304687
0.6292139053344726,0.7953180313110352
0.6292139053344726,0.7953180313110352
0.6310689926147460,0.8001983642578124
0.6310689926147460,0.8001983642578124
0.6295835494995117,0.7957689285278320
0.6295835494995117,0.7957689285278320
0.6344026565551758,0.8018875122070312
0.6344026565551758,0.8018875122070312
0.6279722213745117,0.8006177902221679
0.6279722213745117,0.8006177902221679
0.6342996597290039,0.8012666702270508
0.6342996597290039,0.8012666702270508
0.6347242355346679,0.8059370040893554
0.6347242355346679,0.8059370040893554
0.6327919006347656,0.8014039993286133
0.6327919006347656,0.8014039993286133
0.6364562988281249,0.8075969696044921
0.6364562988281249,0.8075969696044921
0.6328742980957031,0.8061058044433593
0.6328742980957031,0.8061058044433593
0.6379051208496094,0.8067672729492187
0.6379051208496094,0.8067672729492187
0.6380252838134766,0.8114095687866211
0.6380252838134766,0.8114095687866211
0.6346733093261718,0.8068634033203125
0.6346733093261718,0.8068634033203125
0.6411048889160156,0.8127748489379882
0.6411048889160156,0.8127748489379882
0.6358749389648437,0.8106325149536132
0.6358749389648437,0.8106325149536132
0.6398139953613281,0.8096214294433594
0.6398139953613281,0.8096214294433594
0.6374942779541015,0.8120384216308594
0.6374942779541015,0.8120384216308594
0.6350675582885742,0.8037546157836913
0.6350675582885742,0.8037546157836913
0.6377391815185547,0.8053985595703125
0.6377391815185547,0.8053985595703125
0.6294239044189452,0.7985109329223633
0.6294239044189452,0.7985109329223633
0.6291229248046875,0.7931665420532227
0.6291229248046875,0.7931665420532227
0.6275127410888671,0.7923454284667969
0.6275127410888671,0.7923454284667969
0.6221694946289062,0.7824050903320312
0.6221694946289062,0.7824050903320312
0.6238477706909179,0.7833068847656249
0.6238477706909179,0.7833068847656249
0.6146638870239257,0.7776781082153320
0.6146638870239257,0.7776781082153320
0.6183975219726562,0.7745132446289062
0.6183975219726562,0.7745132446289062
0.6169898986816406,0.7759534835815429
0.6169898986816406,0.7759534835815429
0.6129409790039062,0.7688318252563476
0.6129409790039062,0.7688318252563476
0.6150632858276367,0.7723886489868164
0.6150632858276367,0.7723886489868164
0.6100605010986327,0.7688993453979492
0.6100605010986327,0.7688993453979492
0.6137958526611328,0.7677125930786133
0.6137958526611328,0.7677125930786133
0.6131996154785156,0.7711601257324219
0.6131996154785156,0.7711601257324219
0.6093252182006835,0.7658426284790039
0.6093252182006835,0.7658426284790039
0.6154014587402343,0.7712860107421875
0.6154014587402343,0.7712860107421875
0.6104341506958008,0.7694355010986328
0.6104341506958008,0.7694355010986328
0.6147634506225585,0.7697158813476562
0.6147634506225585,0.7697158813476562
0.6137140274047851,0.7744920730590820
0.6137140274047851,0.7744920730590820
0.6134960174560546,0.7702062606811523
0.6134960174560546,0.7702062606811523
0.6186206817626952,0.7764753341674805
0.6186206817626952,0.7764753341674805
0.6138044357299804,0.7752262115478515
0.6138044357299804,0.7752262115478515
0.6173046112060546,0.7760473251342773
0.6173046112060546,0.7760473251342773
0.6192844390869140,0.7811662673950195
0.6192844390869140,0.7811662673950195
0.6179649353027343,0.7770584106445312
0.6179649353027343,0.7770584106445312
0.6229185104370117,0.7834024429321289
0.6229185104370117,0.7834024429321289
0.6166997909545898,0.7820846557617187
0.6166997909545898,0.7820846557617187
0.6230152130126952,0.7827861785888671
0.6230152130126952,0.7827861785888671
0.6236515045166016,0.7879148483276367
0.6236515045166016,0.7879148483276367
0.6217609405517578,0.7834201812744140
0.6217609405517578,0.7834201812744140
0.6255386352539062,0.7898328781127929
0.6255386352539062,0.7898328781127929
0.6221506118774414,0.7884819030761718
0.6221506118774414,0.7884819030761718
0.6273324966430663,0.7891096115112305
0.6273324966430663,0.7891096115112305
0.6275333404541016,0.7942050933837891
0.6275333404541016,0.7942050933837891
0.6243364334106445,0.7898769378662109
0.6243364334106445,0.7898769378662109
0.6311153411865235,0.7961420059204102
0.6311153411865235,0.7961420059204102
0.6262825012207031,0.7949340820312499
0.6262825012207031,0.7949340820312499
0.6310552597045899,0.7954313278198242
0.6310552597045899,0.7954313278198242
0.6301042556762695,0.8005989074707031
0.6301042556762695,0.8005989074707031
0.6298582077026367,0.7963869094848632
0.6298582077026367,0.7963869094848632
0.6352930068969727,0.8026617050170898
0.6352930068969727,0.8026617050170898
0.6301174163818359,0.8012477874755859
0.6301174163818359,0.8012477874755859
0.6335655212402344,0.8019550323486327
0.6335655212402344,0.8019550323486327
0.6355567932128906,0.8070728302001953
0.6355567932128906,0.8070728302001953
0.6338258743286133,0.8027252197265625
0.6338258743286133,0.8027252197265625
0.6389820098876953,0.8088993072509766
0.6389820098876953,0.8088993072509766
0.6326208114624023,0.8076421737670898
0.6326208114624023,0.8076421737670898
0.6389099121093750,0.8082098007202149
0.6389099121093750,0.8082098007202149
0.6394186019897461,0.8128051757812500
0.6394186019897461,0.8128051757812500
0.6371486663818359,0.8077995300292968
0.6371486663818359,0.8077995300292968
0.6400188446044922,0.8125459671020507
0.6400188446044922,0.8125459671020507
0.6353450775146484,0.8086578369140625
0.6353450775146484,0.8086578369140625
0.6383663177490234,0.8057207107543946
0.6339014053344726,0.8057207107543946
0.6362697601318359,0.8061567306518554
0.6362697601318359,0.8061567306518554
0.6301082611083985,0.7968778610229492
0.6301082611083985,0.7968778610229492
0.6334911346435547,0.7978414535522461
0.6334911346435547,0.7978414535522461
0.6255970001220703,0.7910814285278320
0.6299543380737305,0.7910814285278320
0.6268953323364258,0.7867504119873047
0.6268953323364258,0.7867504119873047
0.6230031967163085,0.7871074676513672
0.6230031967163085,0.7871074676513672
0.6203905105590820,0.7829710006713867
0.6203905105590820,0.7829710006713867
0.6203905105590820,0.7820405960083008
0.6190338134765625,0.7761520385742188
0.6160297393798828,0.7761520385742188
0.6208591461181641,0.7798810958862304
0.6186298370361328,0.7798810958862304
0.6153562545776367,0.7731954574584960
0.6188936233520508,0.7731954574584960
0.6204631805419921,0.7760879516601562
0.6152109146118164,0.7760879516601562
0.6158357620239258,0.7765554428100586
0.6199607849121094,0.7765554428100586
0.6165967941284179,0.7731679916381836
0.6143165588378906,0.7731679916381836
0.6195728302001953,0.7786863327026367
0.6195728302001953,0.7786863327026367
0.6161756515502930,0.7737636566162109
0.6161756515502930,0.7737636566162109
0.6206291198730468,0.7777050018310546
0.6165178298950195,0.7777050018310546
0.6177738189697265,0.7799972534179688
0.6222719192504883,0.7799972534179688
0.6193193435668946,0.7777404785156250
0.6173727035522460,0.7777404785156250
0.6237979888916015,0.7842103958129882
0.6237979888916015,0.7842103958129882
0.6193708419799805,0.7799795150756835
0.6193708419799805,0.7799795150756835
0.6251197814941406,0.7851293563842773
0.6211097717285156,0.7851293563842773
0.6224035263061524,0.7876287460327148
0.6224035263061524,0.7876287460327148
0.6250087738037109,0.7856964111328125
0.6224424362182617,0.7856964111328125
0.6280220031738281,0.7919139862060547
0.6280220031738281,0.7919139862060547
0.6243146896362305,0.7879440307617187
0.6287532806396484,0.7879440307617187
0.6298164367675781,0.7927968978881835
0.6258871078491210,0.7927968978881835
0.6280282974243164,0.7950696945190430
0.6320182800292968,0.7950696945190430
0.6287950515747071,0.7925067901611328
0.6267911911010742,0.7925067901611328
0.6324010848999023,0.7989995956420898
0.6311405181884765,0.7989995956420898
0.6285049438476562,0.7946851730346679
0.6328937530517578,0.7946851730346679
0.6348163604736328,0.7993761062622070
0.6300161361694335,0.7993761062622070
0.6312812805175781,0.8012094497680664
0.6356861114501953,0.8012094497680664
0.6326940536499023,0.7989669799804687
0.6306627273559570,0.7989669799804687
0.6362159729003906,0.8052841186523437
0.6362159729003906,0.8052841186523437
0.6330860137939452,0.8009153366088867
0.6330860137939452,0.8009153366088867
0.6377449035644531,0.8051977157592773
0.6377449035644531,0.8051977157592773
0.6350126266479492,0.8074968338012695
0.6394111633300781,0.8074968338012695
0.6362977981567383,0.8050466537475586
0.6342664718627929,0.8050466537475586
0.6407300949096679,0.8112745285034180
0.6385780334472656,0.8112745285034180
0.6358943939208984,0.8064680099487305
0.6402448654174805,0.8064680099487305
0.6412702560424804,0.8110462188720703
0.6371555328369141,0.8110462188720703
0.6382953643798828,0.8131278991699219
0.6425422668457031,0.8131278991699219
0.6404485702514648,0.8104385375976563
0.6377723693847656,0.8104385375976563
0.6431259155273438,0.8162195205688476
0.6415786743164062,0.8162195205688476
0.6390077590942382,0.8117797851562499
0.6432826995849609,0.8117797851562499
0.6441215515136719,0.8161891937255860
0.6399599075317383,0.8161891937255860
0.6419763565063477,0.8180917739868164
0.6456407546997071,0.8180917739868164
0.6424192428588867,0.8150899887084960
0.6403839111328125,0.8150899887084960
0.6458736419677734,0.8212160110473633
0.6445049285888672,0.8212160110473633
0.6416971206665039,0.8164838790893555
0.6459051132202148,0.8164838790893555
0.6476480484008789,0.8203685760498046
0.6476480484008789,0.8203685760498046
0.6433656692504882,0.8210374832153320
0.6474020004272460,0.8210374832153320
0.6438503265380859,0.8167608261108398
0.6411649703979492,0.8167608261108398
0.6457546234130859,0.8200744628906250
0.6433931350708008,0.8200744628906250
0.6407369613647461,0.8121099472045898
0.6431453704833984,0.8121099472045898
0.6429147720336914,0.8121030807495117
0.6429147720336914,0.8121030807495117
0.6374095916748047,0.8099092483520508
0.6405635833740234,0.8099092483520508
0.6360969543457031,0.8031429290771485
0.6328737258911132,0.8031429290771485
0.6379537582397461,0.8050901412963867
0.6379537582397461,0.8050901412963867
0.6308784484863281,0.7964052200317383
0.6339792251586914,0.7964052200317383
0.6340106964111328,0.7974798202514648
0.6289003372192382,0.7974798202514648
0.6289552688598633,0.7965848922729492
0.6324903488159179,0.7965848922729492
0.6296493530273437,0.7914230346679687
0.6260622024536132,0.7914230346679687
0.6308813095092773,0.7949106216430664
0.6308813095092773,0.7949106216430664
0.6258161544799804,0.7886941909790038
0.6295286178588867,0.7886941909790038
0.6299251556396485,0.7918407440185546
0.6255517959594726,0.7918407440185546
0.6271602630615234,0.7929834365844727
0.6309282302856445,0.7929834365844727
0.6274137496948242,0.7893859863281250
0.6251192092895508,0.7893859863281250
0.6305368423461913,0.7951932907104492
0.6290039062500000,0.7951932907104492
0.6262086868286133,0.7904239654541015
0.6304269790649414,0.7904239654541015
0.6323844909667968,0.7948848724365234
0.6275791168212891,0.7948848724365234
0.6286914825439452,0.7967227935791016
0.6332130432128906,0.7967227935791016
0.6301820755004882,0.7943510055541992
0.6282388687133789,0.7943510055541992
0.6337039947509765,0.8007808685302734
0.6323890686035156,0.8007808685302734
0.6307559967041015,0.7963457107543945
0.6344964981079101,0.7963457107543945
0.6353284835815429,0.8006458282470703
0.6312852859497070,0.8006458282470703
0.6324846267700195,0.8028842926025390
0.6368293762207031,0.8028842926025390
0.6337932586669922,0.8003225326538086
0.6318174362182617,0.8003225326538086
0.6381511688232422,0.8064651489257812
0.6381511688232422,0.8064651489257812
0.6334693908691406,0.8016311645507812
0.6376653671264648,0.8016311645507812
0.6387010574340820,0.8060548782348632
0.6344867706298828,0.8060548782348632
0.6355064392089843,0.8079282760620117
0.6399370193481445,0.8079282760620117
0.6378158569335938,0.8053796768188476
0.6351688385009765,0.8053796768188476
0.6404468536376953,0.8111068725585937
0.6390535354614257,0.8111068725585937
0.6364242553710937,0.8066202163696289
0.6406711578369141,0.8066202163696289
0.6415763854980469,0.8109260559082031
0.6373643875122070,0.8109260559082031
0.6393836975097656,0.8129590988159180
0.6431264877319336,0.8129590988159180
0.6401224136352539,0.8099653244018554
0.6380012512207031,0.8099653244018554
0.6434423446655273,0.8162435531616211
0.6419059753417968,0.8162435531616211
0.6392978668212891,0.8114055633544922
0.6435556411743164,0.8114055633544922
0.6454599380493163,0.8158847808837890
0.6407260894775391,0.8158847808837890
0.6416456222534179,0.8173730850219726
0.6459268569946289,0.8173730850219726
0.6428461074829102,0.8148965835571289
0.6406677246093749,0.8148965835571289
0.6460264205932617,0.8208297729492188
0.6446170806884766,0.8208297729492188
0.6428936004638671,0.8160324096679688
0.6462507247924805,0.8160324096679688
0.6471857070922852,0.8200378417968750
0.6429531097412109,0.8200378417968750
0.6441650390625000,0.8219644546508789
0.6441650390625000,0.8219644546508789
0.6453540802001952,0.8190450668334961
0.6430566787719726,0.8190450668334961
0.6493629455566406,0.8249645233154297
0.6474351882934570,0.8249645233154297
0.6444894790649414,0.8198284149169922
0.6486133575439453,0.8198284149169922
0.6494842529296875,0.8240884780883789
0.6452762603759765,0.8240884780883789
0.6462478637695312,0.8257015228271484
0.6504100799560547,0.8257015228271484
0.6482454299926758,0.8225143432617187
0.6451286315917969,0.8225143432617187
0.6504175186157226,0.8275817871093750
0.6487369537353516,0.8275817871093750
0.6456630706787109,0.8215902328491210
0.6456630706787109,0.8215902328491210
0.6497337341308593,0.8237091064453125
0.6448104858398437,0.8237091064453125
0.6459131240844727,0.8225727081298828
0.6487684249877930,0.8225727081298828
0.6443733215332031,0.8156730651855468
0.6409172058105469,0.8156730651855468
0.6450811386108398,0.8174961090087890
0.6423059463500976,0.8174961090087890
0.6381631851196289,0.8081274032592773
0.6381631851196289,0.8081274032592773
0.6416090011596679,0.8079534530639648
0.6352849960327148,0.8079534530639648
0.6349817276000976,0.8050758361816406
0.6380945205688476,0.8050758361816406
0.6338058471679687,0.7982803344726562
0.6303960800170898,0.7982803344726562
0.6345588684082031,0.8005165100097656
0.6320583343505859,0.8005165100097656
0.6294021606445312,0.7925251007080077
0.6319593429565430,0.7925251007080077
0.6319959640502929,0.7936414718627930
0.6268386840820312,0.7936414718627930
0.6272123336791992,0.7931842803955078
0.6272123336791992,0.7931842803955078
0.6272003173828125,0.7884063720703125
0.6244016647338867,0.7884063720703125
0.6302072525024414,0.7926904678344726
0.6275533676147461,0.7926904678344726
0.6244771957397460,0.7864048004150390
0.6284013748168945,0.7864048004150390
0.6291452407836914,0.7900096893310546
0.6247833251953124,0.7900096893310546
0.6255998611450195,0.7913063049316406
0.6299411773681640,0.7913063049316406
0.6276123046875000,0.7883731842041015
0.6249858856201171,0.7883731842041015
0.6301242828369140,0.7938577651977539
0.6287178039550781,0.7938577651977539
0.6260318756103516,0.7893396377563476
0.6302982330322265,0.7893396377563476
0.6312389373779297,0.7938314437866211
0.6271574020385742,0.7938314437866211
0.6290554046630860,0.7957248687744141
0.6328697204589844,0.7957248687744141
0.6299451828002930,0.7930463790893555
0.6278743743896484,0.7930463790893555
0.6333292007446288,0.7992982864379883
0.6320800781250000,0.7992982864379883
0.6293369293212890,0.7947818756103515
0.6293369293212890,0.7947818756103515
0.6355985641479492,0.7995122909545899
0.6309505462646484,0.7995122909545899
0.6317808151245117,0.8010223388671874
0.6361845016479492,0.8010223388671874
0.6333148956298827,0.7987672805786132
0.6311674118041992,0.7987672805786132
0.6365398406982422,0.8048040390014648
0.6351716995239257,0.8048040390014648
0.6334522247314452,0.8000461578369140
0.6368505477905273,0.8000461578369140
0.6378599166870117,0.8040967941284179
0.6378599166870117,0.8040967941284179
0.6347408294677734,0.8062402725219726
0.6392578125000000,0.8062402725219726
0.6361381530761718,0.8034931182861328
0.6340187072753906,0.8034931182861328
0.6403707504272461,0.8096019744873046
0.6384504318237304,0.8096019744873046
0.6355854034423828,0.8044549942016601
0.6397693634033202,0.8044549942016601
0.6407461166381836,0.8090892791748047
0.6407461166381836,0.8090892791748047
0.6376087188720703,0.8108865737915039
0.6420278549194336,0.8108865737915039
0.6399461746215820,0.8082824707031250
0.6369644165039062,0.8082824707031250
0.6424352645874023,0.8139009475708008
0.6424352645874023,0.8139009475708008
0.6382444381713867,0.8093221664428710
0.6382444381713867,0.8093221664428710
0.6435258865356445,0.8136119842529297
0.6392807006835938,0.8136119842529297
0.6411769866943359,0.8155323028564453
0.6450290679931641,0.8155323028564453
0.6417291641235351,0.8125110626220703
0.6396045684814453,0.8125110626220703
0.6450616836547851,0.8184877395629883
0.6435556411743164,0.8184877395629883
0.6407403945922852,0.8135438919067383
0.6448780059814453,0.8135438919067383
0.6468046188354492,0.8179784774780273
0.6417955398559571,0.8179784774780273
0.6427894592285156,0.8193471908569335
0.6473098754882812,0.8193471908569335
0.6441558837890625,0.8167242050170899
0.6418888092041015,0.8167242050170899
0.6471788406372070,0.8223358154296875
0.6457008361816406,0.8223358154296875
0.6436592102050781,0.8169496536254882
0.6470844268798828,0.8169496536254882
0.6476600646972656,0.8200183868408203
0.6429285049438477,0.8200183868408203
0.6455268859863281,0.8188516616821289
0.6455268859863281,0.8193740844726562
0.6399101257324219,0.8140142440795898
0.6399101257324219,0.8140142440795898
0.6420284271240234,0.8097484588623046
0.6420284271240234,0.8097484588623046
0.6391822814941406,0.8092351913452148
0.6391822814941406,0.8092351913452148
0.6325166702270507,0.7990734100341796
0.6325166702270507,0.7990734100341796
0.6354103088378906,0.7994590759277344
0.6354103088378906,0.7994590759277344
0.6272695541381835,0.7923826217651367
0.6272695541381835,0.7923826217651367
0.6285003662109375,0.7878856658935547
0.6285003662109375,0.7878856658935547
0.6242443084716797,0.7879594802856446
0.6242443084716797,0.7879594802856446
0.6213048934936524,0.7794822692871094
0.6213048934936524,0.7794822692871094
0.6242534637451171,0.7822465896606445
0.6242534637451171,0.7822465896606445
0.6173051834106446,0.7776975631713867
0.6173051834106446,0.7776975631713867
0.6188861846923828,0.7758001327514649
0.6188861846923828,0.7758001327514649
0.6192827224731445,0.7784402847290038
0.6192827224731445,0.7784402847290038
0.6165664672851562,0.7723331451416016
0.6165664672851562,0.7723331451416016
0.6203836441040039,0.7769668579101562
0.6203836441040039,0.7769668579101562
0.6133523941040039,0.7742763519287109
0.6133523941040039,0.7742763519287109
0.6191276550292969,0.7742105484008789
0.6191276550292969,0.7742105484008789
0.6191671371459960,0.7786399841308593
0.6191671371459960,0.7786399841308593
0.6171810150146484,0.7739181518554688
0.6171810150146484,0.7739181518554688
0.6207464218139648,0.7798828125000000
0.6207464218139648,0.7798828125000000
0.6172811508178710,0.7784997940063476
0.6172811508178710,0.7784997940063476
0.6224149703979492,0.7792184829711913
0.6224149703979492,0.7792184829711913
0.6226713180541992,0.7842184066772461
0.6226713180541992,0.7842184066772461
0.6195213317871093,0.7799526214599609
0.6195213317871093,0.7799526214599609
0.6262350082397461,0.7864002227783203
0.6262350082397461,0.7864002227783203
0.6215063095092773,0.7850126266479492
0.6215063095092773,0.7850126266479492
0.6263746261596680,0.7855167388916016
0.6263746261596680,0.7855167388916016
0.6252027511596679,0.7905029296875000
0.6252027511596679,0.7905029296875000
0.6250116348266601,0.7862726211547851
0.6269931793212891,0.7862726211547851
0.6304464340209961,0.7925445556640625
0.6304464340209961,0.7925445556640625
0.6251752853393554,0.7909023284912109
0.6251752853393554,0.7909023284912109
0.6284986495971679,0.7915208816528320
0.6284986495971679,0.7915208816528320
0.6303480148315429,0.7963651657104492
0.6303480148315429,0.7963651657104492
0.6287235260009766,0.7920541763305664
0.6287235260009766,0.7920541763305664
0.6337245941162110,0.7982786178588867
0.6337245941162110,0.7982786178588867
0.6274526596069335,0.7967868804931640
0.6274526596069335,0.7967868804931640
0.6337366104125977,0.7975198745727539
0.6337366104125977,0.7975198745727539
0.6343677520751952,0.8024185180664062
0.6343677520751952,0.8024185180664062
0.6324880599975585,0.7980800628662109
0.6324880599975585,0.7980800628662109
0.6361398696899414,0.8042804718017578
0.6361398696899414,0.8042804718017578
0.6325790405273437,0.8027698516845703
0.6325790405273437,0.8027698516845703
0.6375303268432617,0.8035017013549804
0.6375303268432617,0.8035017013549804
0.6377798080444336,0.8083093643188476
0.6377798080444336,0.8083093643188476
0.6345960617065429,0.8039920806884765
0.6345960617065429,0.8039920806884765
0.6385145187377930,0.8102153778076172
0.6390449523925781,0.8102153778076172
0.6424530029296874,0.8086492538452148
0.6424530029296874,0.8086492538452148
0.6409103393554687,0.8091087341308594
0.6409103393554687,0.8091087341308594
0.6397630691528320,0.8139438629150391
0.6412107467651367,0.8139438629150391
0.6393424987792968,0.8091533660888671
0.6393424987792968,0.8091533660888671
0.6442159652709961,0.8147592544555664
0.6442159652709961,0.8147592544555664
0.6382856369018555,0.8113672256469726
0.6382856369018555,0.8113672256469726
0.6402980804443359,0.8095573425292969
0.6402980804443359,0.8095573425292969
0.6400852203369141,0.8106050491333008
0.6400852203369141,0.8106050491333008
0.6360551834106445,0.8016351699829102
0.6360551834106445,0.8016351699829102
0.6376750946044921,0.8024322509765625
0.6376750946044921,0.8024322509765625
0.6278091430664062,0.7951726913452148
0.6278091430664062,0.7951726913452148
0.6306055068969726,0.7901613235473632
0.6306055068969726,0.7901613235473632
0.6275653839111328,0.7894975662231445
0.6275653839111328,0.7894975662231445
0.6225854873657226,0.7802421569824218
0.6225854873657226,0.7802421569824218
0.6233270645141601,0.7823656082153320
0.6233270645141601,0.7823656082153320
0.6175952911376953,0.7771911621093750
0.6175952911376953,0.7771911621093750
0.6206617355346680,0.7748182296752929
0.6206617355346680,0.7748182296752929
0.6189725875854492,0.7768993377685547
0.6189725875854492,0.7768993377685547
0.6143846511840820,0.7701702117919922
0.6143846511840820,0.7701702117919922
0.6195316314697266,0.7744897842407227
0.6195316314697266,0.7744897842407227
0.6135841369628906,0.7714994430541992
0.6135841369628906,0.7714994430541992
0.6176828384399414,0.7708185195922851
0.6176828384399414,0.7708185195922851
0.6159856796264648,0.7748817443847656
0.6159856796264648,0.7748817443847656
0.6152950286865234,0.7699310302734375
0.6152950286865234,0.7699310302734375
0.6205587387084961,0.7759334564208984
0.6205587387084961,0.7759334564208984
0.6151599884033203,0.7741853713989257
0.6151599884033203,0.7741853713989257
0.6185886383056640,0.7750230789184570
0.6185886383056640,0.7750230789184570
0.6207201004028320,0.7801946640014649
0.6207201004028320,0.7801946640014649
0.6192214965820312,0.7762189865112304
0.6192214965820312,0.7762189865112304
0.6244514465332031,0.7826934814453125
0.6244514465332031,0.7826934814453125
0.6184232711791992,0.7817670822143554
0.6184232711791992,0.7817670822143554
0.6251661300659179,0.7829504013061523
0.6251661300659179,0.7829504013061523
0.6260553359985351,0.7882118225097656
0.6260553359985351,0.7882118225097656
0.6243141174316406,0.7842287063598633
0.6243141174316406,0.7842287063598633
0.6281066894531250,0.7909778594970703
0.6281066894531250,0.7909778594970703
0.6249217987060547,0.7897230148315429
0.6249217987060547,0.7897230148315429
0.6301300048828125,0.7907638549804688
0.6301300048828125,0.7907638549804688
0.6304264068603516,0.7956510543823242
0.6304264068603516,0.7956510543823242
0.6273891448974609,0.7914859771728515
0.6273891448974609,0.7914859771728515
0.6340610504150390,0.7979553222656249
0.6340610504150390,0.7979553222656249
0.6294610977172851,0.7964057922363281
0.6294610977172851,0.7964057922363281
0.6340250015258789,0.7973224639892578
0.6340250015258789,0.7973224639892578
0.6330522537231446,0.8023389816284180
0.6330522537231446,0.8023389816284180
0.6330545425415038,0.7982059478759765
0.6330545425415038,0.7982059478759765
0.6382015228271484,0.8045871734619140
0.6382015228271484,0.8045871734619140
0.6332714080810546,0.8029924392700195
0.6332714080810546,0.8029924392700195
0.6367206573486328,0.8038530349731445
0.6367206573486328,0.8038530349731445
0.6385431289672852,0.8085823059082031
0.6385431289672852,0.8085823059082031
0.6370868682861328,0.8044137954711914
0.6370868682861328,0.8044137954711914
0.6418172836303710,0.8106142044067383
0.6418172836303710,0.8106142044067383
0.6353410720825196,0.8090217590332031
0.6353410720825196,0.8090217590332031
0.6416770935058593,0.8097272872924804
0.6416770935058593,0.8097272872924804
0.6420959472656250,0.8145057678222656
0.6420959472656250,0.8145057678222656
0.6402671813964843,0.8098651885986328
0.6402671813964843,0.8098651885986328
0.6437210083007813,0.8160999298095702
0.6437210083007813,0.8160999298095702
0.6401561737060547,0.8144090652465820
0.6401561737060547,0.8144090652465820
0.6452974319458008,0.8149938583374023
0.6452974319458008,0.8149938583374023
0.6450679779052734,0.8194639205932617
0.6450679779052734,0.8194639205932617
0.6416416168212891,0.8146619796752930
0.6416416168212891,0.8146619796752930
0.6477470397949219,0.8199016571044921
0.6477470397949219,0.8199016571044921
0.6417280197143554,0.8163774490356445
0.6417280197143554,0.8163774490356445
0.6449764251708984,0.8139392852783203
0.6449764251708984,0.8139392852783203
0.6417612075805664,0.8149812698364257
0.6417612075805664,0.8149812698364257
0.6388378143310547,0.8060903549194336
0.6388378143310547,0.8060903549194336
0.6413200378417968,0.8074842453002929
0.6413200378417968,0.8074842453002929
0.6330184936523438,0.8008140563964844
0.6330184936523438,0.8008140563964844
0.6333595275878906,0.7964406967163086
0.6333595275878906,0.7964406967163086
0.6323678970336913,0.7967525482177734
0.6323678970336913,0.7967525482177734
0.6280981063842773,0.7884017944335937
0.6280981063842773,0.7884017944335937
0.6307519912719727,0.7907684326171874
0.6307519912719727,0.7907684326171874
0.6219944000244141,0.7858755111694335
0.6219944000244141,0.7858755111694335
0.6266744613647460,0.7839305877685546
0.6266744613647460,0.7839305877685546
0.6257343292236328,0.7864631652832031
0.6257343292236328,0.7864631652832031
0.6223583221435547,0.7801162719726562
0.6223583221435547,0.7801162719726562
0.6249984741210938,0.7848918914794921
0.6249984741210938,0.7848918914794921
0.6209054946899414,0.7822528839111328
0.6209054946899414,0.7822528839111328
0.6253074645996094,0.7820817947387695
0.6253074645996094,0.7820817947387695
0.6251598358154297,0.7864379882812500
0.6251598358154297,0.7864379882812500
0.6218507766723632,0.7818265914916992
0.6218507766723632,0.7818265914916992
0.6283790588378906,0.7880104064941406
0.6283790588378906,0.7880104064941406
0.6235799789428711,0.7864322662353516
0.6235799789428711,0.7864322662353516
0.6283790588378906,0.7873889923095703
0.6283790588378906,0.7873889923095703
0.6274303436279297,0.7924604415893555
0.6274303436279297,0.7924604415893555
0.6273782730102538,0.7883354187011719
0.6273782730102538,0.7883354187011719
0.6326642990112304,0.7949008941650391
0.6326642990112304,0.7949008941650391
0.6277090072631836,0.7933473587036133
0.6277090072631836,0.7933473587036133
0.6311897277832031,0.7943229675292969
0.6311897277832031,0.7943229675292969
0.6330854415893554,0.7992296218872070
0.6330854415893554,0.7992296218872070
0.6317516326904297,0.7950851440429687
0.6317516326904297,0.7950851440429687
0.6365192413330077,0.8012901306152344
0.6365192413330077,0.8012901306152344
0.6300876617431640,0.7995431900024413
0.6300876617431640,0.7995431900024413
0.6364299774169921,0.8003236770629882
0.6364299774169921,0.8003236770629882
0.6368087768554688,0.8051353454589844
0.6368087768554688,0.8051353454589844
0.6349296569824219,0.8005668640136718
0.6349296569824219,0.8005668640136718
0.6386112213134766,0.8069320678710937
0.6386112213134766,0.8069320678710937
0.6351064682006836,0.8053138732910156
0.6351064682006836,0.8053138732910156
0.6402494430541992,0.8058706283569336
0.6367469787597656,0.8058706283569336
0.6401229858398437,0.8105438232421874
0.6401229858398437,0.8105438232421874
0.6368825912475585,0.8061567306518554
0.6368825912475585,0.8061567306518554
0.6433536529541015,0.8123937606811523
0.6433536529541015,0.8123937606811523
0.6384098052978515,0.8106531143188477
0.6384098052978515,0.8106531143188477
0.6431476593017578,0.8110954284667968
0.6431476593017578,0.8110954284667968
0.6418579101562499,0.8158859252929688
0.6418579101562499,0.8158859252929688
0.6427007675170898,0.8163236618041992
0.6427007675170898,0.8163236618041992
0.6435842514038086,0.8134563446044921
0.6413503646850586,0.8134563446044921
0.6466770172119141,0.8194908142089844
0.6454679489135742,0.8194908142089844
0.6425354003906250,0.8146688461303710
0.6467124938964843,0.8146688461303710
0.6488193511962891,0.8192178726196289
0.6488193511962891,0.8192178726196289
0.6448041915893554,0.8208000183105468
0.6441049575805664,0.8183704376220703
0.6495100021362304,0.8239391326904296
0.6481470108032227,0.8239391326904296
