REDsignal,IRsignal
0.3321790695190430,0.2739458084106445
0.3356952667236328,0.2786264419555664
0.3319656372070313,0.2786264419555664
0.3320955276489257,0.2768245697021484
0.3385557174682617,0.2768245697021484
0.3370519638061523,0.2777452468872070
0.3323684692382812,0.2777452468872070
0.3362079620361328,0.2823726654052734
0.3382678985595703,0.2823726654052734
0.3339117050170898,0.2783723831176758
0.3343505859375000,0.2783723831176758
0.3397602081298828,0.2830427169799805
0.3362720489501953,0.2830427169799805
0.3353839874267578,0.2817329406738281
0.3419523239135742,0.2817329406738281
0.3400291442871093,0.2821271896362305
0.3360311508178711,0.2821271896362305
0.3373077392578125,0.2860250473022461
0.3400497436523438,0.2860250473022461
0.3375120162963867,0.2819389343261718
0.3377815246582031,0.2819389343261718
0.3420907974243164,0.2869245529174805
0.3378890991210937,0.2869245529174805
0.3373065948486328,0.2852766036987305
0.3433891296386719,0.2852766036987305
0.3405138015747070,0.2849069595336914
0.3360534667968750,0.2849069595336914
0.3405784606933593,0.2885358810424805
0.3432432174682617,0.2885358810424805
0.3397413253784179,0.2854322433471679
0.3397132873535156,0.2854322433471679
0.3441976547241211,0.2900825500488281
0.3401126861572266,0.2900825500488281
0.3381477355957031,0.2878137588500976
0.3442646026611328,0.2878137588500976
0.3438817977905274,0.2876913070678711
0.3395284652709961,0.2876913070678711
0.3427299499511718,0.2922712326049804
0.3449163436889648,0.2922712326049804
0.3415758132934570,0.2889844894409180
0.3417354583740234,0.2889844894409180
0.3447652816772461,0.2930059432983398
0.3410356521606445,0.2930059432983398
0.3415185928344727,0.2905242919921875
0.3478969573974609,0.2905242919921875
0.3462015151977539,0.2914175033569336
0.3413652420043945,0.2914175033569336
0.3449048995971680,0.2956232070922851
0.3469848632812500,0.2956232070922851
0.3423025131225586,0.2914838790893555
0.3423551559448242,0.2914838790893555
0.3478757858276367,0.2951059341430664
0.3439516067504882,0.2951059341430664
0.3425565719604492,0.2924308776855469
0.3480566024780273,0.2924308776855469
0.3457460403442383,0.2904762268066406
0.3397155761718750,0.2904762268066406
0.3402626037597656,0.2894388198852539
0.3407243728637695,0.2894388198852539
0.3366285324096679,0.2791151046752929
0.3348152160644531,0.2791151046752929
0.3369661331176758,0.2777870178222656
0.3308269500732422,0.2777870178222656
0.3281461715698242,0.2697412490844727
0.3321121215820312,0.2697412490844727
0.3275133132934570,0.2643264770507812
0.3211698532104492,0.2643264770507812
0.3241155624389648,0.2633016586303711
0.3254173278808594,0.2633016586303711
0.3204483032226562,0.2565158843994140
0.3196060180664063,0.2565158843994140
0.3232572555541992,0.2588424682617188
0.3185325622558594,0.2588424682617188
0.3155914306640625,0.2538688659667969
0.3211326599121094,0.2538688659667969
0.3201919555664062,0.2516967773437500
0.3152040481567382,0.2516967773437500
0.3178293228149414,0.2547489166259765
0.3197559356689453,0.2547489166259765
0.3159381866455078,0.2498296737670898
0.3154621124267578,0.2498296737670898
0.3182550430297851,0.2533172607421875
0.3141534805297851,0.2533172607421875
0.3144899368286133,0.2494691848754883
0.3207057952880859,0.2494691848754883
0.3186286926269531,0.2496585845947266
0.3134639739990234,0.2496585845947266
0.3166500091552734,0.2535221099853516
0.3189886093139648,0.2535221099853516
0.3137763977050781,0.2483940124511719
0.3136064529418945,0.2483940124511719
0.3195058822631836,0.2521980285644531
0.3157579421997070,0.2521980285644531
0.3146272659301758,0.2498531341552734
0.3205627441406250,0.2498531341552734
0.3191059112548828,0.2502485275268554
0.3137615203857422,0.2502485275268554
0.3158649444580078,0.2537258148193359
0.3185743331909179,0.2537258148193359
0.3160909652709961,0.2493850708007812
0.3161258697509766,0.2493850708007812
0.3209169387817383,0.2551139831542968
0.3172096252441406,0.2551139831542968
0.3165796279907226,0.2535278320312500
0.3229310989379883,0.2535278320312500
0.3206136703491211,0.2541996002197265
0.3157562255859375,0.2541996002197265
0.3204414367675781,0.2582983016967773
0.3236555099487304,0.2582983016967773
0.3202125549316406,0.2555734634399414
0.3202016830444336,0.2555734634399414
0.3251638412475586,0.2613899230957031
0.3215354919433593,0.2613899230957031
0.3197490692138672,0.2591354370117188
0.3261898040771484,0.2591354370117188
0.3257806777954101,0.2595960617065430
0.3210937500000000,0.2595960617065430
0.3242328643798828,0.2640392303466797
0.3269880294799805,0.2640392303466797
0.3232635498046875,0.2603507995605469
0.3229156494140625,0.2603507995605469
0.3264919281005859,0.2645811080932617
0.3225986480712891,0.2645811080932617
0.3225809097290039,0.2610219955444336
0.3289398193359375,0.2610219955444336
0.3271425247192383,0.2616004943847656
0.3217643737792968,0.2616004943847656
0.3248542785644531,0.2649993896484375
0.3274858474731445,0.2649993896484375
0.3221998214721680,0.2602306365966797
0.3218931198120117,0.2602306365966797
0.3276300430297852,0.2640335083007813
0.3240709304809570,0.2640335083007813
0.3226776123046875,0.2617235183715820
0.3288288116455078,0.2617235183715820
0.3273067474365234,0.2625795364379883
0.3219995498657227,0.2625795364379883
0.3235342025756836,0.2653867721557617
0.3259523391723633,0.2653867721557617
0.3240514755249023,0.2606781005859375
0.3238712310791015,0.2606781005859375
0.3261932373046875,0.2654142379760742
0.3233499526977539,0.2654142379760742
0.3283058166503906,0.2684326171875000
0.3267883300781250,0.2684326171875000
0.3246477127075195,0.2656837463378906
0.3246477127075195,0.2656837463378906
0.3323770523071289,0.2716037750244141
0.3323770523071289,0.2716037750244141
0.3294404983520507,0.2768102645874023
0.3294404983520507,0.2768102645874023
0.3324234008789063,0.2716684341430664
0.3324234008789063,0.2716684341430664
0.3338871002197266,0.2767879486083984
0.3338871002197266,0.2767879486083984
0.3311983108520508,0.2732116699218750
0.3355058670043945,0.2732116699218750
0.3370599746704102,0.2806503295898438
0.3370599746704102,0.2806503295898438
0.3333835601806641,0.2804042816162109
0.3333835601806641,0.2804042816162109
0.3361621856689453,0.2787368774414062
0.3361621856689453,0.2787368774414062
0.3393808364868164,0.2845109939575195
0.3393808364868164,0.2845109939575195
0.3362262725830078,0.2831806182861328
0.3362262725830078,0.2831806182861328
0.3416702270507813,0.2854087829589844
0.3416702270507813,0.2854087829589844
0.3376459121704101,0.2870355606079101
0.3376459121704101,0.2870355606079101
0.3412971496582031,0.2853120803833007
0.3412971496582031,0.2853120803833007
0.3434452056884765,0.2933572769165039
0.3434452056884765,0.2933572769165039
0.3403015136718750,0.2868822097778320
0.3403015136718750,0.2868822097778320
0.3451852798461914,0.2912567138671875
0.3451852798461914,0.2912567138671875
0.3417869567871094,0.2928846359252930
0.3417869567871094,0.2928846359252930
0.3446491241455078,0.2932622909545898
0.3446491241455078,0.2932622909545898
0.3468275070190430,0.2960374832153320
0.3468275070190430,0.2960374832153320
0.3433078765869140,0.2915256500244141
0.3433078765869140,0.2915256500244141
0.3485498428344727,0.2953697204589844
0.3485498428344727,0.2953697204589844
0.3437696456909179,0.2987365722656250
0.3437696456909179,0.2987365722656250
0.3464281082153320,0.2935827255249023
0.3464281082153320,0.2935827255249023
0.3477464675903320,0.2981094360351562
0.3477464675903320,0.2981094360351562
0.3445507049560547,0.2931432723999023
0.3445507049560547,0.2931432723999023
0.3490711212158203,0.2991554260253906
0.3490711212158203,0.2991554260253906
0.3443252563476563,0.2970417022705078
0.3443252563476563,0.2970417022705078
0.3468120574951172,0.2940210342407226
0.3468120574951172,0.2940210342407226
0.3485435485839843,0.2984378814697266
0.3485435485839843,0.2984378814697266
0.3445346832275391,0.2959402084350586
0.3445346832275391,0.2959402084350586
0.3494001388549804,0.2970834732055664
0.3494001388549804,0.2970834732055664
0.3442417144775390,0.2977146148681640
0.3442417144775390,0.2977146148681640
0.3476869583129883,0.2952198028564453
0.3476869583129883,0.2952198028564453
0.3492353439331055,0.3024421691894531
0.3492353439331055,0.3024421691894531
0.3455904006958008,0.2951345443725586
0.3455904006958008,0.2951345443725586
0.3503339767456055,0.2984693527221680
0.3503339767456055,0.2984693527221680
0.3450027465820312,0.2975223541259766
0.3450027465820312,0.2975223541259766
0.3458312988281250,0.2940914154052734
0.3458312988281250,0.2940914154052734
0.3443298339843750,0.2912464141845703
0.3443298339843750,0.2912464141845703
0.3361215591430664,0.2798269271850586
0.3361215591430664,0.2798269271850586
0.3374221801757812,0.2770723342895507
0.3374221801757812,0.2770723342895507
0.3282703399658203,0.2739641189575195
0.3282703399658203,0.2739641189575195
0.3275098800659180,0.2637268066406250
0.3275098800659180,0.2637268066406250
0.3261217117309570,0.2643156051635742
0.3261217117309570,0.2643156051635742
0.3204402923583984,0.2557788848876953
0.3204402923583984,0.2557788848876953
0.3235965728759765,0.2600933074951172
0.3235965728759765,0.2600933074951172
0.3171970367431641,0.2557142257690430
0.3171970367431641,0.2557142257690430
0.3188518524169922,0.2515319824218750
0.3151926040649414,0.2515319824218750
0.3200214385986328,0.2551860809326172
0.3200214385986328,0.2551860809326172
0.3154541015625000,0.2513832092285156
0.3154541015625000,0.2513832092285156
0.3202560424804687,0.2523262023925781
0.3202560424804687,0.2523262023925781
0.3145174026489257,0.2519165039062500
0.3145174026489257,0.2519165039062500
0.3177228927612304,0.2491498947143554
0.3177228927612304,0.2491498947143554
0.3187093734741211,0.2562463760375976
0.3183706283569336,0.2562463760375976
0.3149419784545898,0.2481714248657226
0.3184318542480469,0.2481714248657226
0.3196861267089844,0.2523496627807617
0.3196861267089844,0.2523496627807617
0.3150461196899414,0.2523937225341797
0.3150461196899414,0.2523937225341797
0.3181114196777344,0.2528039932250977
0.3181114196777344,0.2528039932250977
0.3195934295654297,0.2551883697509765
0.3195934295654297,0.2551883697509765
0.3161802291870117,0.2500963211059570
0.3161802291870117,0.2500963211059570
0.3219629287719726,0.2546848297119140
0.3219629287719726,0.2546848297119140
0.3171672821044922,0.2596584320068359
0.3171672821044922,0.2596584320068359
0.3207384109497070,0.2544187545776367
0.3207384109497070,0.2544187545776367
0.3224584579467774,0.2601636886596679
0.3224584579467774,0.2601636886596679
0.3204420089721680,0.2563819885253906
0.3237476348876953,0.2563819885253906
0.3259323120117187,0.2639453887939453
0.3259323120117187,0.2639453887939453
0.3219423294067383,0.2631351470947266
0.3219423294067383,0.2631351470947266
0.3253366470336914,0.2616422653198242
0.3232366561889649,0.2616422653198242
0.3277605056762695,0.2668315887451172
0.3277605056762695,0.2668315887451172
0.3244033813476562,0.2645164489746094
0.3244033813476562,0.2645164489746094
0.3293289184570312,0.2659406661987305
0.3293289184570312,0.2659406661987305
0.3240755081176758,0.2662553787231445
0.3240755081176758,0.2662553787231445
0.3273736953735352,0.2636724472045898
0.3273736953735352,0.2636724472045898
0.3287029266357422,0.2703849792480469
0.3287029266357422,0.2703849792480469
0.3249338150024414,0.2629262924194336
0.3249338150024414,0.2629262924194336
0.3295766830444336,0.2666244506835938
0.3295766830444336,0.2666244506835938
0.3251718521118164,0.2669523239135742
0.3251718521118164,0.2669523239135742
0.3277479171752929,0.2668888092041016
0.3277479171752929,0.2668888092041016
0.3293918609619140,0.2693309783935547
0.3293918609619140,0.2693309783935547
0.3256422042846679,0.2645656585693359
0.3256422042846679,0.2645656585693359
0.3311559677124024,0.2687513351440430
0.3311559677124024,0.2687513351440430
0.3266195297241211,0.2717794418334961
0.3266195297241211,0.2717794418334961
0.3296539306640625,0.2674713134765625
0.3296539306640625,0.2674713134765625
0.3314718246459961,0.2724775314331054
0.3314718246459961,0.2724775314331054
0.3284677505493164,0.2679765701293945
0.3284677505493164,0.2679765701293945
0.3334699630737304,0.2749505996704101
0.3334699630737304,0.2749505996704101
0.3293111801147461,0.2735773086547851
0.3293111801147461,0.2735773086547851
0.3321367263793945,0.2717977523803711
0.3321367263793945,0.2717977523803711
0.3346343994140625,0.2771020889282226
0.3346343994140625,0.2771020889282226
0.3313413619995117,0.2750822067260742
0.3313413619995117,0.2750822067260742
0.3365541458129883,0.2773681640625000
0.3365541458129883,0.2773681640625000
0.3322969436645508,0.2783105850219726
0.3322969436645508,0.2783105850219726
0.3358079910278320,0.2765504837036133
0.3358079910278320,0.2765504837036133
0.3376190185546875,0.2843021392822265
0.3375658035278320,0.2843021392822265
0.3346000671386719,0.2776273727416992
0.3384201049804688,0.2776273727416992
0.3395324707031250,0.2823434829711914
0.3395324707031250,0.2823434829711914
0.3359298706054688,0.2831663131713867
0.3359298706054688,0.2831663131713867
0.3389694213867188,0.2837230682373047
0.3389694213867188,0.2837230682373047
0.3409137725830078,0.2868078231811523
0.3409137725830078,0.2868078231811523
0.3376733779907227,0.2823223114013672
0.3376733779907227,0.2823223114013672
0.3433874130249023,0.2870218276977539
0.3433874130249023,0.2870218276977539
0.3388046264648437,0.2899206161499023
0.3388046264648437,0.2899206161499023
0.3422155380249023,0.2859809875488281
0.3422155380249023,0.2859809875488281
0.3436042785644531,0.2911777496337891
0.3436042785644531,0.2911777496337891
0.3409395217895508,0.2862979888916016
0.3409395217895508,0.2862979888916016
0.3459960937500000,0.2931821823120117
0.3459960937500000,0.2931821823120117
0.3412055969238281,0.2912109375000000
0.3416530609130859,0.2893392562866211
0.3462781906127930,0.2946184158325195
0.3462541580200195,0.2946184158325195
0.3428152084350586,0.2913648605346680
0.3428152084350586,0.2913648605346680
0.3481761932373047,0.2943815231323242
0.3481761932373047,0.2943815231323242
0.3429616928100586,0.2944822311401367
0.3429616928100586,0.2944822311401367
0.3469430923461914,0.2928171157836914
0.3437850952148437,0.2928171157836914
0.3481859207153320,0.2995977401733398
0.3481859207153320,0.2995977401733398
0.3449254989624023,0.2929670333862305
0.3449254989624023,0.2929670333862305
0.3503168106079101,0.2978576660156250
0.3503168106079101,0.2978576660156250
0.3456790924072266,0.2979526519775391
0.3456790924072266,0.2979526519775391
0.3489046096801758,0.2978044509887695
0.3489046096801758,0.2978044509887695
0.3497440338134766,0.3000148773193359
0.3497440338134766,0.3000148773193359
0.3448528289794922,0.2925727844238281
0.3448528289794922,0.2925727844238281
0.3482734680175781,0.2933526992797851
0.3482734680175781,0.2933526992797851
0.3394792556762695,0.2893243789672851
0.3394792556762695,0.2893243789672851
0.3382764816284179,0.2781337738037109
0.3382764816284179,0.2781337738037109
0.3348226547241211,0.2762054443359375
0.3348226547241211,0.2762054443359375
0.3273164749145508,0.2650217056274414
0.3288574218750000,0.2650217056274414
0.3288288116455078,0.2667949676513672
0.3288288116455078,0.2667949676513672
0.3210371017456055,0.2607576370239258
0.3210371017456055,0.2607576370239258
0.3220596313476562,0.2559087753295898
0.3220596313476562,0.2559087753295898
0.3222381591796875,0.2585557937622070
0.3222381591796875,0.2585557937622070
0.3173549652099609,0.2534568786621094
0.3173549652099609,0.2534568786621094
0.3215749740600586,0.2547494888305664
0.3215749740600586,0.2547494888305664
0.3157934188842773,0.2533258438110351
0.3157934188842773,0.2533258438110351
0.3187299728393554,0.2504940032958984
0.3187299728393554,0.2504940032958984
0.3193370819091797,0.2565902709960937
0.3193370819091797,0.2565902709960937
0.3155233383178711,0.2488660812377930
0.3155233383178711,0.2488660812377930
0.3200477600097656,0.2530225753784179
0.3200477600097656,0.2530225753784179
0.3153076171875000,0.2523828506469726
0.3153076171875000,0.2523828506469726
0.3182882308959961,0.2522523880004883
0.3182882308959961,0.2522523880004883
0.3194372177124024,0.2548627853393555
0.3192684173583984,0.2548627853393555
0.3159095764160156,0.2495246887207031
0.3159095764160156,0.2495246887207031
0.3211801528930664,0.2540954589843750
0.3211801528930664,0.2540954589843750
0.3162672042846680,0.2558509826660156
0.3162672042846680,0.2558509826660156
0.3197004318237305,0.2524806976318359
0.3197004318237305,0.2524806976318359
0.3209604263305664,0.2576843261718750
0.3209604263305664,0.2576843261718750
0.3186716079711914,0.2534208297729492
0.3186716079711914,0.2534208297729492
0.3239908218383789,0.2606512069702148
0.3239908218383789,0.2606512069702148
0.3199974060058594,0.2593162536621094
0.3199974060058594,0.2593162536621094
0.3217432022094727,0.2586204528808594
0.3278234481811523,0.2586204528808594
0.3267677307128906,0.2616846084594727
0.3218055725097656,0.2616846084594727
0.3253269195556641,0.2652528762817383
0.3285163879394531,0.2652528762817383
0.3237991333007812,0.2613893508911133
0.3234661102294922,0.2613893508911133
0.3289117813110352,0.2663228988647461
0.3258934020996094,0.2663228988647461
0.3246374130249023,0.2631528854370117
0.3301294326782226,0.2631528854370117
0.3290903091430664,0.2649295806884766
0.3236028671264649,0.2649295806884766
0.3256748199462891,0.2669025421142578
0.3287967681884765,0.2669025421142578
0.3256891250610351,0.2620656967163086
0.3252428054809570,0.2620656967163086
0.3295492172241211,0.2674781799316406
0.3260192871093750,0.2674781799316406
0.3251661300659179,0.2636232376098633
0.3302438735961914,0.2636232376098633
0.3281301498413086,0.2647539138793945
0.3228847503662109,0.2647539138793945
0.3267322540283203,0.2670043945312500
0.3301717758178711,0.2670043945312500
0.3261583328247070,0.2634372711181641
0.3256273269653320,0.2634372711181641
0.3304555892944336,0.2691541671752929
0.3269783020019531,0.2691541671752929
0.3251295089721680,0.2651041030883789
0.3307188034057617,0.2651041030883789
0.3304155349731445,0.2666793823242187
0.3255975723266601,0.2666793823242187
0.3287132263183594,0.2703861236572265
0.3319650650024414,0.2703861236572265
0.3285850524902343,0.2668796539306640
0.3280483245849609,0.2668796539306640
0.3316446304321289,0.2722417831420899
0.3286771774291992,0.2722417831420899
0.3286565780639648,0.2687318801879883
0.3344730377197265,0.2687318801879883
0.3333898544311523,0.2717868804931641
0.3284317016601562,0.2717868804931641
0.3319232940673828,0.2754770278930664
0.3352392196655273,0.2754770278930664
0.3307010650634766,0.2715608596801758
0.3304178237915039,0.2715608596801758
0.3359870910644531,0.2769287109375000
0.3332307815551758,0.2769287109375000
0.3323387145996093,0.2745700836181640
0.3379583358764648,0.2745700836181640
0.3371606826782226,0.2771753311157226
0.3319879531860351,0.2771753311157226
0.3342950820922851,0.2801879882812500
0.3378776550292968,0.2801879882812500
0.3351150512695312,0.2763919830322266
0.3349679946899414,0.2763919830322266
0.3395078659057617,0.2828544616699218
0.3365821838378906,0.2828544616699218
0.3359413146972656,0.2802577972412109
0.3413795471191406,0.2802577972412109
0.3393985748291016,0.2821884155273438
0.3344284057617187,0.2821884155273438
0.3386655807495117,0.2848543167114257
0.3423385620117188,0.2848543167114257
0.3385648727416992,0.2820854187011719
0.3381465911865234,0.2820854187011719
0.3430189132690429,0.2879951477050781
0.3398077011108399,0.2879951477050781
0.3378839492797852,0.2845224380493164
0.3435424804687500,0.2845224380493164
0.3434280395507812,0.2864112854003906
0.3387205123901367,0.2864112854003906
0.3417566299438476,0.2902519226074219
0.3452642440795898,0.2902519226074219
0.3417428970336914,0.2871431350708007
0.3410860061645508,0.2871431350708007
0.3446788787841797,0.2921522140502930
0.3416925430297851,0.2921522140502930
0.3416227340698242,0.2882852554321289
0.3474397659301758,0.2882852554321289
0.3462450027465820,0.2911977767944336
0.3411352157592774,0.2911977767944336
0.3445135116577148,0.2942081451416015
0.3476749420166015,0.2942081451416015
0.3428340911865234,0.2900945663452149
0.3424461364746094,0.2900945663452149
0.3479558944702149,0.2950447082519531
0.3450542449951172,0.2950447082519531
0.3437393188476562,0.2921464920043945
0.3493503570556640,0.2921464920043945
0.3485160827636719,0.2947277069091797
0.3430910110473633,0.2947277069091797
0.3452344894409179,0.2969478607177734
0.3487146377563476,0.2969478607177734
0.3458599090576172,0.2926689147949219
0.3455337524414062,0.2926689147949219
0.3500633239746094,0.2988887786865234
0.3469545364379883,0.2988887786865234
0.3461254119873047,0.2954704284667969
0.3514200210571289,0.2954704284667969
0.3492954254150391,0.2974599838256836
0.3441862106323242,0.2974599838256836
0.3482923507690430,0.2997900009155273
0.3520116806030273,0.2997900009155273
0.3480297088623047,0.2967676162719726
0.3475324630737305,0.2967676162719726
0.3524917602539062,0.3027826309204101
0.3491895675659180,0.3027826309204101
0.3470701217651367,0.2986627578735351
0.3527303695678711,0.2986627578735351
0.3526004791259765,0.3004280090332031
0.3476291656494140,0.3004280090332031
0.3504884719848633,0.3034017562866211
0.3535577774047852,0.3034017562866211
0.3495002746582031,0.2982147216796875
0.3480199813842773,0.2982147216796875
0.3505125045776367,0.3000846862792969
0.3460481643676758,0.3000846862792969
0.3440969467163086,0.2908075332641601
0.3477493286132812,0.2908075332641601
0.3441684722900391,0.2866024017333984
0.3364843368530273,0.2866024017333984
0.3372940063476562,0.2819549560546875
0.3380481719970703,0.2819549560546875
0.3308773040771484,0.2705354690551758
0.3280054092407226,0.2705354690551758
0.3316417694091797,0.2696004867553711
0.3269227981567382,0.2696004867553711
0.3241058349609375,0.2616725921630859
0.3281124114990234,0.2616725921630859
0.3260856628417969,0.2604526519775390
0.3196409225463867,0.2604526519775390
0.3208557128906250,0.2600120544433593
0.3235588073730469,0.2600120544433593
0.3197879791259766,0.2534940719604492
0.3187248229980469,0.2534940719604492
0.3226467132568359,0.2578022003173828
0.3190961837768554,0.2578022003173828
0.3176496505737305,0.2529550552368164
0.3224578857421875,0.2529550552368164
0.3202119827270508,0.2536302566528320
0.3147382736206055,0.2536302566528320
0.3183563232421875,0.2548793792724609
0.3218914031982422,0.2548793792724609
0.3176382064819336,0.2508625030517578
0.3166477203369141,0.2508625030517578
0.3213998794555664,0.2558315277099609
0.3180072784423828,0.2558315277099609
0.3156492233276367,0.2511451721191406
0.3210783004760742,0.2511451721191406
0.3206668853759765,0.2527439117431641
0.3156440734863281,0.2527439117431641
0.3184289932250977,0.2555128097534179
0.3218736648559570,0.2555128097534179
0.3181566238403320,0.2517356872558594
0.3171438217163086,0.2517356872558594
0.3208431243896484,0.2564157485961914
0.3178144454956054,0.2564157485961914
0.3172811508178711,0.2518947601318359
0.3231130599975586,0.2518947601318359
0.3220252990722656,0.2550441741943359
0.3169006347656250,0.2550441741943359
0.3203052520751953,0.2580133438110351
0.3238346099853516,0.2580133438110351
0.3191139221191406,0.2542619705200195
0.3185846328735352,0.2542619705200195
0.3243638992309570,0.2599227905273437
0.3218931198120117,0.2599227905273437
0.3205472946166992,0.2573169708251953
0.3263860702514648,0.2573169708251953
0.3259546279907227,0.2609985351562500
0.3208133697509766,0.2609985351562500
0.3231325149536133,0.2636650085449219
0.3271636962890625,0.2636650085449219
0.3242036819458008,0.2599536895751953
0.3238437652587891,0.2599536895751953
0.3287057876586914,0.2665689468383789
0.3257806777954101,0.2665689468383789
0.3246728897094727,0.2628404617309570
0.3300184249877929,0.2628404617309570
0.3280660629272461,0.2651435852050781
0.3229236602783203,0.2651435852050781
0.3267648696899414,0.2669849395751953
0.3305717468261719,0.2669849395751953
0.3263420104980468,0.2634515762329102
0.3253881454467774,0.2634515762329102
0.3303251266479492,0.2688537597656250
0.3270189285278320,0.2688537597656250
0.3244640350341797,0.2637250900268555
0.3298170089721680,0.2637250900268555
0.3296173095703125,0.2654748916625976
0.3244314193725586,0.2654748916625976
0.3271659851074218,0.2681310653686523
0.3306890487670898,0.2681310653686523
0.3268821716308594,0.2639654159545898
0.3256307601928711,0.2639654159545898
0.3294273376464844,0.2688903808593750
0.3264970779418945,0.2688903808593750
0.3258493423461914,0.2641960144042969
0.3315759658813476,0.2641960144042969
0.3304515838623047,0.2674758911132812
0.3253005981445312,0.2674758911132812
0.3286022186279297,0.2704198837280273
0.3320566177368164,0.2704198837280273
0.3271780014038086,0.2659767150878906
0.3264141082763672,0.2659767150878906
0.3321533203125000,0.2712598800659179
0.3296224594116211,0.2712598800659179
0.3281730651855468,0.2680858612060547
0.3337549209594726,0.2680858612060547
0.3332044601440430,0.2712644577026367
0.3278692245483398,0.2712644577026367
0.3300012588500976,0.2737844467163086
0.3339706420898437,0.2737844467163086
0.3310541152954101,0.2700050354003906
0.3305065155029297,0.2700050354003906
0.3353302001953125,0.2766654968261719
0.3326929092407226,0.2766654968261719
0.3315393447875977,0.2734863281250000
0.3369541168212891,0.2734863281250000
0.3353605270385742,0.2762042999267578
0.3303606033325195,0.2762042999267578
0.3342893600463867,0.2786235809326172
0.3385499954223632,0.2786235809326172
0.3346355438232422,0.2760074615478516
0.3338521957397461,0.2760074615478516
0.3391925811767578,0.2823102951049805
0.3363063812255859,0.2823102951049805
0.3339139938354492,0.2783769607543945
0.3397195816040039,0.2783769607543945
0.3399490356445312,0.2812334060668945
0.3350664138793945,0.2812334060668945
0.3380390167236328,0.2848222732543945
0.3420553207397461,0.2848222732543945
0.3386209487915039,0.2819246292114257
0.3374856948852539,0.2819246292114257
0.3414510726928711,0.2872638702392578
0.3388177871704102,0.2872638702392578
0.3383365631103515,0.2829992294311524
0.3441919326782226,0.2829992294311524
0.3433856964111328,0.2869857788085937
0.3382575988769531,0.2869857788085937
0.3414258956909180,0.2897449493408203
0.3452219009399414,0.2897449493408203
0.3403827667236328,0.2859638214111328
0.3394804000854492,0.2859638214111328
0.3454685211181641,0.2914312362670898
0.3430463790893555,0.2914312362670898
0.3413841247558594,0.2882978439331055
0.3470088958740234,0.2882978439331055
0.3465494155883789,0.2919239044189453
0.3411426544189453,0.2919239044189453
0.3430778503417969,0.2938127517700195
0.3470563888549805,0.2938127517700195
0.3440700531005859,0.2896917343139648
0.3432621002197265,0.2896917343139648
0.3481275558471680,0.2960992813110351
0.3452756881713867,0.2960992813110351
0.3439693450927734,0.2919776916503906
0.3491712570190429,0.2919776916503906
0.3474203109741211,0.2944908142089844
0.3421485900878906,0.2944908142089844
0.3459726333618164,0.2963556289672851
0.3502000808715820,0.2963556289672851
0.3459995269775391,0.2933309555053711
0.3449495315551758,0.2933309555053711
0.3502630233764648,0.2995399475097656
0.3473361968994140,0.2995399475097656
0.3446388244628906,0.2947076797485351
0.3502704620361328,0.2947076797485351
0.3504878997802734,0.2972190856933594
0.3454719543457031,0.2972190856933594
0.3482820510864258,0.3004142761230469
0.3522228240966797,0.3004142761230469
0.3484903335571289,0.2968786239624023
0.3470443725585937,0.2968786239624023
0.3510120391845703,0.3021223068237305
0.3483192443847656,0.3021223068237305
0.3476480484008789,0.2974124908447265
0.3534027099609375,0.2974124908447265
0.3525072097778320,0.3011770248413086
0.3472383499145508,0.3011770248413086
0.3504158020019531,0.3038904190063477
0.3540115356445312,0.3038904190063477
0.3488805770874023,0.2992240905761719
0.3476961135864258,0.2992240905761719
0.3533409118652344,0.3034166336059570
0.3504346847534179,0.3034166336059570
0.3480823516845703,0.2979955673217773
0.3525415420532226,0.2979955673217773
0.3509548187255859,0.2973764419555664
0.3437982559204101,0.2973764419555664
0.3437410354614258,0.2934848785400391
0.3454273223876953,0.2934848785400391
0.3399541854858398,0.2818788528442382
0.3364952087402344,0.2818788528442382
0.3351242065429688,0.2756807327270508
0.3351242065429688,0.2756807327270508
0.3302610397338867,0.2723642349243164
0.3298456192016602,0.2723642349243164
0.3251827239990234,0.2626996994018554
0.3251827239990234,0.2626996994018554
0.3277307510375976,0.2639356613159179
0.3277307510375976,0.2639356613159179
0.3205839157104492,0.2617132186889649
0.3205839157104492,0.2617132186889649
0.3227565765380859,0.2564352035522461
0.3227565765380859,0.2564352035522461
0.3221385955810547,0.2595170974731445
0.3221385955810547,0.2595170974731445
0.3187253952026367,0.2533658981323242
0.3208528518676758,0.2533658981323242
0.3227731704711914,0.2592601776123047
0.3227731704711914,0.2592601776123047
0.3172937393188476,0.2550367355346679
0.3172937393188476,0.2550367355346679
0.3204036712646484,0.2533058166503906
0.3204036712646484,0.2533058166503906
0.3212064743041992,0.2575733184814453
0.3213930130004883,0.2575733184814453
0.3178287506103515,0.2542579650878906
0.3178287506103515,0.2542579650878906
0.3225105285644531,0.2568592071533203
0.3225105285644531,0.2568592071533203
0.3169452667236328,0.2551128387451172
0.3169452667236328,0.2551128387451172
0.3210880279541016,0.2539226531982422
0.3210880279541016,0.2539226531982422
0.3217391967773438,0.2604846954345703
0.3224475860595703,0.2604846954345703
0.3187820434570313,0.2538116455078125
0.3187820434570313,0.2538116455078125
0.3238346099853516,0.2588859558105469
0.3238346099853516,0.2588859558105469
0.3192832946777344,0.2578256607055664
0.3192832946777344,0.2578256607055664
0.3232418060302734,0.2594215393066406
0.3232418060302734,0.2594215393066406
0.3246351242065429,0.2627883911132812
0.3246351242065429,0.2627883911132812
0.3218856811523437,0.2589448928833007
0.3218856811523437,0.2589448928833007
0.3280151367187500,0.2647481918334961
0.3280151367187500,0.2647481918334961
0.3233848571777344,0.2661037445068359
0.3233848571777344,0.2661037445068359
0.3276386260986328,0.2637067794799804
0.3276386260986328,0.2637067794799804
0.3288105010986328,0.2688646316528320
0.3294662475585937,0.2688646316528320
0.3263105392456054,0.2644300460815430
0.3263105392456054,0.2644300460815430
0.3310678482055664,0.2713542938232422
0.3310678482055664,0.2713542938232422
0.3260078430175781,0.2676630020141602
0.3260078430175781,0.2676630020141602
0.3292058944702148,0.2662513732910156
0.3292058944702148,0.2662513732910156
0.3302404403686524,0.2706270217895508
0.3302404403686524,0.2706270217895508
0.3270000457763672,0.2675434112548828
0.3270000457763672,0.2675434112548828
0.3315204620361328,0.2698373794555664
0.3315204620361328,0.2698373794555664
0.3261388778686523,0.2680137634277344
0.3261388778686523,0.2680137634277344
0.3299200057983399,0.2666215896606445
0.3299200057983399,0.2666215896606445
0.3304298400878906,0.2732105255126953
0.3304298400878906,0.2732105255126953
0.3274532318115234,0.2662851333618164
0.3274532318115234,0.2662851333618164
0.3319633483886719,0.2711299896240234
0.3319633483886719,0.2711299896240234
0.3275058746337891,0.2696765899658203
0.3275058746337891,0.2696765899658203
0.3310363769531250,0.2708438873291015
0.3310363769531250,0.2708438873291015
0.3320280075073242,0.2736219406127929
0.3326110839843750,0.2736219406127929
0.3292716979980468,0.2692686080932617
0.3292716979980468,0.2692686080932617
0.3345874786376953,0.2744298934936523
0.3345874786376953,0.2744298934936523
0.3296344757080078,0.2754140853881836
0.3296344757080078,0.2754140853881836
0.3336639404296875,0.2727802276611328
0.3336639404296875,0.2727802276611328
0.3344209671020508,0.2778682708740234
0.3344209671020508,0.2778682708740234
0.3324623107910156,0.2738182067871094
0.3324623107910156,0.2738182067871094
0.3374742507934570,0.2813003540039062
0.3374742507934570,0.2813003540039062
0.3329378128051758,0.2783517837524414
0.3329378128051758,0.2783517837524414
0.3370021820068359,0.2778036117553711
0.3370021820068359,0.2778036117553711
0.3383291244506836,0.2830318450927734
0.3383291244506836,0.2830318450927734
0.3356723785400391,0.2811527252197266
0.3356723785400391,0.2811527252197266
0.3409217834472656,0.2842992782592773
0.3409217834472656,0.2842992782592773
0.3358589172363281,0.2832567214965820
0.3358589172363281,0.2832567214965820
0.3404514312744141,0.2829076766967774
0.3404514312744141,0.2829076766967774
0.3413000106811523,0.2901151657104492
0.3413000106811523,0.2901151657104492
0.3388772964477539,0.2838169097900390
0.3388772964477539,0.2838169097900390
0.3438909530639648,0.2889112472534179
0.3390552520751953,0.2889112472534179
0.3392509460449218,0.2879076004028320
0.3392509460449218,0.2879076004028320
0.3431053161621094,0.2894142150878906
0.3431053161621094,0.2894142150878906
0.3440855026245117,0.2921693801879883
0.3440855026245117,0.2921693801879883
0.3410934448242187,0.2878658294677734
0.3410934448242187,0.2878658294677734
0.3466163635253906,0.2928382873535156
0.3466163635253906,0.2928382873535156
0.3414854049682617,0.2936628341674805
0.3414854049682617,0.2936628341674805
0.3454816818237305,0.2906965255737304
0.3454816818237305,0.2906965255737304
0.3462135314941406,0.2954572677612304
0.3462135314941406,0.2954572677612304
0.3437639236450195,0.2911565780639648
0.3461116790771484,0.2911565780639648
0.3485160827636719,0.2983526229858398
0.3485160827636719,0.2983526229858398
0.3436460494995117,0.2948690414428711
0.3436460494995117,0.2948690414428711
0.3472520828247070,0.2940050125122070
0.3472520828247070,0.2940050125122070
0.3485750198364257,0.2988206863403320
0.3491363525390625,0.2988206863403320
0.3457534790039062,0.2966869354248047
0.3457534790039062,0.2966869354248047
0.3507007598876953,0.2994295120239258
0.3507007598876953,0.2994295120239258
0.3456642150878906,0.2979326248168945
0.3456642150878906,0.2979326248168945
0.3497640609741211,0.2972133636474609
0.3497640609741211,0.2972133636474609
0.3501823425292969,0.3039030075073242
0.3501823425292969,0.3039030075073242
0.3471227645874023,0.2966033935546875
0.3471227645874023,0.2966033935546875
0.3508644104003906,0.2999032974243164
0.3508644104003906,0.2999032974243164
0.3444213867187500,0.2952095031738281
0.3444213867187500,0.2952095031738281
0.3450553894042969,0.2913539886474609
0.3450553894042969,0.2913539886474609
0.3415094375610351,0.2872329711914062
0.3415094375610351,0.2872329711914062
0.3342962265014648,0.2759777069091797
0.3343202590942383,0.2759777069091797
0.3352169036865234,0.2747726440429688
0.3352169036865234,0.2747726440429688
0.3262956619262695,0.2701206207275391
0.3262956619262695,0.2701206207275391
0.3273651123046875,0.2629640579223633
0.3273651123046875,0.2629640579223633
0.3251907348632813,0.2642211914062500
0.3251907348632813,0.2642211914062500
0.3212282180786133,0.2571716308593750
0.3212282180786133,0.2571716308593750
0.3245435714721679,0.2620056152343750
0.3245435714721679,0.2620056152343750
0.3182973861694336,0.2568729400634766
0.3182973861694336,0.2568729400634766
0.3214365005493164,0.2548994064331054
0.3214365005493164,0.2548994064331054
0.3215435028076172,0.2585432052612305
0.3220830917358398,0.2585432052612305
0.3183099746704102,0.2553188323974609
0.3183099746704102,0.2553188323974609
0.3228075027465820,0.2575510025024414
0.3228075027465820,0.2575510025024414
0.3170305252075195,0.2554481506347656
0.3170305252075195,0.2554481506347656
0.3212574005126953,0.2542499542236328
0.3212574005126953,0.2542499542236328
0.3214902877807617,0.2605230331420899
0.3214902877807617,0.2605230331420899
0.3186458587646484,0.2538688659667969
0.3186458587646484,0.2538688659667969
0.3234191894531250,0.2584745407104492
0.3185611724853515,0.2584745407104492
0.3183494567871094,0.2567796707153320
0.3183494567871094,0.2567796707153320
0.3223463058471679,0.2580831527709961
0.3223463058471679,0.2580831527709961
0.3230192184448242,0.2609344482421875
0.3230192184448242,0.2609344482421875
0.3204397201538086,0.2569490432739258
0.3204397201538086,0.2569490432739258
0.3262664794921875,0.2624879837036133
0.3262664794921875,0.2624879837036133
0.3213386535644531,0.2635723114013672
0.3213386535644531,0.2635723114013672
0.3261108398437500,0.2615610122680664
0.3261108398437500,0.2615610122680664
0.3270366668701172,0.2668922424316406
0.3270366668701172,0.2668922424316406
0.3252044677734375,0.2632438659667969
0.3252044677734375,0.2632438659667969
0.3302976608276367,0.2706052780151367
0.3302976608276367,0.2706052780151367
0.3254081726074219,0.2671812057495117
0.3254081726074219,0.2671812057495117
0.3292482376098633,0.2664945602416992
0.3292482376098633,0.2664945602416992
0.3301002502441406,0.2709360122680664
0.3301002502441406,0.2709360122680664
0.3272117614746093,0.2682289123535156
0.3272117614746093,0.2682289123535156
0.3318454742431641,0.2706424713134766
0.3318454742431641,0.2706424713134766
0.3262338638305664,0.2684452056884766
0.3262338638305664,0.2684452056884766
0.3302799224853515,0.2672183990478516
0.3302799224853515,0.2672183990478516
0.3301671981811523,0.2734130859375000
0.3301671981811523,0.2734130859375000
0.3274074554443359,0.2665666580200195
0.3274074554443359,0.2665666580200195
0.3318099975585938,0.2711282730102539
0.3318099975585938,0.2711282730102539
0.3269908905029297,0.2692668914794922
0.3335083007812500,0.2692668914794922
0.3308343887329102,0.2704851150512695
0.3308343887329102,0.2704851150512695
0.3313070297241211,0.2730033874511719
0.3324279785156250,0.2730033874511719
0.3286960601806641,0.2686174392700195
0.3286960601806641,0.2686174392700195
0.3338647842407226,0.2736591339111328
0.3338647842407226,0.2736591339111328
0.3287132263183594,0.2742176055908203
0.3287132263183594,0.2742176055908203
0.3330156326293945,0.2716753005981445
0.3330156326293945,0.2716753005981445
0.3332874298095703,0.2765808105468750
0.3332874298095703,0.2765808105468750
0.3315708160400391,0.2726709365844727
0.3335489273071289,0.2726709365844727
0.3365163803100586,0.2799219131469726
0.3365163803100586,0.2799219131469726
0.3316629409790039,0.2767204284667968
0.3316629409790039,0.2767204284667968
0.3361307144165039,0.2765052795410156
0.3361307144165039,0.2765052795410156
0.3370405197143554,0.2816442489624023
0.3382976531982422,0.2816442489624023
0.3348083496093750,0.2799007415771484
0.3348083496093750,0.2799007415771484
0.3399673461914062,0.2830324172973633
0.3399673461914062,0.2830324172973633
0.3347642898559570,0.2818943023681640
0.3347642898559570,0.2818943023681640
0.3398111343383789,0.2818279266357422
0.3398111343383789,0.2818279266357422
0.3402986526489258,0.2889249801635742
0.3402986526489258,0.2889249801635742
0.3381832122802734,0.2830221176147461
0.3381832122802734,0.2830221176147461
0.3432655334472656,0.2882326126098633
0.3432655334472656,0.2882326126098633
0.3386209487915039,0.2871540069580078
0.3386209487915039,0.2871540069580078
0.3429840087890625,0.2890932083129883
0.3429840087890625,0.2890932083129883
0.3436500549316406,0.2918752670288086
0.3449352264404297,0.2918752670288086
0.3411357879638672,0.2879865646362305
0.3430606842041016,0.2879865646362305
0.3466329574584961,0.2930866241455078
0.3466329574584961,0.2930866241455078
0.3414916992187500,0.2938333511352539
0.3414916992187500,0.2938333511352539
0.3458650588989258,0.2912195205688476
0.3458650588989258,0.2912195205688476
0.3460481643676758,0.2957399368286133
0.3460481643676758,0.2957399368286133
0.3439859390258789,0.2916532516479492
0.3439859390258789,0.2916532516479492
0.3486310958862305,0.2986164093017578
0.3486310958862305,0.2986164093017578
0.3435619354248047,0.2948083877563477
0.3435619354248047,0.2948083877563477
0.3474752426147461,0.2941938400268554
0.3445180892944336,0.2942287445068359
0.3483215332031250,0.2989849090576172
0.3493749618530274,0.2989849090576172
0.3459314346313476,0.2970479965209961
0.3459314346313476,0.2970479965209961
0.3507774353027344,0.2997156143188476
0.3507774353027344,0.2997156143188476
0.3456779479980469,0.2981912612915039
0.3456779479980469,0.2981912612915039
0.3502515792846679,0.2977901458740234
0.3502515792846679,0.2977901458740234
0.3503173828125000,0.3047275543212891
0.3503173828125000,0.3047275543212891
0.3482265472412109,0.2984556198120117
0.3482265472412109,0.2984556198120117
0.3528081893920899,0.3033119201660156
0.3528081893920899,0.3033119201660156
0.3481624603271484,0.3015913009643554
0.3481624603271484,0.3015913009643554
0.3518560409545898,0.3024433135986328
0.3518560409545898,0.3024433135986328
0.3509462356567383,0.3028381347656250
0.3509462356567383,0.3028381347656250
0.3465608596801757,0.2949462890625000
0.3465608596801757,0.2949462890625000
0.3481595993041992,0.2940027236938477
0.3481595993041992,0.2940027236938477
0.3383285522460938,0.2874200820922851
0.3383285522460938,0.2874200820922851
0.3378198623657226,0.2774265289306641
0.3378198623657226,0.2774265289306641
0.3330310821533203,0.2754941940307617
0.3330310821533203,0.2754941940307617
0.3275236129760742,0.2660705566406250
0.3274641036987305,0.2660705566406250
0.3291074752807617,0.2684280395507813
0.3291074752807617,0.2684280395507813
0.3215251922607422,0.2614076614379883
0.3272460937500000,0.2614076614379883
0.3240137100219727,0.2582777023315430
0.3240137100219727,0.2582777023315430
0.3229219436645508,0.2607536315917969
0.3229219436645508,0.2607536315917969
0.3194921493530273,0.2570125579833984
0.3210474014282226,0.2570125579833984
0.3233642578125000,0.2583492279052734
0.3233642578125000,0.2583492279052734
0.3171758651733398,0.2556501388549804
0.3171758651733398,0.2556501388549804
0.3213809967041015,0.2542573928833008
0.3213809967041015,0.2542573928833008
0.3207155227661133,0.2598587036132812
0.3207155227661133,0.2598587036132812
0.3182304382324219,0.2532251358032226
0.3182304382324219,0.2532251358032226
0.3226404190063477,0.2573747634887695
0.3226404190063477,0.2573747634887695
0.3174173355102539,0.2552038192749023
0.3174173355102539,0.2552038192749023
0.3213598251342774,0.2562126159667968
0.3213598251342774,0.2562126159667968
0.3211566925048828,0.2583801269531250
0.3211566925048828,0.2583801269531250
0.3184907913208008,0.2539495468139648
0.3200471878051758,0.2539495468139648
0.3237195968627929,0.2585575103759766
0.3237195968627929,0.2585575103759766
0.3183591842651367,0.2588390350341797
0.3183591842651367,0.2588390350341797
0.3229310989379883,0.2566486358642578
0.3229310989379883,0.2566486358642578
0.3231142044067383,0.2614522933959961
0.3231142044067383,0.2614522933959961
0.3215869903564453,0.2580265045166015
0.3215869903564453,0.2580265045166015
0.3268861770629883,0.2654382705688477
0.3230443954467773,0.2654382705688477
0.3222410202026367,0.2625234603881836
0.3222410202026367,0.2625234603881836
0.3268615722656250,0.2626934051513672
0.3268615722656250,0.2626934051513672
0.3276025772094727,0.2678020477294922
0.3276025772094727,0.2678020477294922
0.3257308959960937,0.2661638259887695
0.3277410507202148,0.2661638259887695
0.3307050704956054,0.2690139770507812
0.3307050704956054,0.2690139770507812
0.3255289077758789,0.2671823501586914
0.3255289077758789,0.2671823501586914
0.3300104141235352,0.2664905548095703
0.3300104141235352,0.2664905548095703
0.3295063018798828,0.2725639343261719
0.3295063018798828,0.2725639343261719
0.3271877288818359,0.2659790039062500
0.3271877288818359,0.2659790039062500
0.3312475204467774,0.2700679779052734
0.3312475204467774,0.2700679779052734
0.3262641906738281,0.2678009033203125
0.3262641906738281,0.2678009033203125
0.3301603317260742,0.2689527511596679
0.3301603317260742,0.2689527511596679
0.3297271728515625,0.2709743499755859
0.3297271728515625,0.2709743499755859
0.3274612426757812,0.2665037155151367
0.3286874771118164,0.2665037155151367
0.3321973800659180,0.2709709167480469
0.3321973800659180,0.2709709167480469
0.3269136428833008,0.2711288452148438
0.3269136428833008,0.2711288452148438
0.3313390731811524,0.2687438964843750
0.3313390731811524,0.2687438964843750
0.3307966232299804,0.2731332778930664
0.3307966232299804,0.2731332778930664
0.3294313430786133,0.2692405700683594
0.3294313430786133,0.2692405700683594
0.3342344284057617,0.2761968612670898
0.3342344284057617,0.2761968612670898
0.3293575286865234,0.2728042602539062
0.3293575286865234,0.2728042602539062
0.3339660644531250,0.2727075576782226
0.3339660644531250,0.2727075576782226
0.3340948104858398,0.2775650024414062
0.3359373092651367,0.2775650024414062
0.3322797775268554,0.2759576797485351
0.3341531753540039,0.2759576797485351
0.3374553680419922,0.2790464401245117
0.3374553680419922,0.2790464401245117
0.3322586059570312,0.2777074813842773
0.3322586059570312,0.2777074813842773
0.3376293182373047,0.2778905868530273
0.3376293182373047,0.2778905868530273
0.3373838424682617,0.2848628997802734
0.3397384643554687,0.2848628997802734
0.3358097076416016,0.2791723251342773
0.3372533798217773,0.2791723251342773
0.3409252166748047,0.2844240188598633
0.3409252166748047,0.2844240188598633
0.3362869262695312,0.2831073760986328
0.3362869262695312,0.2831073760986328
0.3409549713134766,0.2852914810180664
0.3409549713134766,0.2852914810180664
0.3409011840820312,0.2880043029785156
0.3428009033203125,0.2880043029785156
0.3388916015625000,0.2842912673950195
0.3403656005859375,0.2842912673950195
0.3444774627685547,0.2895229339599609
0.3444774627685547,0.2895229339599609
0.3393899917602539,0.2902118682861328
0.3466175079345703,0.2902118682861328
0.3443326950073242,0.2881811141967773
0.3443326950073242,0.2881811141967773
0.3440076828002930,0.2928514480590820
0.3440076828002930,0.2928514480590820
0.3426137924194336,0.2890708923339844
0.3426137924194336,0.2890708923339844
0.3474060058593750,0.2962303161621094
0.3474060058593750,0.2962303161621094
0.3424066543579101,0.2925853729248047
0.3424066543579101,0.2925853729248047
0.3467605590820312,0.2924812316894531
0.3467605590820312,0.2924812316894531
0.3469144821166992,0.2970880508422851
0.3469144821166992,0.2970880508422851
0.3449581146240234,0.2952816009521484
0.3466169357299805,0.2952816009521484
0.3499053955078125,0.2978799819946289
0.3499053955078125,0.2978799819946289
0.3447744369506836,0.2961296081542968
0.3447744369506836,0.2961296081542968
0.3494756698608398,0.2959138870239258
0.3494756698608398,0.2959138870239258
0.3488142013549805,0.3025022506713867
0.3488142013549805,0.3025022506713867
0.3469900131225586,0.2961421966552734
0.3469900131225586,0.2961421966552734
0.3514125823974609,0.3007793426513672
0.3514125823974609,0.3007793426513672
0.3468841552734375,0.2990982055664063
0.3468841552734375,0.2990982055664063
0.3513090133666992,0.3012107849121093
0.3513090133666992,0.3012107849121093
0.3508100509643555,0.3036254882812500
0.3508100509643555,0.3036254882812500
0.3491226196289062,0.2995559692382813
0.3491226196289062,0.2995559692382813
0.3541826248168945,0.3044912338256836
0.3541826248168945,0.3044912338256836
0.3489744186401367,0.3049455642700195
0.3489744186401367,0.3049455642700195
0.3536264419555664,0.3026899337768554
0.3536264419555664,0.3026899337768554
0.3528064727783203,0.3071971893310547
0.3528064727783203,0.3071971893310547
0.3517181396484375,0.3032066345214844
0.3517181396484375,0.3032066345214844
0.3561882019042968,0.3098768234252929
0.3521215438842774,0.3098768234252929
0.3505434036254882,0.3047945022583008
0.3505434036254882,0.3047945022583008
0.3536121368408203,0.3019020080566406
0.3536121368408203,0.3019020080566406
0.3505731582641601,0.3018699645996094
0.3505731582641601,0.3018699645996094
0.3447126388549804,0.2932371139526367
0.3435401916503906,0.2932371139526367
0.3443693161010742,0.2877628326416016
0.3443693161010742,0.2877628326416016
0.3336387634277344,0.2781623840332031
0.3336387634277344,0.2781623840332031
0.3341171264648438,0.2713085174560547
0.3341171264648438,0.2713085174560547
0.3293483734130859,0.2722269058227539
0.3293483734130859,0.2722269058227539
0.3246259689331055,0.2617395401000976
0.3246259689331055,0.2617395401000976
0.3270074844360352,0.2633279800415039
0.3270074844360352,0.2633279800415039
0.3202806472778320,0.2590192794799804
0.3202806472778320,0.2590192794799804
0.3234386444091797,0.2587652206420898
0.3234386444091797,0.2587652206420898
0.3217163085937500,0.2597059249877929
0.3217163085937500,0.2597059249877929
0.3188020706176758,0.2541950225830078
0.3194772720336914,0.2541950225830078
0.3233871459960938,0.2580425262451172
0.3188444137573242,0.2580425262451172
0.3175060272216797,0.2572757720947266
0.3175060272216797,0.2572757720947266
0.3216922760009766,0.2544118881225586
0.3216922760009766,0.2544118881225586
0.3205358505249024,0.2581426620483399
0.3205358505249024,0.2581426620483399
0.3186927795410156,0.2534980773925781
0.3186927795410156,0.2534980773925781
0.3230855941772461,0.2596778869628906
0.3230855941772461,0.2596778869628906
0.3177183151245117,0.2554481506347656
0.3177183151245117,0.2554481506347656
0.3218502044677734,0.2549268722534180
0.3218502044677734,0.2549268722534180
0.3212837219238281,0.2590393066406250
0.3212837219238281,0.2590393066406250
0.3195207595825195,0.2567378997802734
0.3208419799804688,0.2567378997802734
0.3244400024414062,0.2596269607543945
0.3244400024414062,0.2596269607543945
0.3194337844848633,0.2581443786621094
0.3262178421020508,0.2581443786621094
0.3246013641357422,0.2584190368652344
0.3246013641357422,0.2584190368652344
0.3240806579589844,0.2652677536010742
0.3240806579589844,0.2652677536010742
0.3228818893432617,0.2598432540893554
0.3228818893432617,0.2598432540893554
0.3279047012329102,0.2653083801269531
0.3279047012329102,0.2653083801269531
0.3237075805664062,0.2640752792358398
0.3237075805664062,0.2640752792358398
0.3286090850830078,0.2664453506469727
0.3286090850830078,0.2664453506469727
0.3280506134033203,0.2690500259399414
0.3280506134033203,0.2690500259399414
0.3265285491943359,0.2649707794189453
0.3274337768554688,0.2649707794189453
0.3314443588256836,0.2696989059448242
0.3314443588256836,0.2696989059448242
0.3260622024536133,0.2694454193115234
0.3260622024536133,0.2694454193115234
0.3304704666137695,0.2668333053588867
0.3304704666137695,0.2668333053588867
0.3289272308349609,0.2705623626708984
0.3308589935302734,0.2705623626708984
0.3274549484252929,0.2658891677856445
0.3274549484252929,0.2658891677856445
0.3317207336425781,0.2721994400024414
0.3317207336425781,0.2721994400024414
0.3263082504272461,0.2678266525268554
0.3263082504272461,0.2678266525268554
0.3307353973388672,0.2673213958740234
0.3307353973388672,0.2673213958740234
0.3297986984252930,0.2713251113891602
0.3297986984252930,0.2713251113891602
0.3279939651489258,0.2690151214599609
0.3291034698486328,0.2690151214599609
0.3327695846557617,0.2717359542846680
0.3327695846557617,0.2717359542846680
0.3272192001342774,0.2698453903198242
0.3272192001342774,0.2698453903198242
0.3325790405273437,0.2697950363159179
0.3325790405273437,0.2697950363159179
0.3315885543823242,0.2763193130493164
0.3315885543823242,0.2763193130493164
0.3301597595214844,0.2702465057373047
0.3301597595214844,0.2702465057373047
0.3350984573364258,0.2754564285278320
0.3350984573364258,0.2754564285278320
0.3303297042846680,0.2739349365234375
0.3303297042846680,0.2739349365234375
0.3317985534667969,0.2739269256591797
0.3317985534667969,0.2739269256591797
0.3317985534667969,0.2735555648803711
0.3363521575927734,0.2774242401123047
0.3312944412231445,0.2774242401123047
0.3334259033203125,0.2785617828369141
0.3393899917602539,0.2785617828369141
0.3360363006591797,0.2770580291748047
0.3335895538330078,0.2770580291748047
0.3391199111938477,0.2834135055541992
0.3378170013427734,0.2834135055541992
0.3340444564819336,0.2785640716552734
0.3386764526367188,0.2785640716552734
0.3406265258789062,0.2818668365478516
0.3356964111328125,0.2818668365478516
0.3369249343872070,0.2847393035888672
0.3426046371459961,0.2847393035888672
0.3397676467895508,0.2823692321777344
0.3369369506835938,0.2823692321777344
0.3412387847900391,0.2877576828002930
0.3402460098266601,0.2877576828002930
0.3382844924926758,0.2828367233276367
0.3430578231811524,0.2828367233276367
0.3440574645996093,0.2879854202270508
0.3389396667480469,0.2879854202270508
0.3405595779418945,0.2902759552001953
0.3460058212280273,0.2902759552001953
0.3418933868408203,0.2869840621948242
0.3393665313720703,0.2869840621948242
0.3453311920166016,0.2920166015625000
0.3444648742675781,0.2920166015625000
0.3415489196777344,0.2886171340942383
0.3458461761474609,0.2886171340942383
0.3473957061767578,0.2927272796630859
0.3418418884277344,0.2927272796630859
0.3421068191528320,0.2939598083496094
0.3478849411010742,0.2939598083496094
0.3454862594604492,0.2904064178466797
0.3430469512939453,0.2904064178466797
0.3479610443115234,0.2969690322875976
0.3470695495605469,0.2969690322875976
0.3443441390991211,0.2929893493652344
0.3484502792358398,0.2929893493652344
0.3484886169433594,0.2960700988769531
0.3432821273803711,0.2960700988769531
0.3453054428100586,0.2965976715087891
0.3511281967163086,0.2965976715087891
0.3477430343627930,0.2945869445800781
0.3498373031616211,0.3000932693481445
0.3449054718017578,0.2950618743896484
0.3492742538452148,0.2950618743896484
0.3511768341064453,0.2979589462280273
0.3460842132568359,0.2979589462280273
0.3470764160156250,0.3004159927368164
0.3528379440307617,0.3004159927368164
0.3498693466186523,0.2980636596679687
0.3468326568603515,0.2980636596679687
0.3510057449340820,0.3028970718383789
0.3499998092651367,0.3028970718383789
0.3479221343994141,0.2975990295410156
0.3524431228637695,0.2975990295410156
0.3535846710205078,0.3024547576904297
0.3482465744018555,0.3024547576904297
0.3496570587158203,0.3041112899780273
0.3552658081054688,0.3041112899780273
0.3509714126586914,0.3010196685791016
0.3483495712280273,0.3010196685791016
0.3541826248168945,0.3057352066040039
0.3534170150756836,0.3057352066040039
0.3500364303588867,0.3018115997314453
0.3541831970214844,0.3018115997314453
0.3553024291992187,0.3049123764038086
0.3490802764892578,0.3049123764038086
0.3483713150024414,0.3031545639038086
0.3530794143676758,0.3031545639038086
0.3492525100708008,0.2950687408447266
0.3449317932128906,0.2950687408447266
0.3479724884033203,0.2953233718872070
0.3444591522216797,0.2953233718872070
0.3392303466796875,0.2830358505249023
0.3406036376953125,0.2830358505249023
0.3383594512939453,0.2790573120117187
0.3306581497192383,0.2790573120117187
0.3303073883056640,0.2730222702026367
0.3342384338378906,0.2730222702026367
0.3290370941162109,0.2658222198486328
0.3247518539428711,0.2658222198486328
0.3287189483642578,0.2674873352050781
0.3261131286621093,0.2674873352050781
0.3211395263671875,0.2590101242065430
0.3245698928833008,0.2590101242065430
0.3257457733154297,0.2594913482666015
0.3198749542236328,0.2594913482666015
0.3202028274536133,0.2598426818847656
0.3253297805786133,0.2598426818847656
0.3218616485595703,0.2556203842163086
0.3183958053588867,0.2556203842163086
0.3222118377685547,0.2594924926757812
0.3209558486938476,0.2594924926757812
0.3183420181274414,0.2530397415161132
0.3224790573120117,0.2530397415161132
0.3232240676879883,0.2569461822509765
0.3177120208740234,0.2569461822509765
0.3187963485717774,0.2579481124877930
0.3240783691406250,0.2579481124877930
0.3198045730590820,0.2538969039916992
0.3169069290161133,0.2538969039916992
0.3225454330444336,0.2580379486083984
0.3215675354003906,0.2580379486083984
0.3182819366455078,0.2538465499877929
0.3223915100097656,0.2538465499877929
0.3237442016601562,0.2573873519897461
0.3181257247924805,0.2573873519897461
0.3181348800659179,0.2580711364746094
0.3239358901977539,0.2580711364746094
0.3213323593139648,0.2542545318603516
0.3187791824340820,0.2542545318603516
0.3236257553100586,0.2605648040771484
0.3227857589721679,0.2605648040771484
0.3200374603271484,0.2564380645751953
0.3241252899169922,0.2564380645751953
0.3245138168334961,0.2599525451660156
0.3195304870605469,0.2599525451660156
0.3214702606201172,0.2610408782958984
0.3277210235595703,0.2610408782958984
0.3246076583862305,0.2598220825195313
0.3220859527587890,0.2598220825195313
0.3276277542114258,0.2661518096923828
0.3267208099365234,0.2661518096923828
0.3230495452880859,0.2619970321655273
0.3276071548461914,0.2619970321655273
0.3249738693237305,0.2657678604125976
0.3249738693237305,0.2657678604125976
0.3260004043579102,0.2685676574707031
0.3320199966430664,0.2685676574707031
0.3292036056518555,0.2665700912475586
0.3262395858764648,0.2665700912475586
0.3304618835449218,0.2714675903320312
0.3295120239257812,0.2714675903320312
0.3272357940673828,0.2658205032348633
0.3315290451049804,0.2658205032348633
0.3325824737548828,0.2702980041503906
0.3270978927612305,0.2702980041503906
0.3282268524169922,0.2713102340698242
0.3335958480834961,0.2713102340698242
0.3292940139770508,0.2675485610961914
0.3263586044311523,0.2675485610961914
0.3319278717041015,0.2716014862060547
0.3310117721557617,0.2716014862060547
0.3276037216186523,0.2673534393310547
0.3316789627075195,0.2673534393310547
0.3330253601074218,0.2711111068725586
0.3273994445800781,0.2711111068725586
0.3272008895874023,0.2713651657104492
0.3330585479736328,0.2713651657104492
0.3305356979370117,0.2673969268798828
0.3278394699096679,0.2673969268798828
0.3326786041259766,0.2735795974731445
0.3317796707153320,0.2735795974731445
0.3288288116455078,0.2689785003662109
0.3327507019042968,0.2689785003662109
0.3331689834594727,0.2725215911865234
0.3279384613037109,0.2725215911865234
0.3295852661132813,0.2730937957763672
0.3358348846435547,0.2730937957763672
0.3324577331542969,0.2713966369628906
0.3297763824462890,0.2713966369628906
0.3351854324340820,0.2775672912597656
0.3341583251953125,0.2775672912597656
0.3301620483398438,0.2724832534790039
0.3345142364501953,0.2724832534790039
0.3368185043334961,0.2759645462036133
0.3318031311035156,0.2759645462036133
0.3327535629272461,0.2787162780761719
0.3388074874877929,0.2787162780761719
0.3359922409057617,0.2765304565429688
0.3331558227539063,0.2765304565429688
0.3374004364013672,0.2820962905883789
0.3368808746337891,0.2820962905883789
0.3346126556396484,0.2771049499511719
0.3391885757446289,0.2771049499511719
0.3404771804809570,0.2825071334838867
0.3353834152221680,0.2825071334838867
0.3367052078247070,0.2847902297973633
0.3425033569335937,0.2847902297973633
0.3385190963745117,0.2817237854003906
0.3359430313110351,0.2817237854003906
0.3419122695922852,0.2867706298828125
0.3414333343505859,0.2867706298828125
0.3383039474487304,0.2834993362426758
0.3425720214843750,0.2834993362426758
0.3442823410034180,0.2879053115844726
0.3388870239257812,0.2879053115844726
0.3388921737670899,0.2892631530761718
0.3449712753295898,0.2892631530761718
0.3426189422607422,0.2859558105468750
0.3402317047119141,0.2859558105468750
0.3451704025268554,0.2927427291870117
0.3445398330688477,0.2927427291870117
0.3418012619018554,0.2888053894042968
0.3456893920898437,0.2888053894042968
0.3409246444702148,0.2923204421997070
0.3429960250854492,0.2891487121582031
0.3427047729492188,0.2930162429809570
0.3489509582519531,0.2930162429809570
0.3457420349121094,0.2914506912231445
0.3429536819458008,0.2914506912231445
0.3482992172241211,0.2971944808959961
0.3472486495971679,0.2971944808959961
0.3431299209594726,0.2922243118286132
0.3473814010620117,0.2922243118286132
0.3495855331420898,0.2953943252563476
0.3445386886596680,0.2953943252563476
0.3452213287353516,0.2979360580444336
0.3512632369995117,0.2979360580444336
0.3484205245971679,0.2958332061767578
0.3454301834106445,0.2958332061767578
0.3493938446044922,0.3004051208496094
0.3487323760986328,0.3004051208496094
0.3463073730468750,0.2948083877563477
0.3505971908569336,0.2948083877563477
0.3518611907958984,0.2998088836669922
0.3465150833129882,0.2998088836669922
0.3475496292114258,0.3011959075927734
0.3532493591308594,0.3011959075927734
0.3490871429443359,0.2979858398437500
0.3462747573852539,0.2979858398437500
0.3520368576049804,0.3025297164916992
0.3516340255737305,0.3025297164916992
0.3481956481933594,0.2988693237304688
0.3523063659667969,0.2988693237304688
0.3540636062622070,0.3034486770629883
0.3484645843505859,0.3034486770629883
0.3483386993408203,0.3040489196777343
0.3543823242187500,0.3040489196777343
0.3521621704101562,0.3005355834960937
0.3495466232299805,0.3005355834960937
0.3544567108154297,0.3071903228759765
0.3538450241088867,0.3071903228759765
0.3508260726928711,0.3025360107421875
0.3545362472534180,0.3025360107421875
0.3550083160400391,0.3061849594116211
0.3498201370239258,0.3061849594116211
0.3513833999633789,0.3065683364868164
0.3576667785644531,0.3065683364868164
0.3542930603027344,0.3048551559448242
0.3514509201049805,0.3048551559448242
0.3567907333374024,0.3106733322143554
0.3556343078613281,0.3106733322143554
0.3511625289916992,0.3045095443725586
0.3549716949462891,0.3045095443725586
0.3566682815551758,0.3060482025146484
0.3508289337158203,0.3060482025146484
0.3504226684570312,0.3051298141479492
0.3549419403076172,0.3051298141479492
0.3504026412963867,0.2973054885864257
0.3451457977294922,0.2973054885864257
0.3469968795776367,0.2951631546020508
0.3436637878417969,0.2951631546020508
0.3384922027587891,0.2812459945678711
0.3400291442871093,0.2812459945678711
0.3389465332031250,0.2789262771606445
0.3312995910644531,0.2789262771606445
0.3302072525024414,0.2743040084838867
0.3340347290039062,0.2743040084838867
0.3283676147460937,0.2657770156860351
0.3239439010620117,0.2657770156860351
0.3284208297729492,0.2663600921630859
0.3268198013305664,0.2663600921630859
0.3225116729736328,0.2595445632934570
0.3256713867187500,0.2595445632934570
0.3266040802001953,0.2614053726196289
0.3203739166259765,0.2614053726196289
0.3197124481201172,0.2605195999145508
0.3252868652343750,0.2605195999145508
0.3223199844360352,0.2555706024169922
0.3192638397216797,0.2555706024169922
0.3237241744995117,0.2607513427734375
0.3228389739990234,0.2607513427734375
0.3195831298828125,0.2554893493652344
0.3230215072631836,0.2554893493652344
0.3233819961547851,0.2581998825073242
0.3178773880004883,0.2581998825073242
0.3192501068115234,0.2579778671264648
0.3252771377563476,0.2579778671264648
0.3218559265136718,0.2557022094726563
0.3188781738281250,0.2557022094726563
0.3238409042358398,0.2607501983642578
0.3229351043701172,0.2607501983642578
0.3186859130859375,0.2551769256591797
0.3226655960083007,0.2551769256591797
0.3246866226196289,0.2580945968627930
0.3195734024047852,0.2580945968627930
0.3200237274169922,0.2600452423095703
0.3260707855224609,0.2600452423095703
0.3231485366821289,0.2576911926269531
0.3200889587402344,0.2576911926269531
0.3242700576782226,0.2625852584838867
0.3237642288208007,0.2625852584838867
0.3243261337280273,0.2639316558837890
0.3243261337280273,0.2639316558837890
0.3235010147094726,0.2622779846191406
0.3235010147094726,0.2622779846191406
0.3287973403930664,0.2663715362548828
0.3253646850585937,0.2663715362548828
0.3241476058959961,0.2649061203002930
0.3307302474975586,0.2649061203002930
0.3300355911254882,0.2660242080688476
0.3300355911254882,0.2660242080688476
0.3287675857543945,0.2726268768310547
0.3287675857543945,0.2726268768310547
0.3279870986938476,0.2669260025024414
0.3279870986938476,0.2669260025024414
0.3328130722045898,0.2722274780273438
0.3328130722045898,0.2722274780273438
0.3279813766479492,0.2697137832641601
0.3279813766479492,0.2697137832641601
0.3326087951660156,0.2714990615844726
0.3326087951660156,0.2714990615844726
0.3306587219238281,0.2729993820190429
0.3306587219238281,0.2729993820190429
0.3288030624389648,0.2681207656860352
0.3288030624389648,0.2681207656860352
0.3334190368652344,0.2725730895996094
0.3293031692504882,0.2725730895996094
0.3279458999633789,0.2714670181274414
0.3342967987060547,0.2714670181274414
0.3323335647583008,0.2692359924316406
0.3323335647583008,0.2692359924316406
0.3302753448486328,0.2726846694946289
0.3328125000000000,0.2726846694946289
0.3290399551391601,0.2680452346801758
0.3290399551391601,0.2680452346801758
0.3333978652954102,0.2748910903930664
0.3333978652954102,0.2748910903930664
0.3283109664916992,0.2702997207641601
0.3283109664916992,0.2702997207641601
0.3327684402465820,0.2704164505004883
0.3327684402465820,0.2704164505004883
0.3316160202026367,0.2744905471801758
0.3316160202026367,0.2744905471801758
0.3304286956787109,0.2722726821899414
0.3304286956787109,0.2722726821899414
0.3352266311645508,0.2756612777709961
0.3314506530761719,0.2756612777709961
0.3303960800170898,0.2734268188476562
0.3303960800170898,0.2734268188476562
0.3355585098266601,0.2739835739135742
0.3355585098266601,0.2739835739135742
0.3339826583862305,0.2802429199218750
0.3339826583862305,0.2802429199218750
0.3331615447998047,0.2743732452392578
0.3331615447998047,0.2743732452392578
0.3376670837402344,0.2798910140991211
0.3340793609619140,0.2798910140991211
0.3334659576416015,0.2778436660766602
0.3334659576416015,0.2778436660766602
0.3383359909057617,0.2805856704711914
0.3383359909057617,0.2805856704711914
0.3370691299438476,0.2829179763793945
0.3398151397705078,0.2829179763793945
0.3360860824584961,0.2790933609008789
0.3360860824584961,0.2790933609008789
0.3411174774169922,0.2845848083496094
0.3375303268432617,0.2845848083496094
0.3363018035888672,0.2845607757568359
0.3430343627929687,0.2845607757568359
0.3414470672607422,0.2830678939819336
0.3414470672607422,0.2830678939819336
0.3396543502807617,0.2873079299926758
0.3396543502807617,0.2873079299926758
0.3391908645629882,0.2834695816040039
0.3391908645629882,0.2834695816040039
0.3438840866088867,0.2909717559814453
0.3406883239746094,0.2909717559814453
0.3392566680908203,0.2868209838867187
0.3392566680908203,0.2868209838867187
0.3440952301025391,0.2873960494995117
0.3440952301025391,0.2873960494995117
0.3428615570068359,0.2915817260742187
0.3456281661987304,0.2915817260742187
0.3417600631713867,0.2896699905395508
0.3417600631713867,0.2896699905395508
0.3464773178100586,0.2928892135620117
0.3429302215576172,0.2928892135620117
0.3414178848266601,0.2906209945678711
0.3414178848266601,0.2906209945678711
0.3467365264892578,0.2910593032836914
0.3467365264892578,0.2910593032836914
0.3449438095092773,0.2971092224121094
0.3449438095092773,0.2971092224121094
0.3439235687255859,0.2908298492431641
0.3439235687255859,0.2908298492431641
0.3484914779663086,0.2959739685058594
0.3484914779663086,0.2959739685058594
0.3437152862548828,0.2933469772338867
0.3437152862548828,0.2933469772338867
0.3484308242797852,0.2957754135131836
0.3484308242797852,0.2957754135131836
0.3466489791870117,0.2976339340209961
0.3493251800537109,0.2976339340209961
0.3451898574829101,0.2933206558227539
0.3451898574829101,0.2933206558227539
0.3502012252807617,0.2984916687011719
0.3463972091674805,0.2984916687011719
0.3451028823852539,0.2979108810424805
0.3451028823852539,0.2979108810424805
0.3500404357910156,0.2963659286499024
0.3500404357910156,0.2963659286499024
0.3481452941894531,0.3001819610595703
0.3481452941894531,0.3001819610595703
0.3472520828247070,0.2958921432495117
0.3472520828247070,0.2958921432495117
0.3516580581665039,0.3031185150146484
0.3483793258666992,0.3031185150146484
0.3467891693115234,0.2984962463378906
0.3467891693115234,0.2984962463378906
0.3513862609863281,0.2990289688110351
0.3513862609863281,0.2990289688110351
0.3501194000244141,0.3030241012573242
0.3501194000244141,0.3030241012573242
0.3489212036132812,0.3007015228271484
0.3489212036132812,0.3007015228271484
0.3532127380371093,0.3033370971679688
0.3532127380371093,0.3033370971679688
0.3473682403564453,0.2988046646118164
0.3473682403564453,0.2988046646118164
0.3504581451416016,0.2958658218383789
0.3504581451416016,0.2958658218383789
0.3451492309570313,0.2963104248046875
0.3451492309570313,0.2963104248046875
0.3397974014282226,0.2832813262939453
0.3397974014282226,0.2832813262939453
0.3393968582153320,0.2817209243774414
0.3393968582153320,0.2817209243774414
0.3306947708129883,0.2727476119995117
0.3306947708129883,0.2727476119995117
0.3317567825317383,0.2700050354003906
0.3317567825317383,0.2700050354003906
0.3270584106445312,0.2678861618041992
0.3270584106445312,0.2678861618041992
0.3236572265625000,0.2603542327880859
0.3236572265625000,0.2603542327880859
0.3266572952270508,0.2631803512573242
0.3223045349121094,0.2631803512573242
0.3203287124633789,0.2603633880615234
0.3261125564575195,0.2603633880615234
0.3240972518920898,0.2574497222900390
0.3240972518920898,0.2574497222900390
0.3210662841796875,0.2599977493286132
0.3210662841796875,0.2599977493286132
0.3198291778564453,0.2547334671020507
0.3198291778564453,0.2547334671020507
0.3237316131591797,0.2610277175903320
0.3237316131591797,0.2610277175903320
0.3184204101562500,0.2558275222778320
0.3184204101562500,0.2558275222778320
0.3228515625000000,0.2556993484497070
0.3173944473266602,0.2556993484497070
0.3208808898925781,0.2591125488281250
0.3235525131225586,0.2591125488281250
0.3194772720336914,0.2562366485595703
0.3194772720336914,0.2562366485595703
0.3237476348876953,0.2592870712280274
0.3237476348876953,0.2592870712280274
0.3184106826782226,0.2561759948730469
0.3184106826782226,0.2561759948730469
0.3235668182373047,0.2565410614013672
0.3235668182373047,0.2565410614013672
0.3215520858764648,0.2620611190795898
0.3215520858764648,0.2620611190795898
0.3206977844238281,0.2561759948730469
0.3206977844238281,0.2561759948730469
0.3252536773681641,0.2616743087768554
0.3218524932861328,0.2616743087768554
0.3209581375122070,0.2593219757080078
0.3209581375122070,0.2593219757080078
0.3260049819946289,0.2622797012329102
0.3260049819946289,0.2622797012329102
0.3246311187744140,0.2647396087646484
0.3246311187744140,0.2647396087646484
0.3236738204956054,0.2610254287719727
0.3236738204956054,0.2610254287719727
0.3290159225463867,0.2667537689208984
0.3290159225463867,0.2667537689208984
0.3243095397949219,0.2661855697631836
0.3307840347290039,0.2661855697631836
0.3292350769042969,0.2649461746215820
0.3292350769042969,0.2649461746215820
0.3272701263427734,0.2685144424438476
0.3272701263427734,0.2685144424438476
0.3262859344482422,0.2639396667480469
0.3262859344482422,0.2639396667480469
0.3303234100341797,0.2707357406616211
0.3269502639770508,0.2707357406616211
0.3251913070678711,0.2654514312744141
0.3251913070678711,0.2654514312744141
0.3293237686157227,0.2654165267944336
0.3293237686157227,0.2654165267944336
0.3275035858154297,0.2686208724975586
0.3275035858154297,0.2686208724975586
0.3260450363159180,0.2658382415771484
0.3260450363159180,0.2658382415771484
0.3302215576171875,0.2687507629394531
0.3264862060546875,0.2687507629394531
0.3251804351806640,0.2655578613281250
0.3251804351806640,0.2655578613281250
0.3298799514770508,0.2658834457397461
0.3298799514770508,0.2658834457397461
0.3277896881103515,0.2712295532226562
0.3277896881103515,0.2712295532226562
0.3268552780151367,0.2650434494018555
0.3268552780151367,0.2650434494018555
0.3309608459472656,0.2703151702880859
0.3309608459472656,0.2703151702880859
0.3266229629516602,0.2674901962280273
0.3325395584106445,0.2674901962280273
0.3313282012939453,0.2700874328613281
0.3313282012939453,0.2700874328613281
0.3296642303466797,0.2720769882202148
0.3296642303466797,0.2720769882202148
0.3287275314331055,0.2680360794067383
0.3287275314331055,0.2680360794067383
0.3334316253662109,0.2735692977905274
0.3334316253662109,0.2735692977905274
0.3288614273071289,0.2728889465332031
0.3353010177612304,0.2728889465332031
0.3337835311889648,0.2718698501586914
0.3287607192993164,0.2718698501586914
0.3318368911743164,0.2758884429931641
0.3318368911743164,0.2758884429931641
0.3315141677856445,0.2720666885375976
0.3315141677856445,0.2720666885375976
0.3360088348388672,0.2795202255249024
0.3360088348388672,0.2795202255249024
0.3315822601318359,0.2750879287719726
0.3315822601318359,0.2750879287719726
0.3364894866943359,0.2760091781616211
0.3364894866943359,0.2760091781616211
0.3350011825561524,0.2800266265869141
0.3350011825561524,0.2800266265869141
0.3341760635375977,0.2781229019165039
0.3341760635375977,0.2781229019165039
0.3388383865356445,0.2817792892456055
0.3388383865356445,0.2817792892456055
0.3339992523193359,0.2791866302490234
0.3339992523193359,0.2791866302490234
0.3393779754638672,0.2801776885986328
0.3393779754638672,0.2801776885986328
0.3375646591186524,0.2861360549926757
0.3408817291259765,0.2861360549926757
0.3368013381958008,0.2802423477172851
0.3368013381958008,0.2802423477172851
0.3413085937500000,0.2856319427490234
0.3377878189086914,0.2856319427490234
0.3370433807373047,0.2829826354980469
0.3370433807373047,0.2829826354980469
0.3416576385498047,0.2858860015869141
0.3416576385498047,0.2858860015869141
0.3400308609008789,0.2876781463623047
0.3400308609008789,0.2876781463623047
0.3388486862182617,0.2836246490478516
0.3388486862182617,0.2836246490478516
0.3437187194824219,0.2889684677124023
0.3437187194824219,0.2889684677124023
0.3390529632568359,0.2881902694702148
0.3390529632568359,0.2881902694702148
0.3437994003295898,0.2869714736938476
0.3437994003295898,0.2869714736938476
0.3418928146362304,0.2905420303344726
0.3418928146362304,0.2905420303344726
0.3410900115966797,0.2863964080810547
0.3410900115966797,0.2863964080810547
0.3453563690185547,0.2935792922973633
0.3421285629272461,0.2935792922973633
0.3407741546630859,0.2886537551879882
0.3407741546630859,0.2886537551879882
0.3450113296508789,0.2893306732177734
0.3450113296508789,0.2893306732177734
0.3435316085815430,0.2928462982177734
0.3435316085815430,0.2928462982177734
0.3425119400024414,0.2908252716064453
0.3425119400024414,0.2908252716064453
0.3469064712524414,0.2941772460937500
0.3433822631835937,0.2941772460937500
0.3423517227172851,0.2913356781005859
0.3423517227172851,0.2913356781005859
0.3471954345703125,0.2921836853027344
0.3471954345703125,0.2921836853027344
0.3452613830566406,0.2979022979736328
0.3452613830566406,0.2979022979736328
0.3444437026977539,0.2918684005737305
0.3444437026977539,0.2918684005737305
0.3485338211059570,0.2972814559936524
0.3485338211059570,0.2972814559936524
0.3445816040039062,0.2945022583007812
0.3445816040039062,0.2945022583007812
0.3455194473266601,0.2944067001342773
0.3489538192749023,0.2944067001342773
0.3495775222778320,0.2981277465820312
0.3443069458007812,0.2981277465820312
0.3455869674682617,0.2972328186035156
0.3516208648681641,0.2972328186035156
0.3480033874511719,0.2947746276855469
0.3444814682006836,0.2947746276855469
0.3483095169067383,0.2969902038574219
0.3462604522705078,0.2969902038574219
0.3405693054199219,0.2867626190185547
0.3423059463500976,0.2867626190185547
0.3425313949584961,0.2837945938110352
0.3351322174072265,0.2837945938110352
0.3334316253662109,0.2789794921875000
0.3373924255371094,0.2789794921875000
0.3327215194702148,0.2712404251098633
0.3277507781982422,0.2712404251098633
0.3296464920043945,0.2704948425292968
0.3277244567871094,0.2704948425292968
0.3238546371459961,0.2603988647460938
0.3265262603759765,0.2603988647460938
0.3269182205200195,0.2627145767211914
0.3206142425537109,0.2627145767211914
0.3207304000854492,0.2608125686645508
0.3257938385009765,0.2608125686645508
0.3212774276733398,0.2560947418212891
0.3178579330444336,0.2560947418212891
0.3224824905395507,0.2584751129150391
0.3217512130737304,0.2584751129150391
0.3179191589355468,0.2532051086425781
0.3212785720825195,0.2532051086425781
0.3226673126220703,0.2568975448608398
0.3167901992797851,0.2568975448608398
0.3162586212158203,0.2558115005493164
0.3221208572387695,0.2558115005493164
0.3195636749267578,0.2517036437988281
0.3167312622070312,0.2517036437988281
0.3207767486572266,0.2571653366088867
0.3202096939086914,0.2571653366088867
0.3171272277832031,0.2516109466552734
0.3202932357788086,0.2516109466552734
0.3208688735961914,0.2551300048828125
0.3154615402221679,0.2551300048828125
0.3166036605834961,0.2540948867797851
0.3227222442626953,0.2540948867797851
0.3194246292114258,0.2525814056396484
0.3165452957153320,0.2525814056396484
0.3210897445678711,0.2577072143554687
0.3204528808593750,0.2577072143554687
0.3163015365600586,0.2517980575561523
0.3199184417724609,0.2517980575561523
0.3221460342407226,0.2550767898559570
0.3170385360717773,0.2550767898559570
0.3175872802734375,0.2566703796386718
0.3237888336181641,0.2566703796386718
0.3211538314819336,0.2547723770141602
0.3181571960449219,0.2547723770141602
0.3218130111694336,0.2598175048828125
0.3218084335327148,0.2598175048828125
0.3194189071655273,0.2543346405029297
0.3234495162963867,0.2543346405029297
0.3249681472778320,0.2604017257690430
0.3200386047363281,0.2604017257690430
0.3210571289062500,0.2618373870849609
0.3270675659179688,0.2618373870849609
0.3234283447265625,0.2594964981079101
0.3208150863647461,0.2594964981079101
0.3261274337768554,0.2639162063598633
0.3260679244995117,0.2639162063598633
0.3228446960449219,0.2602821350097656
0.3265222549438476,0.2602821350097656
0.3283452987670898,0.2648197174072265
0.3227863311767578,0.2648197174072265
0.3224584579467774,0.2647727966308593
0.3284837722778320,0.2647727966308593
0.3260753631591797,0.2613052368164062
0.3233413696289062,0.2613052368164062
0.3273456573486328,0.2669946670532227
0.3269021987915039,0.2669946670532227
0.3239152908325195,0.2620319366455078
0.3269330978393555,0.2620319366455078
0.3274858474731445,0.2653598785400391
0.3221654891967773,0.2653598785400391
0.3233196258544922,0.2643791198730469
0.3294221878051758,0.2643791198730469
0.3261646270751953,0.2633308410644531
0.3234420776367187,0.2633308410644531
0.3280963897705078,0.2684732437133789
0.3275522232055664,0.2684732437133789
0.3235061645507812,0.2632953643798828
0.3272317886352539,0.2632953643798828
0.3295818328857422,0.2667205810546875
0.3246706008911133,0.2667205810546875
0.3251180648803711,0.2683937072753906
0.3312417984008789,0.2683937072753906
0.3285913467407227,0.2669986724853515
0.3257749557495117,0.2669986724853515
0.3291400909423828,0.2715110778808594
0.3289192199707031,0.2715110778808594
0.3267379760742187,0.2657381057739258
0.3305562973022461,0.2657381057739258
0.3320474624633789,0.2716346740722656
0.3270401000976562,0.2716346740722656
0.3337909698486328,0.2724391937255859
0.3337909698486328,0.2724391937255859
0.3300893783569336,0.2703786849975586
0.3276123046875000,0.2703786849975586
0.3327404022216797,0.2745483398437500
0.3326665878295899,0.2745483398437500
0.3295549392700195,0.2713153839111328
0.3332925796508789,0.2713153839111328
0.3351099014282227,0.2764497756958008
0.3299858093261719,0.2764497756958008
0.3298210144042968,0.2765201568603515
0.3358892440795898,0.2765201568603515
0.3337949752807617,0.2736001968383789
0.3315479278564453,0.2736001968383789
0.3357124328613281,0.2799528121948242
0.3353490829467773,0.2799528121948242
0.3326019287109375,0.2756195068359375
0.3360237121582031,0.2756195068359375
0.3367921829223633,0.2798990249633789
0.3318431854248047,0.2798990249633789
0.3332399368286132,0.2793548583984375
0.3394014358520508,0.2793548583984375
0.3364030838012695,0.2788261413574218
0.3339923858642578,0.2788261413574218
0.3383405685424805,0.2844045639038086
0.3378765106201172,0.2844045639038086
0.3341136932373047,0.2792884826660156
0.3377872467041015,0.2792884826660156
0.3400102615356445,0.2825672149658203
0.3351968765258789,0.2825672149658203
0.3358909606933594,0.2844875335693359
0.3418333053588867,0.2844875335693359
0.3391170501708984,0.2827692031860352
0.3364700317382812,0.2827692031860352
0.3398563385009766,0.2875951766967773
0.3394752502441406,0.2875951766967773
0.3373403549194336,0.2819126129150391
0.3412107467651367,0.2819126129150391
0.3425394058227539,0.2876146316528320
0.3375257492065429,0.2876146316528320
0.3384487152099609,0.2885965347290039
0.3441827774047851,0.2885965347290039
0.3403799057006836,0.2861223220825195
0.3380207061767578,0.2861223220825195
0.3430423736572266,0.2901575088500977
0.3428815841674804,0.2901575088500977
0.3398643493652344,0.2868650436401367
0.3434715270996094,0.2868650436401367
0.3450811386108398,0.2914844512939453
0.3399936676025391,0.2914844512939453
0.3397750854492188,0.2916675567626953
0.3457620620727539,0.2916675567626953
0.3435407638549804,0.2885129928588867
0.3411775588989258,0.2885129928588867
0.3452533721923828,0.2948804855346679
0.3450027465820312,0.2948804855346679
0.3421617507934570,0.2907022476196289
0.3454822540283203,0.2907022476196289
0.3461677551269531,0.2944765090942383
0.3412416458129883,0.2944765090942383
0.3425319671630859,0.2935272216796875
0.3486900329589844,0.2935272216796875
0.3457145690917969,0.2929733276367187
0.3429719924926758,0.2929733276367187
0.3475130081176758,0.2981912612915039
0.3471004486083984,0.2981912612915039
0.3431865692138672,0.2932645797729492
0.3467805862426758,0.2932645797729492
0.3491506576538086,0.2966989517211914
0.3443229675292969,0.2966989517211914
0.3447561264038086,0.2982130050659180
0.3508478164672851,0.2982130050659180
0.3480794906616211,0.2969518661499023
0.3452596664428711,0.2969518661499023
0.3486351013183593,0.3014436721801758
0.3484897613525391,0.3014436721801758
0.3462261199951172,0.2955568313598633
0.3499008178710937,0.2955568313598633
0.3514766693115234,0.3015180587768554
0.3464200973510742,0.3015180587768554
0.3470941543579101,0.3017452239990234
0.3528894424438476,0.3017452239990234
0.3489864349365234,0.2994037628173828
0.3461534500122070,0.2994037628173828
0.3507459640502930,0.3019609451293945
0.3500690460205078,0.3019609451293945
0.3460819244384766,0.2959568023681641
0.3483249664306641,0.2959568023681641
0.3485738754272461,0.2963327407836914
0.3415426254272461,0.2963327407836914
0.3391759872436523,0.2894817352294922
0.3429084777832031,0.2894817352294922
0.3384721755981445,0.2792919158935547
0.3335083007812500,0.2792919158935547
0.3354389190673828,0.2790103912353515
0.3330556869506836,0.2790103912353515
0.3282812118530273,0.2688205718994141
0.3299200057983399,0.2688205718994141
0.3291687011718750,0.2685728073120117
0.3228567123413086,0.2685728073120117
0.3229551315307617,0.2635791778564453
0.3280643463134765,0.2635791778564453
0.3240303039550781,0.2601991653442383
0.3204872131347656,0.2601991653442383
0.3240703582763672,0.2633405685424804
0.3230581283569336,0.2633405685424804
0.3184707641601562,0.2562034606933594
0.3214782714843750,0.2562034606933594
0.3234266281127929,0.2579647064208984
0.3180913925170898,0.2579647064208984
0.3181531906127930,0.2580013275146484
0.3237648010253906,0.2580013275146484
0.3206377029418945,0.2553937911987305
0.3175266265869141,0.2553937911987305
0.3206537246704101,0.2592338562011718
0.3202257156372070,0.2592338562011718
0.3176347732543945,0.2523874282836914
0.3210691452026367,0.2523874282836914
0.3223228454589844,0.2575704574584961
0.3172107696533203,0.2575704574584961
0.3175689697265625,0.2574377059936523
0.3233900070190430,0.2574377059936523
0.3194858551025391,0.2561468124389648
0.3188592910766602,0.2561468124389648
0.3256565093994140,0.2617372512817382
0.3247850418090820,0.2617372512817382
0.3188684463500976,0.2540187835693359
0.3200672149658203,0.2540187835693359
0.3243490219116211,0.2596235275268555
0.3189840316772461,0.2596235275268555
0.3167078018188477,0.2575979232788086
0.3239330291748047,0.2575979232788086
0.3220167160034180,0.2547357559204101
0.3175575256347656,0.2547357559204101
0.3227874755859375,0.2621183395385742
0.3247592926025391,0.2621183395385742
0.3195087432861328,0.2564140319824219
0.3216264724731445,0.2564140319824219
0.3253675460815429,0.2626802444458008
0.3206159591674805,0.2626802444458008
0.3202537536621093,0.2604234695434570
0.3279041290283203,0.2604234695434570
0.3253137588500977,0.2608531951904297
0.3208190917968750,0.2608531951904297
0.3263895034790039,0.2673156738281250
0.3281799316406250,0.2673156738281250
0.3220430374145508,0.2609361648559570
0.3242460250854492,0.2609361648559570
0.3294931411743164,0.2662033081054687
0.3246957778930664,0.2662033081054687
0.3232423782348633,0.2659830093383789
0.3304979324340820,0.2659830093383789
0.3279132843017578,0.2647865295410156
0.3229957580566406,0.2647865295410156
0.3273513793945312,0.2698053359985351
0.3290931701660156,0.2698053359985351
0.3243141174316406,0.2614253997802734
0.3262933731079101,0.2614253997802734
0.3305002212524414,0.2687519073486328
0.3252719879150390,0.2687519073486328
0.3237905502319336,0.2667549133300781
0.3308012008666992,0.2667549133300781
0.3271688461303711,0.2645971298217774
0.3222444534301758,0.2645971298217774
0.3283063888549805,0.2686918258666992
0.3301603317260742,0.2686918258666992
0.3244800567626953,0.2631031036376953
0.3263923645019531,0.2631031036376953
0.3308469772338867,0.2698368072509765
0.3257022857666015,0.2698368072509765
0.3233190536499023,0.2674255371093750
0.3305992126464843,0.2674255371093750
0.3287899017333984,0.2645788192749023
0.3241739273071289,0.2645788192749023
0.3295143127441406,0.2717216491699219
0.3312698364257812,0.2717216491699219
0.3259237289428711,0.2653924942016602
0.3278720855712891,0.2653924942016602
0.3315290451049804,0.2717828750610352
0.3267219543457031,0.2717828750610352
0.3261320114135742,0.2689441680908203
0.3337045669555664,0.2689441680908203
0.3310266494750976,0.2693063735961914
0.3264667510986328,0.2693063735961914
0.3318969726562500,0.2759250640869140
0.3337469100952148,0.2759250640869140
0.3275974273681641,0.2692171096801758
0.3297277450561523,0.2692171096801758
0.3352174758911133,0.2746541976928711
0.3305156707763672,0.2746541976928711
0.3291709899902344,0.2747165679931641
0.3365587234497070,0.2747165679931641
0.3341051101684570,0.2739126205444336
0.3293409347534180,0.2739126205444336
0.3338338851928711,0.2798595428466797
0.3359218597412109,0.2798595428466797
0.3314586639404297,0.2723968505859375
0.3336690902709961,0.2723968505859375
0.3333457946777343,0.2806022644042969
0.3338235855102539,0.2806022644042969
0.3321052551269531,0.2796392440795898
0.3393705368041992,0.2796392440795898
0.3359476089477539,0.2781503677368164
0.3313911437988281,0.2781503677368164
0.3376413345336914,0.2827154159545898
0.3396886825561523,0.2827154159545898
0.3343654632568359,0.2779912948608398
0.3362382888793945,0.2779912948608398
0.3409412384033203,0.2848445892333984
0.3360523223876953,0.2848445892333984
0.3338876724243164,0.2831079483032227
0.3411735534667968,0.2831079483032227
0.3394786834716797,0.2807310104370117
0.3350263595581054,0.2807310104370117
0.3401973724365234,0.2882034301757813
0.3421989440917969,0.2882034301757813
0.3370342254638672,0.2826604843139648
0.3388681411743164,0.2826604843139648
0.3426515579223633,0.2886989593505859
0.3378770828247070,0.2886989593505859
0.3373872756958008,0.2857326507568359
0.3448316574096680,0.2857326507568359
0.3423522949218750,0.2863580703735352
0.3376459121704101,0.2863580703735352
0.3430257797241211,0.2925378799438477
0.3448843002319336,0.2925378799438477
0.3388332366943359,0.2862482070922852
0.3408216476440429,0.2862482070922852
0.3462541580200195,0.2915113449096680
0.3415826797485351,0.2915113449096680
0.3401206970214843,0.2914020538330078
0.3474140167236328,0.2914020538330078
0.3449850082397461,0.2910175323486328
0.3402065277099609,0.2910175323486328
0.3446531295776367,0.2963659286499024
0.3466466903686523,0.2963659286499024
0.3422321319580078,0.2885673522949219
0.3442668914794922,0.2885673522949219
0.3486785888671875,0.2966812133789062
0.3437850952148437,0.2966812133789062
0.3425130844116211,0.2949720382690429
0.3496330261230469,0.2949720382690429
0.3462129592895508,0.2937400817871094
0.3415437698364258,0.2937400817871094
0.3476846694946289,0.2982238769531250
0.3497726440429688,0.2982238769531250
0.3444402694702148,0.2935455322265625
0.3462896347045898,0.2935455322265625
0.3510658264160156,0.3008159637451172
0.3462661743164062,0.3008159637451172
0.3438611984252929,0.2986553192138672
0.3512157440185547,0.2986553192138672
0.3496570587158203,0.2962989807128906
0.3451395034790039,0.2962989807128906
0.3504055023193359,0.3038743972778320
0.3522611618041992,0.3038743972778320
0.3471570968627929,0.2978233337402343
0.3489194869995117,0.2978233337402343
0.3525781631469727,0.3042840957641602
0.3477773666381836,0.3042840957641602
0.3471960067749023,0.3010471343994141
0.3546581268310547,0.3010471343994141
0.3521100997924805,0.3017309188842773
0.3474660873413086,0.3017309188842773
0.3526021957397461,0.3080177307128906
0.3543806076049805,0.3080177307128906
0.3481847763061524,0.3007198333740234
0.3497640609741211,0.3007198333740234
0.3538581848144531,0.3034463882446289
0.3482242584228515,0.3034463882446289
0.3473968505859375,0.3011129379272461
0.3521650314331055,0.3011129379272461
0.3475959777832031,0.2944753646850586
0.3421743392944336,0.2944753646850586
0.3432323455810547,0.2917877197265625
0.3406036376953125,0.2917877197265625
0.3356826782226562,0.2777189254760742
0.3363361358642578,0.2777189254760742
0.3357490539550781,0.2767456054687500
0.3285661697387695,0.2767456054687500
0.3271905899047852,0.2707300186157227
0.3313768386840820,0.2707300186157227
0.3261085510253906,0.2641181945800781
0.3217277526855469,0.2641181945800781
0.3256702423095703,0.2639579772949219
0.3247426986694336,0.2639579772949219
0.3206611633300781,0.2580087661743164
0.3228675842285156,0.2580087661743164
0.3242603302001953,0.2606237411499023
0.3185222625732422,0.2606237411499023
0.3175552368164062,0.2579498291015625
0.3232315063476562,0.2579498291015625
0.3205884933471679,0.2538076400756836
0.3173131942749023,0.2538076400756836
0.3211309432983399,0.2589969635009766
0.3208139419555664,0.2589969635009766
0.3174287796020508,0.2538253784179688
0.3201976776123047,0.2538253784179688
0.3210577011108398,0.2571716308593750
0.3158037185668945,0.2571716308593750
0.3168697357177734,0.2542562484741211
0.3228790283203125,0.2542562484741211
0.3197490692138672,0.2537429809570312
0.3164714813232422,0.2537429809570312
0.3207218170166016,0.2582851409912109
0.3205564498901367,0.2582851409912109
0.3163633346557617,0.2529865264892578
0.3194063186645508,0.2529865264892578
0.3219972610473633,0.2559494018554687
0.3170780181884765,0.2559494018554687
0.3172651290893554,0.2562709808349609
0.3233654022216797,0.2562709808349609
0.3205450057983398,0.2554292678833008
0.3174093246459961,0.2554292678833008
0.3207950592041016,0.2596521377563477
0.3209381103515625,0.2596521377563477
0.3186635971069336,0.2537298202514648
0.3219978332519531,0.2537298202514648
0.3240159988403320,0.2602832794189453
0.3191551208496093,0.2602832794189453
0.3197599411010742,0.2600852966308594
0.3260787963867187,0.2600852966308594
0.3224824905395507,0.2592538833618164
0.3197587966918945,0.2592538833618164
0.3250419616699219,0.2634372711181641
0.3255815505981445,0.2634372711181641
0.3225311279296875,0.2608234405517578
0.3257474899291992,0.2608234405517578
0.3279458999633789,0.2666421890258789
0.3229866027832031,0.2666421890258789
0.3226696014404297,0.2654777526855469
0.3289918899536133,0.2654777526855469
0.3268918991088867,0.2629039764404297
0.3239530563354492,0.2629039764404297
0.3282680511474609,0.2691404342651367
0.3282165527343750,0.2691404342651367
0.3249778747558594,0.2643527984619141
0.3277599334716797,0.2643527984619141
0.3287916183471680,0.2683776855468750
0.3236291885375976,0.2683776855468750
0.3245721817016601,0.2653930664062500
0.3307050704956054,0.2653930664062500
0.3275012969970703,0.2650405883789063
0.3242151260375977,0.2650405883789063
0.3283344268798828,0.2698482513427734
0.3281101226806640,0.2698482513427734
0.3239971160888672,0.2639791488647461
0.3268049240112305,0.2639791488647461
0.3294347763061523,0.2667720794677734
0.3244159698486328,0.2667720794677734
0.3246116638183594,0.2668573379516602
0.3306358337402344,0.2668573379516602
0.3277427673339844,0.2655189514160156
0.3244216918945312,0.2655189514160156
0.3278514862060547,0.2699604034423828
0.3279275894165039,0.2699604034423828
0.3254968643188477,0.2637388229370117
0.3285690307617187,0.2637388229370117
0.3305156707763672,0.2699335098266601
0.3255580902099609,0.2699335098266601
0.3259792327880859,0.2695695877075195
0.3321361541748047,0.2695695877075195
0.3285827636718750,0.2678850173950195
0.3254350662231445,0.2678850173950195
0.3305929183959961,0.2714349746704102
0.3310306549072266,0.2714349746704102
0.3277976989746094,0.2684652328491211
0.3306564331054687,0.2684652328491211
0.3330001831054688,0.2737564086914062
0.3281267166137695,0.2737564086914062
0.3273674011230469,0.2727195739746094
0.3338808059692382,0.2727195739746094
0.3293375015258789,0.2705400466918945
0.3331655502319336,0.2772937774658203
0.3342590332031250,0.2772937774658203
0.3306810379028320,0.2730428695678711
0.3327987670898437,0.2730428695678711
0.3351882934570312,0.2782424926757812
0.3306072235107422,0.2782424926757812
0.3309093475341797,0.2753328323364257
0.3376298904418945,0.2753328323364257
0.3355401992797851,0.2764434814453125
0.3314752578735352,0.2764434814453125
0.3359859466552734,0.2819583892822266
0.3376630783081054,0.2819583892822266
0.3325006484985352,0.2763107299804687
0.3339380264282226,0.2763107299804687
0.3391050338745117,0.2813982009887695
0.3349771499633789,0.2813982009887695
0.3331729888916016,0.2807727813720703
0.3399856567382812,0.2807727813720703
0.3383989334106445,0.2810331344604492
0.3337869644165039,0.2810331344604492
0.3375795364379883,0.2857109069824219
0.3395233154296875,0.2857109069824219
0.3357610702514648,0.2785675048828125
0.3373443603515625,0.2785675048828125
0.3414693832397461,0.2865657806396484
0.3371532440185547,0.2865657806396484
0.3358360290527344,0.2844154357910156
0.3419775009155273,0.2844154357910156
0.3394351959228515,0.2839399337768554
0.3356643676757812,0.2839399337768554
0.3404233932495117,0.2870487213134765
0.3415758132934570,0.2870487213134765
0.3380876541137695,0.2842100143432617
0.3406677246093750,0.2842100143432617
0.3431076049804687,0.2896682739257813
0.3381311416625977,0.2896682739257813
0.3370353698730469,0.2876140594482422
0.3433078765869140,0.2876140594482422
0.3422950744628906,0.2855495452880859
0.3386260986328125,0.2855495452880859
0.3425806045532226,0.2918958663940430
0.3440105438232422,0.2918958663940430
0.3400732040405273,0.2867008209228515
0.3413995742797851,0.2867008209228515
0.3445713043212891,0.2926734924316406
0.3403621673583984,0.2926734924316406
0.3396343231201172,0.2887441635131836
0.3460023880004883,0.2887441635131836
0.3443372726440430,0.2902238845825195
0.3405303955078125,0.2902238845825195
0.3444774627685547,0.2955156326293945
0.3460968017578125,0.2955156326293945
0.3410207748413086,0.2893741607666016
0.3420576095581054,0.2893741607666016
0.3474678039550781,0.2941486358642578
0.3432437896728516,0.2941486358642578
0.3412090301513672,0.2931781768798828
0.3482299804687500,0.2931781768798828
0.3464607238769531,0.2928153991699219
0.3414516448974609,0.2928153991699219
0.3454210281372070,0.2979967117309570
0.3476354598999024,0.2979967117309570
0.3435132980346680,0.2905471801757812
0.3447080612182617,0.2905471801757812
0.3493532180786132,0.2987646102905273
0.3450387954711914,0.2987646102905273
0.3432964324951172,0.2968734741210937
0.3499563217163086,0.2968734741210937
0.3475421905517578,0.2962291717529297
0.3432563781738281,0.2962291717529297
0.3483100891113281,0.2994792938232422
0.3501920700073242,0.2994792938232422
0.3461208343505859,0.2960180282592773
0.3473430633544922,0.2960180282592773
0.3514469146728516,0.3023483276367188
0.3472549438476563,0.3023483276367188
0.3447011947631836,0.2997825622558594
0.3512952804565430,0.2997825622558594
0.3507202148437500,0.2980957031250000
0.3464292526245117,0.2980957031250000
0.3506710052490234,0.3048974990844727
0.3527732849121094,0.3048974990844727
0.3482923507690430,0.2998346328735351
0.3493806838989258,0.2998346328735351
0.3522909164428711,0.3046794891357422
0.3477481842041015,0.3046794891357422
0.3461128234863281,0.2982873916625977
0.3517827987670898,0.2982873916625977
0.3489881515502929,0.2958612442016602
0.3426755905151367,0.2958612442016602
0.3450405120849609,0.2945846557617187
0.3446714401245117,0.2945846557617187
0.3365518569946289,0.2811407089233398
0.3349966049194336,0.2811407089233398
0.3381179809570312,0.2787809371948242
0.3315130233764648,0.2787809371948242
0.3273765563964844,0.2713857650756836
0.3323690414428711,0.2713857650756836
0.3290571212768554,0.2663749694824218
0.3226049423217773,0.2663749694824218
0.3251541137695312,0.2669219970703125
0.3262470245361328,0.2669219970703125
0.3209947586059570,0.2564815521240234
0.3212041854858398,0.2564815521240234
0.3252840042114258,0.2621692657470703
0.3199705123901367,0.2621692657470703
0.3175426483154297,0.2576625823974609
0.3239072799682617,0.2576625823974609
0.3208780288696289,0.2555980682373047
0.3155931472778320,0.2555980682373047
0.3206434249877930,0.2580574035644531
0.3227411270141601,0.2580574035644531
0.3172794342041015,0.2528245925903320
0.3179775238037109,0.2528245925903320
0.3227485656738281,0.2589082717895508
0.3179821014404297,0.2589082717895508
0.3149345397949219,0.2550567626953125
0.3217758178710937,0.2550567626953125
0.3207269668579101,0.2526906967163086
0.3158203125000000,0.2526906967163086
0.3202194213867187,0.2587583541870117
0.3222599029541016,0.2587583541870117
0.3174242019653320,0.2584596633911133
0.3179122924804688,0.2584596633911133
0.3179122924804688,0.2576431274414062
0.3186790466308594,0.2536336898803711
0.3156944274902344,0.2536336898803711
0.3223943710327148,0.2598352432250977
0.3223943710327148,0.2598352432250977
0.3171987533569336,0.2561491012573242
0.3171987533569336,0.2561491012573242
0.3236063003540039,0.2586490631103516
0.3236063003540039,0.2586490631103516
0.3195327758789062,0.2604612350463867
0.3252639770507812,0.2604612350463867
0.3213169097900391,0.2570543289184570
0.3213169097900391,0.2570543289184570
0.3252622604370117,0.2663051605224609
0.3246013641357422,0.2663051605224609
0.3205821990966797,0.2591594696044922
0.3253658294677734,0.2591594696044922
0.3271476745605469,0.2641988754272461
0.3217254638671875,0.2641988754272461
0.3237556457519531,0.2662862777709961
0.3294130325317383,0.2662862777709961
0.3253269195556641,0.2649335861206055
0.3225202560424805,0.2649335861206055
0.3286960601806641,0.2693115234375000
0.3274818420410156,0.2693115234375000
0.3245962142944336,0.2645605087280273
0.3245962142944336,0.2645605087280273
0.3292774200439453,0.2669471740722656
0.3292774200439453,0.2669471740722656
0.3261411666870117,0.2706453323364258
0.3261411666870117,0.2706453323364258
0.3259128570556640,0.2644598007202149
0.3259128570556640,0.2644598007202149
0.3287092208862304,0.2690706253051758
0.3287092208862304,0.2690706253051758
0.3245023727416992,0.2640804290771484
0.3245023727416992,0.2640804290771484
0.3286983489990234,0.2685934066772461
0.3286983489990234,0.2685934066772461
0.3256679534912109,0.2681299209594726
0.3296550750732422,0.2681299209594726
0.3256055831909180,0.2641742706298828
0.3240898132324219,0.2641742706298828
0.3290971755981445,0.2691547393798828
0.3290971755981445,0.2691547393798828
0.3245979309082031,0.2667074203491211
0.3245979309082031,0.2667074203491211
0.3294038772583008,0.2675628662109375
0.3294038772583008,0.2675628662109375
0.3262985229492187,0.2695678710937500
0.3262985229492187,0.2695678710937500
0.3270137786865234,0.2660144805908203
0.3270137786865234,0.2660144805908203
0.3304859161376953,0.2735584259033203
0.3304859161376953,0.2735584259033203
0.3264307022094726,0.2673414230346680
0.3264307022094726,0.2673414230346680
0.3313676834106445,0.2705720901489257
0.3313676834106445,0.2705720901489257
0.3289804458618164,0.2728403091430664
0.3289804458618164,0.2728403091430664
0.3293947219848632,0.2718246459960937
0.3293947219848632,0.2718246459960937
0.3331151962280273,0.2754970550537109
0.3331151962280273,0.2754970550537109
0.3288505554199219,0.2715305328369140
0.3288505554199219,0.2715305328369140
0.3345079421997070,0.2749975204467773
0.3345079421997070,0.2749975204467773
0.3319461822509766,0.2796175003051758
0.3319461822509766,0.2796175003051758
0.3326030731201172,0.2745208740234375
0.3326030731201172,0.2745208740234375
0.3363790512084961,0.2802560806274414
0.3341783523559570,0.2802560806274414
0.3326116561889648,0.2763519287109375
0.3326116561889648,0.2763519287109375
0.3377162933349609,0.2820705413818359
0.3327873229980469,0.2820705413818359
0.3350893020629883,0.2824207305908203
0.3395713806152343,0.2824207305908203
0.3355213165283203,0.2793445587158203
0.3355213165283203,0.2793445587158203
0.3396497726440429,0.2850500106811523
0.3396497726440429,0.2850500106811523
0.3355407714843750,0.2832109451293945
0.3355407714843750,0.2832109451293945
0.3407300949096679,0.2845384597778320
0.3357130050659179,0.2845384597778320
0.3379966735839844,0.2868101119995117
0.3379966735839844,0.2868101119995117
0.3388017654418945,0.2836006164550781
0.3388017654418945,0.2836006164550781
0.3422315597534180,0.2913648605346680
0.3402620315551758,0.2913648605346680
0.3382232666015625,0.2851696014404297
0.3382232666015625,0.2851696014404297
0.3429765701293945,0.2884506225585937
0.3429765701293945,0.2884506225585937
0.3406459808349609,0.2904893875122070
0.3406459808349609,0.2904893875122070
0.3411346435546875,0.2895475387573242
0.3411346435546875,0.2895475387573242
0.3446828842163086,0.2929298400878906
0.3446828842163086,0.2929298400878906
0.3405395507812500,0.2887590408325195
0.3405395507812500,0.2887590408325195
0.3457878112792969,0.2919399261474609
0.3457878112792969,0.2919399261474609
0.3427791595458984,0.2962354660034179
0.3472858428955078,0.2962354660034179
0.3433702468872070,0.2907932281494141
0.3433702468872070,0.2907932281494141
0.3463188171386719,0.2961055755615234
0.3463188171386719,0.2961055755615234
0.3427333831787109,0.2916641235351562
0.3427333831787109,0.2916641235351562
0.3475175857543945,0.2970245361328125
0.3475175857543945,0.2970245361328125
0.3445037841796875,0.2967653274536133
0.3445037841796875,0.2967653274536133
0.3450851440429688,0.2933893203735352
0.3450851440429688,0.2933893203735352
0.3486087799072266,0.2987342834472656
0.3486087799072266,0.2987342834472656
0.3443332672119140,0.2967967987060547
0.3443332672119140,0.2967967987060547
0.3494745254516601,0.2979211807250977
0.3443630218505859,0.2979211807250977
0.3461666107177734,0.3000200271606445
0.3461666107177734,0.3000200271606445
0.3474809646606445,0.2968156814575195
0.3474809646606445,0.2968156814575195
0.3507505416870117,0.3045787811279297
0.3507505416870117,0.3045787811279297
0.3466312408447266,0.2982479095458984
0.3466312408447266,0.2982479095458984
0.3516878128051757,0.3015752792358398
0.3516878128051757,0.3015752792358398
0.3488456726074219,0.3035099029541016
0.3488456726074219,0.3035099029541016
0.3495477676391601,0.3026058197021484
0.3495477676391601,0.3026058197021484
0.3527017593383789,0.3054450988769531
0.3527017593383789,0.3054450988769531
0.3476583480834961,0.2998867034912109
0.3476583480834961,0.2998867034912109
0.3516466140747070,0.3004022598266601
0.3451034545898438,0.3004022598266601
0.3456916809082031,0.2999479293823242
0.3456916809082031,0.2999479293823242
0.3422882080078125,0.2876604080200195
0.3422882080078125,0.2876604080200195
0.3403518676757812,0.2851003646850586
0.3403518676757812,0.2851003646850586
0.3315078735351563,0.2735464096069336
0.3315078735351563,0.2735464096069336
0.3320051193237304,0.2728088378906250
0.3320051193237304,0.2728088378906250
0.3253257751464844,0.2677162170410156
0.3253257751464844,0.2677162170410156
0.3231256484985351,0.2606134414672852
0.3231256484985351,0.2606134414672852
0.3246877670288086,0.2628925323486328
0.3246877670288086,0.2628925323486328
0.3188953399658203,0.2583898544311523
0.3188953399658203,0.2583898544311523
0.3225208282470703,0.2576791763305664
0.3168033599853515,0.2576791763305664
0.3183523178100586,0.2580116271972656
0.3183523178100586,0.2580116271972656
0.3185354232788086,0.2534425735473633
0.3185354232788086,0.2534425735473633
0.3209049224853516,0.2597608566284180
0.3209049224853516,0.2597608566284180
0.3162746429443359,0.2526134490966797
0.3162746429443359,0.2526134490966797
0.3203630447387695,0.2549491882324219
0.3203630447387695,0.2549491882324219
0.3172954559326172,0.2561559677124023
0.3172954559326172,0.2561559677124023
0.3177492141723633,0.2544359207153320
0.3177492141723633,0.2544359207153320
0.3205432891845703,0.2571853637695312
0.3205432891845703,0.2571853637695312
0.3161247253417969,0.2525722503662109
0.3161247253417969,0.2525722503662109
0.3211355209350586,0.2554693222045898
0.3158700942993164,0.2554693222045898
0.3176891326904297,0.2590501785278320
0.3176891326904297,0.2590501785278320
0.3186624526977539,0.2538225173950195
0.3186624526977539,0.2538225173950195
0.3215091705322266,0.2590204238891601
0.3215091705322266,0.2590204238891601
0.3180398941040039,0.2551168441772461
0.3180398941040039,0.2551168441772461
0.3232183456420898,0.2607307434082031
0.3232183456420898,0.2607307434082031
0.3206399917602539,0.2613349914550781
0.3206399917602539,0.2613349914550781
0.3220247268676757,0.2588556289672851
0.3220247268676757,0.2588556289672851
0.3257989883422852,0.2646978378295898
0.3257989883422852,0.2646978378295898
0.3222021102905273,0.2634195327758789
0.3222021102905273,0.2634195327758789
0.3274606704711914,0.2649942398071289
0.3226495742797851,0.2649942398071289
0.3244657516479492,0.2672533035278320
0.3289798736572265,0.2672533035278320
0.3259637832641601,0.2641210556030273
0.3259637832641601,0.2641210556030273
0.3288900375366211,0.2712049484252930
0.3288900375366211,0.2712049484252930
0.3247461318969727,0.2647230148315430
0.3247461318969727,0.2647230148315430
0.3290817260742188,0.2671119689941406
0.3290817260742188,0.2671119689941406
0.3257022857666015,0.2682323455810547
0.3257022857666015,0.2682323455810547
0.3262544631958008,0.2665569305419922
0.3262544631958008,0.2665569305419922
0.3287635803222656,0.2690053939819336
0.3287635803222656,0.2690053939819336
0.3240743637084961,0.2642869949340820
0.3240743637084961,0.2642869949340820
0.3290205001831055,0.2666896820068359
0.3237001419067383,0.2666896820068359
0.3254333496093750,0.2703426361083984
0.3254333496093750,0.2703426361083984
0.3264713287353516,0.2649536132812500
0.3264713287353516,0.2649536132812500
0.3293500900268554,0.2699998855590820
0.3293500900268554,0.2699998855590820
0.3253835678100586,0.2657426834106445
0.3253835678100586,0.2657426834106445
0.3302816390991211,0.2710275650024414
0.3302816390991211,0.2710275650024414
0.3271699905395508,0.2710115432739258
0.3271699905395508,0.2710115432739258
0.3282629013061523,0.2681390762329102
0.3282629013061523,0.2681390762329102
0.3317298889160156,0.2734754562377930
0.3299657821655274,0.2734754562377930
0.3278589248657227,0.2719430923461914
0.3278589248657227,0.2719430923461914
0.3331117630004883,0.2734313964843750
0.3331117630004883,0.2734313964843750
0.3301082611083984,0.2756361007690429
0.3301082611083984,0.2756361007690429
0.3319593429565429,0.2729959487915039
0.3319593429565429,0.2729959487915039
0.3350143432617188,0.2808803558349609
0.3350143432617188,0.2808803558349609
0.3313413619995117,0.2750495910644531
0.3313413619995117,0.2750495910644531
0.3363143920898438,0.2787025451660156
0.3363143920898438,0.2787025451660156
0.3337497711181641,0.2808362960815430
0.3337497711181641,0.2808362960815430
0.3352838516235351,0.2803585052490234
0.3352838516235351,0.2803585052490234
0.3384538650512695,0.2839914321899414
0.3369581222534180,0.2839914321899414
0.3346429824829101,0.2801359176635742
0.3346429824829101,0.2801359176635742
0.3400543212890625,0.2836286544799805
0.3350177764892578,0.2836286544799805
0.3367252349853516,0.2879327774047851
0.3367252349853516,0.2879327774047851
0.3384624481201172,0.2830163955688477
0.3384624481201172,0.2830163955688477
0.3411546707153320,0.2885599136352539
0.3411546707153320,0.2885599136352539
0.3377700805664062,0.2844846725463867
0.3377700805664062,0.2844846725463867
0.3428461074829102,0.2902233123779297
0.3428461074829102,0.2902233123779297
0.3395181655883789,0.2900602340698242
0.3395181655883789,0.2900602340698242
0.3411689758300781,0.2871477127075195
0.3411689758300781,0.2871477127075195
0.3442468643188477,0.2924743652343750
0.3442468643188477,0.2924743652343750
0.3402151107788086,0.2907257080078125
0.3451194763183594,0.2907257080078125
0.3453346252441406,0.2919164657592773
0.3403261184692383,0.2919164657592773
0.3416307449340820,0.2938453674316406
0.3416307449340820,0.2938453674316406
0.3437467575073242,0.2907726287841797
0.3416284561157226,0.2907726287841797
0.3464675903320312,0.2984556198120117
0.3450885772705078,0.2984556198120117
0.3425519943237305,0.2922512054443359
0.3425519943237305,0.2922512054443359
0.3476926803588867,0.2955087661743164
0.3476926803588867,0.2955087661743164
0.3487461090087891,0.2971664428710937
0.3487461090087891,0.2971664428710937
0.3487461090087891,0.2979171752929687
0.3439533233642578,0.2966543197631836
0.3502309799194336,0.2966543197631836
0.3472309112548828,0.2959951400756836
0.3430612564086914,0.2959951400756836
0.3476840972900391,0.2985546112060547
0.3494888305664062,0.2985546112060547
0.3459051132202148,0.2963653564453125
0.3471004486083984,0.2963653564453125
0.3507528305053711,0.3015867233276367
0.3464338302612305,0.3015867233276367
0.3449335098266602,0.2994289398193359
0.3514091491699219,0.2994289398193359
0.3502326965332031,0.2973798751831054
0.3461208343505859,0.2973798751831054
0.3498270034790039,0.3037879943847656
0.3515567779541016,0.3037879943847656
0.3482345581054687,0.3000183105468750
0.3493520736694336,0.3000183105468750
0.3521753311157226,0.3046308517456054
0.3480205535888672,0.3046308517456054
0.3481023788452148,0.3013223648071289
0.3547834396362304,0.3013223648071289
0.3528316497802734,0.3031013488769531
0.3484685897827148,0.3031013488769531
0.3523962020874024,0.3083232879638672
0.3542100906372070,0.3083232879638672
0.3498882293701172,0.3038623809814453
0.3510692596435547,0.3038623809814453
0.3557058334350586,0.3067016601562500
0.3516180038452149,0.3067016601562500
0.3507036209106445,0.3067577362060547
0.3568531036376953,0.3067577362060547
0.3546312332153320,0.3054416656494141
0.3494848251342773,0.3054416656494141
0.3514286041259765,0.3068881988525390
0.3521100997924805,0.3068881988525390
0.3477727890014649,0.2960969924926758
0.3469247817993164,0.2960969924926758
0.3483541488647461,0.2955654144287109
0.3414030075073242,0.2955654144287109
0.3377969741821289,0.2857337951660156
0.3412330627441406,0.2857337951660156
0.3358377456665039,0.2767370223999023
0.3286525726318359,0.2767370223999023
0.3309093475341797,0.2723739624023437
0.3308721542358398,0.2723739624023437
0.3254682540893555,0.2646085739135742
0.3246934890747070,0.2646085739135742
0.3273176193237304,0.2653747558593750
0.3218238830566406,0.2653747558593750
0.3192049026489258,0.2603010177612304
0.3247472763061524,0.2603010177612304
0.3228269577026367,0.2558870315551758
0.3176559448242187,0.2558870315551758
0.3206296920776367,0.2600755691528320
0.3220928192138672,0.2600755691528320
0.3181417465209961,0.2549571990966797
0.3185337066650391,0.2549571990966797
0.3211601257324219,0.2579315185546875
0.3166305541992188,0.2579315185546875
0.3163049697875976,0.2534059524536132
0.3225728988647461,0.2534059524536132
0.3204334259033203,0.2540731430053711
0.3154752731323242,0.2540731430053711
0.3189891815185547,0.2578142166137695
0.3208379745483398,0.2578142166137695
0.3161550521850586,0.2529424667358398
0.3169126510620117,0.2529424667358398
0.3215114593505859,0.2555517196655273
0.3173086166381836,0.2555517196655273
0.3161304473876953,0.2551054000854492
0.3224870681762695,0.2551054000854492
0.3206995010375976,0.2550041198730469
0.3158586502075195,0.2550041198730469
0.3186264038085938,0.2584482192993164
0.3206995010375976,0.2584482192993164
0.3177440643310547,0.2522581100463867
0.3186223983764648,0.2522581100463867
0.3225849151611328,0.2587331771850586
0.3183557510375977,0.2587331771850586
0.3175523757934570,0.2570131301879883
0.3240554809570312,0.2570131301879883
0.3215915679931641,0.2569839477539063
0.3170419692993164,0.2569839477539063
0.3215349197387695,0.2599903106689453
0.3240406036376953,0.2599903106689453
0.3205066680908203,0.2581855773925781
0.3215286254882813,0.2581855773925781
0.3259729385375976,0.2642921447753906
0.3220207214355469,0.2642921447753906
0.3205450057983398,0.2625497817993164
0.3273433685302734,0.2625497817993164
0.3265960693359375,0.2613939285278320
0.3221517562866211,0.2613939285278320
0.3259981155395508,0.2681224822998047
0.3283098220825195,0.2681224822998047
0.3249120712280273,0.2644283294677734
0.3256828308105469,0.2644283294677734
0.3290628433227539,0.2692543029785156
0.3250047683715820,0.2692543029785156
0.3247644424438477,0.2655996322631836
0.3313716888427734,0.2655996322631836
0.3293615341186523,0.2669929504394531
0.3244377136230469,0.2669929504394531
0.3280609130859375,0.2713542938232422
0.3300624847412109,0.2713542938232422
0.3252365112304688,0.2659830093383789
0.3257400512695313,0.2659830093383789
0.3305923461914063,0.2684989929199219
0.3263906478881836,0.2684989929199219
0.3252084732055664,0.2677431106567383
0.3314180374145508,0.2677431106567383
0.3295761108398437,0.2673488616943359
0.3245950698852539,0.2673488616943359
0.3271631240844726,0.2709772109985352
0.3293804168701172,0.2709772109985352
0.3263145446777344,0.2646320343017578
0.3270051956176758,0.2646320343017578
0.3311027526855468,0.2712718963623047
0.3270069122314453,0.2712718963623047
0.3260587692260742,0.2696674346923828
0.3323799133300781,0.2696674346923828
0.3298559188842773,0.2690305709838867
0.3250597000122070,0.2690305709838867
0.3295515060424805,0.2715940475463867
0.3319787979125977,0.2715940475463867
0.3283824920654297,0.2694139480590820
0.3290130615234375,0.2694139480590820
0.3334230422973632,0.2747720718383789
0.3294759750366211,0.2747720718383789
0.3277015686035156,0.2730491638183594
0.3343557357788086,0.2730491638183594
0.3336719512939453,0.2716638565063477
0.3289987564086914,0.2716638565063477
0.3327203750610351,0.2783472061157227
0.3352151870727539,0.2783472061157227
0.3318546295166016,0.2751937866210937
0.3324909210205078,0.2751937866210937
0.3360786437988281,0.2801456451416016
0.3322694778442383,0.2801456451416016
0.3322694778442383,0.2768938064575195
0.3390558242797851,0.2768938064575195
0.3376390457153320,0.2794303894042969
0.3328062057495117,0.2794303894042969
0.3366376876831055,0.2843816757202148
0.3392063140869140,0.2843816757202148
0.3348827362060547,0.2805948257446289
0.3356237411499023,0.2805948257446289
0.3408571243286133,0.2843605041503906
0.3371664047241211,0.2843605041503906
0.3362972259521484,0.2847181320190429
0.3428558349609375,0.2847181320190429
0.3416124343872070,0.2859300613403320
0.3367538452148438,0.2859300613403320
0.3396303176879883,0.2901506423950195
0.3422990798950195,0.2901506423950195
0.3395496368408203,0.2845928192138672
0.3402923583984375,0.2845928192138672
0.3447486877441406,0.2921270370483398
0.3409000396728515,0.2921270370483398
0.3401733398437500,0.2906255722045898
0.3465826034545899,0.2906255722045898
0.3444082260131836,0.2909940719604492
0.3395490646362305,0.2909940719604492
0.3440654754638672,0.2937606811523437
0.3467605590820312,0.2937606811523437
0.3431402206420898,0.2918964385986328
0.3436271667480469,0.2918964385986328
0.3481950759887695,0.2979171752929687
0.3443201065063476,0.2979171752929687
0.3490144729614258,0.2954996109008789
0.3481109619140625,0.2954996109008789
0.3484159469604492,0.2940216064453125
0.3436843872070313,0.2940216064453125
0.3472738265991211,0.3004354476928711
0.3497772216796875,0.3004354476928711
0.3462638854980469,0.2967573165893554
0.3466449737548828,0.2967573165893554
0.3503070831298828,0.3018911361694336
0.3465202331542969,0.3018911361694336
0.3463182449340820,0.2979394912719727
0.3528636932373047,0.2979394912719727
0.3513153076171875,0.3003942489624024
0.3463668823242188,0.3003942489624024
0.3500839233398437,0.3053884506225586
0.3525873184204101,0.3053884506225586
0.3480611801147461,0.3007450103759766
0.3485424041748047,0.3007450103759766
0.3538129806518555,0.3041433334350586
0.3500644683837891,0.3041433334350586
0.3553396224975586,0.3040838241577148
0.3553396224975586,0.3040838241577148
0.3540292739868164,0.3046108245849609
0.3489389419555664,0.3046108245849609
0.3515178680419922,0.3085836410522461
0.3541694641113281,0.3085836410522461
0.3512145996093750,0.3025920867919922
0.3517610549926758,0.3025920867919922
0.3561017990112305,0.3097984313964844
0.3523035049438477,0.3097984313964844
0.3513874053955078,0.3082317352294922
0.3575019836425781,0.3082317352294922
0.3552406311035156,0.3079061508178711
0.3502515792846679,0.3079061508178711
0.3546192169189453,0.3102098464965820
0.3574790954589844,0.3102098464965820
0.3536579132080078,0.3082145690917968
0.3538873672485351,0.3082145690917968
0.3585914611816406,0.3138175964355469
0.3547782897949219,0.3138175964355469
0.3528362274169922,0.3114526748657226
0.3591945648193359,0.3114526748657226
0.3585800170898437,0.3099042892456055
0.3537528991699219,0.3099042892456055
0.3571352005004882,0.3162311553955078
0.3598846435546875,0.3162311553955078
0.3562139511108398,0.3127904891967773
0.3563426971435547,0.3127904891967773
0.3600242614746094,0.3175575256347656
0.3563346862792969,0.3175575256347656
0.3561126708984375,0.3133111953735351
0.3625791549682617,0.3133111953735351
0.3611549377441406,0.3157424926757812
0.3559638977050781,0.3157424926757812
0.3594549179077148,0.3196786880493164
0.3619068145751953,0.3196786880493164
0.3569023132324219,0.3143554687500000
0.3564886093139648,0.3143554687500000
0.3610742568969726,0.3151027679443359
0.3562385559082031,0.3151027679443359
0.3533426284790039,0.3097515106201172
0.3575134277343750,0.3097515106201172
0.3538576126098633,0.3033439636230469
0.3458976745605469,0.3033439636230469
0.3456150054931640,0.2973724365234375
0.3448322296142578,0.2973724365234375
0.3385557174682617,0.2811286926269531
0.3356140136718750,0.2811286926269531
0.3374742507934570,0.2798955917358398
0.3310169219970703,0.2798955917358398
0.3278474807739258,0.2708410263061523
0.3319530487060547,0.2708410263061523
0.3281175613403320,0.2660482406616211
0.3215618133544922,0.2660482406616211
0.3245658874511719,0.2645656585693359
0.3264793395996093,0.2645656585693359
0.3216585159301757,0.2596355438232422
0.3210170745849609,0.2596355438232422
0.3250408172607422,0.2634344100952148
0.3206434249877930,0.2634344100952148
0.3182916641235352,0.2586702346801757
0.3240137100219727,0.2586702346801757
0.3230558395385742,0.2561084747314453
0.3176645278930664,0.2561084747314453
0.3208099365234375,0.2610603332519531
0.3232229232788086,0.2610603332519531
0.3193256378173828,0.2561777114868164
0.3190721511840820,0.2561777114868164
0.3227434158325195,0.2607576370239258
0.3189439773559570,0.2607576370239258
0.3184186935424805,0.2559213638305664
0.3245063781738281,0.2559213638305664
0.3230695724487305,0.2578977584838867
0.3177360534667968,0.2578977584838867
0.3211927413940430,0.2620891571044922
0.3239044189453125,0.2620891571044922
0.3191814422607422,0.2570514678955078
0.3191202163696289,0.2570514678955078
0.3245229721069336,0.2603679656982422
0.3209140777587891,0.2603679656982422
0.3196958541870117,0.2594936370849609
0.3257675170898438,0.2594936370849609
0.3246717453002930,0.2601860046386719
0.3194343566894531,0.2601860046386719
0.3219526290893555,0.2644826889038086
0.3253217697143554,0.2644826889038086
0.3223526000976563,0.2577123641967773
0.3208093643188477,0.2577123641967773
0.3278577804565430,0.2675502777099609
0.3256879806518554,0.2675502777099609
0.3223966598510742,0.2643596649169922
0.3286165237426757,0.2643596649169922
0.3288162231445312,0.2666873931884766
0.3229591369628906,0.2666873931884766
0.3271139144897461,0.2696302413940430
0.3324480056762695,0.2696302413940430
0.3274429321289062,0.2671113967895508
0.3257955551147461,0.2671113967895508
0.3330848693847656,0.2751674652099609
0.3307754516601563,0.2751674652099609
0.3264530181884766,0.2708902359008789
0.3326087951660156,0.2708902359008789
0.3341028213500977,0.2712781906127930
0.3279968261718750,0.2712781906127930
0.3309402465820312,0.2768732070922851
0.3357570648193359,0.2768732070922851
0.3285655975341797,0.2754770278930664
0.3285655975341797,0.2754770278930664
0.3279327392578125,0.2725490570068359
0.3286027908325195,0.2725490570068359
0.3336576461791992,0.2779249191284179
0.3336576461791992,0.2779249191284179
0.3289329528808594,0.2726057052612305
0.3289329528808594,0.2726057052612305
0.3353250503540039,0.2760887145996094
0.3353250503540039,0.2760887145996094
0.3279865264892578,0.2750690460205078
0.3279865264892578,0.2750690460205078
0.3327741622924805,0.2721794128417969
0.3327741622924805,0.2721794128417969
0.3336078643798828,0.2803064346313476
0.3336078643798828,0.2803064346313476
0.3293735504150391,0.2713891983032227
0.3293735504150391,0.2713891983032227
0.3360277175903320,0.2775100708007812
0.3360277175903320,0.2775100708007812
0.3296573638916016,0.2769247055053711
0.3296573638916016,0.2769247055053711
0.3342081069946289,0.2768714904785156
0.3342081069946289,0.2768714904785156
