REDsignal,IRsignal
0.5681161880493164,0.7524524688720703
0.5624490737915039,0.7498065948486328
0.5632524490356445,0.7555234909057617
0.5696720123291016,0.7555234909057617
0.5678506851196289,0.7520256042480469
0.5678506851196289,0.7520256042480469
0.5696577072143555,0.7586248397827148
0.5696577072143555,0.7586248397827148
0.5644529342651367,0.7540941238403320
0.5644529342651367,0.7540941238403320
0.5708581924438476,0.7585292816162109
0.5708581924438476,0.7585292816162109
0.5684984207153320,0.7613554000854492
0.5684984207153320,0.7613554000854492
0.5685132980346680,0.7567382812500000
0.5685132980346680,0.7567382812500000
0.5721633911132812,0.7644184112548827
0.5721633911132812,0.7644184112548827
0.5666284561157227,0.7591724395751953
0.5666284561157227,0.7591724395751953
0.5756790161132812,0.7633283615112304
0.5756790161132812,0.7633283615112304
0.5685155868530273,0.7651216506958007
0.5685155868530273,0.7651216506958007
0.5706281661987305,0.7616861343383788
0.5706281661987305,0.7616861343383788
0.5740871429443359,0.7686223983764648
0.5740871429443359,0.7686223983764648
0.5710865020751953,0.7631555557250976
0.5710865020751953,0.7631555557250976
0.5754117965698242,0.7664451599121094
0.5754117965698242,0.7664451599121094
0.5701915740966796,0.7694515228271485
0.5701915740966796,0.7694515228271485
0.5723115921020507,0.7653430938720703
0.5723115921020507,0.7653430938720703
0.5782138824462890,0.7721723556518555
0.5782138824462890,0.7721723556518555
0.5705486297607422,0.7659250259399414
0.5705486297607422,0.7659250259399414
0.5770786285400390,0.7704151153564452
0.5770786285400390,0.7704151153564452
0.5715059280395508,0.7726764678955078
0.5715059280395508,0.7726764678955078
0.5761762619018554,0.7684541702270508
0.5761762619018554,0.7684541702270508
0.5772628784179688,0.7740451812744140
0.5772628784179688,0.7740451812744140
0.5713960647583007,0.7680942535400390
0.5713960647583007,0.7680942535400390
0.5768182754516601,0.7700048446655273
0.5768182754516601,0.7700048446655273
0.5720077514648437,0.7669069290161132
0.5720077514648437,0.7669069290161132
0.5670719146728516,0.7490535736083984
0.5670719146728516,0.7490535736083984
0.5612348556518555,0.7367557525634766
0.5612348556518555,0.7367557525634766
0.5456571578979492,0.7123060226440430
0.5456571578979492,0.7123060226440430
0.5462081909179687,0.7016189575195312
0.5462081909179687,0.7016189575195312
0.5327281951904297,0.6930313110351562
0.5327281951904297,0.6930313110351562
0.5312238693237304,0.6826715469360352
0.5312238693237304,0.6826715469360352
0.5315895080566406,0.6845180511474609
0.5291576385498047,0.6845180511474609
0.5263984680175781,0.6754629135131835
0.5263984680175781,0.6754629135131835
0.5296085357666015,0.6763080596923828
0.5296085357666015,0.6763080596923828
0.5235162734985351,0.6775491714477538
0.5235162734985351,0.6775491714477538
0.5253610610961914,0.6727987289428711
0.5253610610961914,0.6727987289428711
0.5309080123901367,0.6794082641601562
0.5309080123901367,0.6794082641601562
0.5239156723022461,0.6737348556518554
0.5239156723022461,0.6737348556518554
0.5309892654418945,0.6795988082885742
0.5309892654418945,0.6795988082885742
0.5263532638549805,0.6837839126586914
0.5263532638549805,0.6837839126586914
0.5327671051025390,0.6829559326171875
0.5327671051025390,0.6829559326171875
0.5363611221313477,0.6934003829956055
0.5363611221313477,0.6934003829956055
0.5338325500488281,0.6939067840576172
0.5338325500488281,0.6939067840576172
0.5432241439819335,0.7043632507324219
0.5432241439819335,0.7043632507324219
0.5433895111083984,0.7128393173217773
0.5433895111083984,0.7128393173217773
0.5470321655273437,0.7140598297119141
0.5470321655273437,0.7140598297119141
0.5530683517456054,0.7263015747070313
0.5530683517456054,0.7263015747070313
0.5497592926025391,0.7247257232666016
0.5497592926025391,0.7247257232666016
0.5602546691894531,0.7324842453002930
0.5602546691894531,0.7324842453002930
0.5541664123535156,0.7364255905151367
0.5541664123535156,0.7364255905151367
0.5579652786254883,0.7351781845092773
0.5579652786254883,0.7351781845092773
0.5617607116699218,0.7436233520507812
0.5617607116699218,0.7436233520507812
0.5595560073852539,0.7393232345581054
0.5623889923095703,0.7393232345581054
0.5645387649536132,0.7441680908203124
0.5645387649536132,0.7441680908203124
0.5596286773681640,0.7478090286254883
0.5596286773681640,0.7478090286254883
0.5626985549926757,0.7448444366455078
0.5626985549926757,0.7448444366455078
0.5684617996215821,0.7524404525756836
0.5684617996215821,0.7524404525756836
0.5615638732910156,0.7466817855834961
0.5615638732910156,0.7466817855834961
0.5683124542236327,0.7522127151489257
0.5683124542236327,0.7522127151489257
0.5628993988037109,0.7548791885375976
0.5628993988037109,0.7548791885375976
0.5683347702026367,0.7515260696411132
0.5683347702026367,0.7515260696411132
0.5694288253784180,0.7580503463745117
0.5694288253784180,0.7580503463745117
0.5646183013916015,0.7531648635864258
0.5646183013916015,0.7531648635864258
0.5709566116333008,0.7579776763916015
0.5709566116333008,0.7579776763916015
0.5679479598999023,0.7603031158447265
0.5679479598999023,0.7603031158447265
0.5687902450561523,0.7560956954956054
0.5687902450561523,0.7560956954956054
0.5719505310058594,0.7636653900146484
0.5719505310058594,0.7636653900146484
0.5666547775268554,0.7580846786499024
0.5666547775268554,0.7580846786499024
0.5755943298339844,0.7626617431640624
0.5755943298339844,0.7626617431640624
0.5679073333740234,0.7641036987304687
0.5679073333740234,0.7641036987304687
0.5709526062011718,0.7609628677368164
0.5709526062011718,0.7609628677368164
0.5737764358520507,0.7678253173828125
0.5737764358520507,0.7678253173828125
0.5711128234863281,0.7621318817138671
0.5711128234863281,0.7621318817138671
0.5753316879272461,0.7660251617431640
0.5753316879272461,0.7660251617431640
0.5697790145874023,0.7683958053588867
0.5697790145874023,0.7683958053588867
0.5724918365478515,0.7646953582763671
0.5724918365478515,0.7646953582763671
0.5777990341186523,0.7714405059814453
0.5777990341186523,0.7714405059814453
0.5706418991088867,0.7647668838500976
0.5706418991088867,0.7647668838500976
0.5768835067749023,0.7697530746459961
0.5768835067749023,0.7697530746459961
0.5709743499755859,0.7712499618530273
0.5709743499755859,0.7712499618530273
0.5760251998901367,0.7670053482055664
0.5760251998901367,0.7670053482055664
0.5762414932250977,0.7714542388916016
0.5762414932250977,0.7714542388916016
0.5698305130004883,0.7624998092651367
0.5698305130004883,0.7624998092651367
0.5722229003906250,0.7575405120849609
0.5722229003906250,0.7575405120849609
0.5610002517700196,0.7417219161987304
0.5609842300415039,0.7417219161987304
0.5518890380859375,0.7175428390502929
0.5518890380859375,0.7175428390502929
0.5460559844970703,0.7084224700927734
0.5413169860839844,0.7084224700927734
0.5338851928710937,0.6903573989868164
0.5338851928710937,0.6903573989868164
0.5375564575195312,0.6870683670043946
0.5375564575195312,0.6870683670043946
0.5267915725708008,0.6825319290161133
0.5267915725708008,0.6825319290161133
0.5274112701416015,0.6749736785888671
0.5274112701416015,0.6749736785888671
0.5282312393188476,0.6783102035522460
0.5282312393188476,0.6783102035522460
0.5243625640869141,0.6701551437377929
0.5243625640869141,0.6701551437377929
0.5281282424926758,0.6729555130004883
0.5281282424926758,0.6729555130004883
0.5222288131713867,0.6745107650756835
0.5222288131713867,0.6745107650756835
0.5251791000366210,0.6710300445556641
0.5251791000366210,0.6710300445556641
0.5304994583129883,0.6782758712768554
0.5304994583129883,0.6782758712768554
0.5244295120239257,0.6731317520141601
0.5244295120239257,0.6731317520141601
0.5320066452026367,0.6809171676635742
0.5320066452026367,0.6809171676635742
0.5279600143432617,0.6864452362060547
0.5279600143432617,0.6864452362060547
0.5357248306274414,0.6879020690917969
0.5357248306274414,0.6879020690917969
0.5396862030029297,0.6999629974365235
0.5396862030029297,0.6999629974365235
0.5381641387939453,0.7008642196655274
0.5439760208129882,0.7008642196655274
0.5475133895874024,0.7120868682861328
0.5475133895874024,0.7120868682861328
0.5471054077148437,0.7193944931030273
0.5471054077148437,0.7193944931030273
0.5506845474243164,0.7198625564575195
0.5506845474243164,0.7198625564575195
0.5554773330688476,0.7309793472290039
0.5554773330688476,0.7309793472290039
0.5519954681396484,0.7280084609985351
0.5519954681396484,0.7280084609985351
0.5619009017944335,0.7352668762207031
0.5619009017944335,0.7352668762207031
0.5552118301391601,0.7383293151855469
0.5552118301391601,0.7383293151855469
0.5592281341552734,0.7367940902709961
0.5592281341552734,0.7367940902709961
0.5624467849731445,0.7447591781616211
0.5624467849731445,0.7447591781616211
0.5604549407958984,0.7399143218994141
0.5604549407958984,0.7399143218994141
0.5652374267578125,0.7452564239501953
0.5652374267578125,0.7452564239501953
0.5599851608276367,0.7481443405151367
0.5599851608276367,0.7481443405151367
0.5632427215576171,0.7456169128417969
0.5632427215576171,0.7456169128417969
0.5687902450561523,0.7529548645019531
0.5687902450561523,0.7529548645019531
0.5621561050415039,0.7468769073486328
0.5621561050415039,0.7468769073486328
0.5687685012817383,0.7528152465820312
0.5687685012817383,0.7528152465820312
0.5631019592285156,0.7550233840942383
0.5631019592285156,0.7550233840942383
0.5688394546508789,0.7520135879516602
0.5688394546508789,0.7520135879516602
0.5696365356445312,0.7583919525146484
0.5696365356445312,0.7583919525146484
0.5650491714477539,0.7532089233398437
0.5650491714477539,0.7532089233398437
0.5712118148803711,0.7585521697998047
0.5712118148803711,0.7585521697998047
0.5680337905883789,0.7603151321411132
0.5680337905883789,0.7603151321411132
0.5692491531372070,0.7565031051635742
0.5692491531372070,0.7565031051635742
0.5719717025756835,0.7638050079345703
0.5719717025756835,0.7638050079345703
0.5670867919921875,0.7578884124755859
0.5670867919921875,0.7578884124755859
0.5758838653564453,0.7630268096923828
0.5758838653564453,0.7630268096923828
0.5680566787719726,0.7638633728027343
0.5680566787719726,0.7638633728027343
0.5712135314941406,0.7611282348632812
0.5712135314941406,0.7611282348632812
0.5737083435058593,0.7677886962890624
0.5737083435058593,0.7677886962890624
0.5713417053222656,0.7616420745849609
0.5713417053222656,0.7616420745849609
0.5756177902221680,0.7661024093627929
0.5756177902221680,0.7661024093627929
0.5697532653808594,0.7680765151977539
0.5697532653808594,0.7680765151977539
0.5727699279785156,0.7645397186279297
0.5727699279785156,0.7645397186279297
0.5776645660400390,0.7712190628051757
0.5757305145263671,0.7712190628051757
0.5708627700805664,0.7643365859985352
0.5708627700805664,0.7643365859985352
0.5771289825439453,0.7697891235351563
0.5771289825439453,0.7697891235351563
0.5709142684936523,0.7709432601928711
0.5709142684936523,0.7709432601928711
0.5763170242309570,0.7670906066894531
0.5763170242309570,0.7670906066894531
0.5761917114257812,0.7716367721557617
0.5761917114257812,0.7716367721557617
0.5703941345214844,0.7630542755126953
0.5703941345214844,0.7630542755126953
0.5736259460449219,0.7602510452270508
0.5736259460449219,0.7602510452270508
0.5630275726318359,0.7450103759765625
0.5630275726318359,0.7450103759765625
0.5542339324951172,0.7207740783691406
0.5542339324951172,0.7207740783691406
0.5475208282470703,0.7104698181152344
0.5475208282470703,0.7104698181152344
0.5351366043090821,0.6912242889404296
0.5351366043090821,0.6912242889404296
0.5296331405639648,0.6801172256469726
0.5296331405639648,0.6801172256469726
0.5296331405639648,0.6804244995117187
0.5321422576904297,0.6814950942993164
0.5321422576904297,0.6814950942993164
0.5205064773559570,0.6742023468017578
0.5205064773559570,0.6742023468017578
0.5278747558593749,0.6723466873168945
0.5278747558593749,0.6723466873168945
0.5258640289306641,0.6754983901977539
0.5258640289306641,0.6754983901977539
0.5233406066894531,0.6693586349487305
0.5233406066894531,0.6693586349487305
0.5253427505493163,0.6756929397583008
0.5214792251586914,0.6756929397583008
0.5231088638305664,0.6724182128906250
0.5231088638305664,0.6724182128906250
0.5291891098022461,0.6745159149169921
0.5291891098022461,0.6745159149169921
0.5281705856323242,0.6810436248779297
0.5281705856323242,0.6810436248779297
0.5248844146728515,0.6791152954101562
0.5248844146728515,0.6791152954101562
0.5360412597656250,0.6902910232543945
0.5360412597656250,0.6902910232543945
0.5336820602416992,0.6922966003417969
0.5336820602416992,0.6922966003417969
0.5418216705322265,0.6999898910522461
0.5418216705322265,0.6999898910522461
0.5398750305175781,0.7114980697631835
0.5398750305175781,0.7114980697631835
0.5453893661499023,0.7125566482543945
0.5453893661499023,0.7125566482543945
0.5539386749267577,0.7246095657348632
0.5539386749267577,0.7246095657348632
0.5500997543334961,0.7250455856323242
0.5500997543334961,0.7250455856323242
0.5536588668823242,0.7299190521240234
0.5536588668823242,0.7299190521240234
0.5569816589355469,0.7372901916503906
0.5569816589355469,0.7372901916503906
0.5574131011962891,0.7341773986816406
0.5574131011962891,0.7341773986816406
0.5631271362304687,0.7426151275634766
0.5631271362304687,0.7426151275634766
0.5541904449462890,0.7403114318847656
0.5541904449462890,0.7403114318847656
0.5639705657958984,0.7428113937377929
0.5639705657958984,0.7428113937377929
0.5627803802490234,0.7485992431640625
0.5627803802490234,0.7485992431640625
0.5618356704711914,0.7439403533935547
0.5618356704711914,0.7439403533935547
0.5638223648071289,0.7519231796264648
0.5638223648071289,0.7519231796264648
0.5622282028198242,0.7487611770629883
0.5622282028198242,0.7487611770629883
0.5685859680175781,0.7507936477661132
0.5685859680175781,0.7507936477661132
0.5662731170654297,0.7559125900268554
0.5662731170654297,0.7559125900268554
0.5613367080688476,0.7513898849487305
0.5613367080688476,0.7513898849487305
0.5709629058837891,0.7586191177368163
0.5709629058837891,0.7586191177368163
0.5654554367065430,0.7550434112548828
0.5654554367065430,0.7550434112548828
0.5708106994628906,0.7565013885498046
0.5708106994628906,0.7565013885498046
0.5651338577270507,0.7616363525390625
0.5651338577270507,0.7616363525390625
0.5680183410644531,0.7567211151123047
0.5680183410644531,0.7567211151123047
0.5741758346557617,0.7637861251831054
0.5741758346557617,0.7637861251831054
0.5677803039550781,0.7598150253295898
0.5677803039550781,0.7598150253295898
0.5692239761352539,0.7615482330322265
0.5692239761352539,0.7615482330322265
0.5712215423583984,0.7662683486938476
0.5712215423583984,0.7662683486938476
0.5703042984008789,0.7611322402954102
0.5703042984008789,0.7611322402954102
0.5754907608032226,0.7676044464111328
0.5754907608032226,0.7676044464111328
0.5657575607299804,0.7638811111450196
0.5657575607299804,0.7638811111450196
0.5750450134277344,0.7654335021972656
0.5750450134277344,0.7654335021972656
0.5738582611083984,0.7700202941894531
0.5738582611083984,0.7700202941894531
0.5719470977783203,0.7647079467773438
0.5719470977783203,0.7647079467773438
0.5732477188110351,0.7714817047119140
0.5732477188110351,0.7714817047119140
0.5714252471923827,0.7672834396362305
0.5800008773803711,0.7672834396362305
0.5767925262451171,0.7688335418701172
0.5767925262451171,0.7688335418701172
0.5746238708496093,0.7728670120239257
0.5746238708496093,0.7728670120239257
0.5693281173706054,0.7677995681762695
0.5693281173706054,0.7677995681762695
0.5786848068237305,0.7744068145751953
0.5786848068237305,0.7744068145751953
0.5735847473144531,0.7699728012084961
0.5735847473144531,0.7699728012084961
0.5778779983520508,0.7712265014648437
0.5778779983520508,0.7712265014648437
0.5715036392211914,0.7751277923583985
0.5715036392211914,0.7751277923583985
0.5738050460815429,0.7685520172119140
0.5738050460815429,0.7685520172119140
0.5782802581787109,0.7728870391845702
0.5735624313354492,0.7728870391845702
0.5702882766723633,0.7630084991455078
0.5702882766723633,0.7630084991455078
0.5668298721313476,0.7530550003051758
0.5668298721313476,0.7530550003051758
0.5609619140625000,0.7409420013427734
0.5609619140625000,0.7409420013427734
0.5521551132202148,0.7194396972656250
0.5521551132202148,0.7194396972656250
0.5499916076660156,0.7132066726684571
0.5499916076660156,0.7132066726684571
0.5351406097412109,0.6995281219482422
0.5351406097412109,0.6995281219482422
0.5402990341186523,0.6953035354614258
0.5402990341186523,0.6953035354614258
0.5360870361328125,0.6958196640014648
0.5360870361328125,0.6958196640014648
0.5336511611938476,0.6883695602416992
0.5324769973754883,0.6883695602416992
0.5349849700927735,0.6948326110839843
0.5349849700927735,0.6948326110839843
0.5329296112060546,0.6907390594482422
0.5329296112060546,0.6907390594482422
0.5393217086791992,0.6937454223632812
0.5393217086791992,0.6937454223632812
0.5375862121582031,0.7001890182495117
0.5375862121582031,0.7001890182495117
0.5345455169677734,0.6983121871948242
0.5345455169677734,0.6983121871948242
0.5458007812500000,0.7096784591674804
0.5458007812500000,0.7096784591674804
0.5430250167846680,0.7110546112060546
0.5430250167846680,0.7110546112060546
0.5513059616088867,0.7193876266479492
0.5513059616088867,0.7193876266479492
0.5487453460693359,0.7302841186523438
0.5487453460693359,0.7302841186523438
0.5544307708740234,0.7303213119506836
0.5544307708740234,0.7303213119506836
0.5625463485717773,0.7413190841674805
0.5625463485717773,0.7413190841674805
0.5577747344970703,0.7398977279663086
0.5577747344970703,0.7398977279663086
0.5603673934936523,0.7444284439086913
0.5603673934936523,0.7444284439086913
0.5631076812744140,0.7504840850830078
0.5631076812744140,0.7504840850830078
0.5630807876586914,0.7468488693237304
0.5630807876586914,0.7468488693237304
0.5688892364501953,0.7546669006347656
0.5688892364501953,0.7546669006347656
0.5597064971923827,0.7514820098876953
0.5597064971923827,0.7514820098876953
0.5693527221679687,0.7544843673706054
0.5693527221679687,0.7544843673706054
0.5683753967285156,0.7592559814453125
0.5683753967285156,0.7592559814453125
0.5668996810913086,0.7546468734741211
0.5668996810913086,0.7546468734741211
0.5684434890747070,0.7620998382568359
0.5684434890747070,0.7620998382568359
0.5669963836669921,0.7580486297607422
0.5752733230590820,0.7580486297607422
0.5725553512573242,0.7604993820190430
0.5725553512573242,0.7604993820190430
0.5703477859497070,0.7647113800048828
0.5703477859497070,0.7647113800048828
0.5655572891235351,0.7602064132690429
0.5655572891235351,0.7602064132690429
0.5750392913818360,0.7672742843627930
0.5750392913818360,0.7672742843627930
0.5702344894409179,0.7629135131835937
0.5702344894409179,0.7629135131835937
0.5745780944824218,0.7652641296386719
0.5745780944824218,0.7652641296386719
0.5685916900634765,0.7695528030395508
0.5685916900634765,0.7695528030395508
0.5716718673706055,0.7644166946411133
0.5716718673706055,0.7644166946411133
0.5771312713623047,0.7712985992431640
0.5771312713623047,0.7712985992431640
0.5712633132934570,0.7665138244628906
0.5712633132934570,0.7665138244628906
0.5723693847656249,0.7690080642700196
0.5723693847656249,0.7690080642700196
0.5743515014648437,0.7730312347412109
0.5743515014648437,0.7730312347412109
0.5741031646728515,0.7677440643310547
0.5741031646728515,0.7677440643310547
0.5786058425903320,0.7746345520019531
0.5786058425903320,0.7746345520019531
0.5687398910522461,0.7698509216308593
0.5687398910522461,0.7698509216308593
0.5779523849487305,0.7721242904663086
0.5779523849487305,0.7721242904663086
0.5757986068725586,0.7759557723999023
0.5757986068725586,0.7759557723999023
0.5746610641479492,0.7704328536987305
0.5746610641479492,0.7704328536987305
0.5758689880371094,0.7775058746337891
0.5758689880371094,0.7775058746337891
0.5740585327148438,0.7724910736083984
0.5740585327148438,0.7724910736083984
0.5799476623535156,0.7747512817382812
0.5799476623535156,0.7747512817382812
0.5768308639526367,0.7785209655761719
0.5768308639526367,0.7785209655761719
0.5717502593994140,0.7731142044067383
0.5717502593994140,0.7731142044067383
0.5809701919555664,0.7796218872070312
0.5809701919555664,0.7796218872070312
0.5751628875732422,0.7744663238525390
0.5751628875732422,0.7744663238525390
0.5799230575561524,0.7760656356811523
0.5799230575561524,0.7760656356811523
0.5730823516845703,0.7789037704467773
0.5730823516845703,0.7789037704467773
0.5752916336059570,0.7713209152221679
0.5752916336059570,0.7713209152221679
0.5791477203369141,0.7723937988281250
0.5791477203369141,0.7723937988281250
0.5672550201416016,0.7542148590087890
0.5672550201416016,0.7542148590087890
0.5597373962402343,0.7378051757812499
0.5597373962402343,0.7378051757812499
0.5517923355102539,0.7234027862548827
0.5517923355102539,0.7234027862548827
0.5434719085693359,0.7039712905883789
0.5434719085693359,0.7039712905883789
0.5427400588989257,0.7006570816040039
0.5427400588989257,0.7006570816040039
0.5293733596801757,0.6896152496337891
0.5293733596801757,0.6896152496337891
0.5357711791992187,0.6879570007324218
0.5357711791992187,0.6879570007324218
0.5325159072875977,0.6891277313232421
0.5325159072875977,0.6891277313232421
0.5301641464233399,0.6824621200561524
0.5288829803466797,0.6824621200561524
0.5313451766967773,0.6886104583740235
0.5313451766967773,0.6886104583740235
0.5291450500488281,0.6837009429931641
0.5291450500488281,0.6837009429931641
0.5348339080810547,0.6868783950805664
0.5348339080810547,0.6868783950805664
0.5329816818237304,0.6916505813598632
0.5329816818237304,0.6916505813598632
0.5295278549194335,0.6887964248657227
0.5295278549194335,0.6887964248657227
0.5400421142578125,0.6991333007812500
0.5400421142578125,0.6991333007812500
0.5372411727905273,0.6986452102661133
0.5372411727905273,0.6986452102661133
0.5448274612426758,0.7072774887084960
0.5448274612426758,0.7072774887084960
0.5421215057373047,0.7178106307983398
0.5421215057373047,0.7178106307983398
0.5484941482543945,0.7193218231201172
0.5510908126831054,0.7193218231201172
0.5546979904174805,0.7316579818725586
0.5546979904174805,0.7316579818725586
0.5534053802490234,0.7309844970703124
0.5604314804077148,0.7309844970703124
0.5566383361816406,0.7374109268188477
0.5566383361816406,0.7374109268188477
0.5594261169433593,0.7436616897583007
0.5662342071533203,0.7436616897583007
0.5605075836181640,0.7406633377075195
0.5605075836181640,0.7406633377075195
0.5658599853515625,0.7491376876831054
0.5627689361572266,0.7491376876831054
0.5568099975585937,0.7455453872680664
0.5568099975585937,0.7455453872680664
0.5666467666625976,0.7492441177368164
0.5666467666625976,0.7492441177368164
0.5647687911987305,0.7538635253906250
0.5647687911987305,0.7538635253906250
0.5642841339111327,0.7493597030639648
0.5642841339111327,0.7493597030639648
0.5659400939941406,0.7570861816406250
0.5659400939941406,0.7570861816406250
0.5643888473510742,0.7527889251708985
0.5643888473510742,0.7527889251708985
0.5707448959350586,0.7559217453002930
0.5707448959350586,0.7559217453002930
0.5676990509033203,0.7600965499877930
0.5676990509033203,0.7600965499877930
0.5659429550170898,0.7604759216308593
0.5659429550170898,0.7596153259277344
0.5721857070922851,0.7580200195312500
0.5721857070922851,0.7580200195312500
0.5720964431762695,0.7641002655029296
0.5720964431762695,0.7641002655029296
0.5677883148193359,0.7585756301879882
0.5677883148193359,0.7585756301879882
0.5740242004394531,0.7646203994750976
0.5740242004394531,0.7646203994750976
0.5705297470092773,0.7642438888549804
0.5705297470092773,0.7642438888549804
0.5724002838134765,0.7618824005126953
0.5724002838134765,0.7618824005126953
0.5741535186767578,0.7687900543212890
0.5741535186767578,0.7687900543212890
0.5696147918701172,0.7626955032348632
0.5696147918701172,0.7626955032348632
0.5783981323242188,0.7686429977416992
0.5783981323242188,0.7686429977416992
0.5703157424926758,0.7674722671508789
0.5703157424926758,0.7674722671508789
0.5741174697875976,0.7660160064697266
0.5741174697875976,0.7660160064697266
0.5755468368530273,0.7724069595336914
0.5755468368530273,0.7724069595336914
0.5736282348632812,0.7661785125732422
0.5736282348632812,0.7661785125732422
0.5779489517211914,0.7713541030883789
0.5779489517211914,0.7713541030883789
0.5717800140380859,0.7711263656616211
0.5717800140380859,0.7711263656616211
0.5752367019653321,0.7691431045532227
0.5752367019653321,0.7691431045532227
0.5793313980102539,0.7754510879516602
0.5793313980102539,0.7754510879516602
0.5728466033935546,0.7684656143188476
0.5728466033935546,0.7684656143188476
0.5791179656982421,0.7746259689331054
0.5791179656982421,0.7746259689331054
0.5728420257568360,0.7737556457519531
0.5728420257568360,0.7737556457519531
0.5788209915161132,0.7714548110961914
0.5788209915161132,0.7714548110961914
0.5779083251953124,0.7760341644287109
0.5779083251953124,0.7760341644287109
0.5727407455444335,0.7681016921997070
0.5727407455444335,0.7681016921997070
0.5768280029296875,0.7687465667724609
0.5768280029296875,0.7687465667724609
0.5680366516113281,0.7551280975341796
0.5692726135253906,0.7551280975341796
0.5608589172363281,0.7333465576171875
0.5608589172363281,0.7333465576171875
0.5527112960815429,0.7209417343139648
0.5527112960815429,0.7209417343139648
0.5399745941162110,0.6998182296752929
0.5399745941162110,0.6998182296752929
0.5420385360717773,0.6951930999755859
0.5420385360717773,0.6951930999755859
0.5299970626831054,0.6867851257324219
0.5299970626831054,0.6867851257324219
0.5310190200805663,0.6804565429687500
0.5310190200805663,0.6804565429687500
0.5302940368652344,0.6830383300781250
0.5302940368652344,0.6830383300781250
0.5267423629760742,0.6743814468383789
0.5267423629760742,0.6743814468383789
0.5302888870239257,0.6781431198120117
0.5302888870239257,0.6781431198120117
0.5236730575561523,0.6766868591308594
0.5311386108398437,0.6766868591308594
0.5273294448852539,0.6746086120605469
0.5273294448852539,0.6746086120605469
0.5312232971191406,0.6811832427978516
0.5312232971191406,0.6811832427978516
0.5255281448364257,0.6752826690673828
0.5255281448364257,0.6752826690673828
0.5326572418212890,0.6831825256347656
0.5326572418212890,0.6831825256347656
0.5275302886962890,0.6847497940063476
0.5359291076660156,0.6847497940063476
0.5355119705200195,0.6866111755371094
0.5355119705200195,0.6866111755371094
0.5379026412963867,0.6973474502563476
0.5379026412963867,0.6973474502563476
0.5367662429809570,0.6977708816528320
0.5367662429809570,0.6977708816528320
0.5462087631225586,0.7101207733154297
0.5462087631225586,0.7101207733154297
0.5455410003662109,0.7154674530029297
0.5455410003662109,0.7154674530029297
0.5505878448486328,0.7186964035034179
0.5505878448486328,0.7186964035034179
0.5545812606811523,0.7299293518066406
0.5545812606811523,0.7299293518066406
0.5520189285278320,0.7274517059326172
0.5520189285278320,0.7274517059326172
0.5620845794677735,0.7363403320312499
0.5620845794677735,0.7363403320312499
0.5552564620971679,0.7370435714721679
0.5552564620971679,0.7370435714721679
0.5602489471435547,0.7375448226928710
0.5602489471435547,0.7375448226928710
0.5624479293823242,0.7453393936157227
0.5624479293823242,0.7453393936157227
0.5610322952270508,0.7406782150268555
0.5610322952270508,0.7406782150268555
0.5661008834838867,0.7469261169433593
0.5661008834838867,0.7469261169433593
0.5602746963500976,0.7474594116210938
0.5602746963500976,0.7474594116210938
0.5643562316894531,0.7466686248779296
0.5643562316894531,0.7466686248779296
0.5687931060791015,0.7536100387573242
0.5687931060791015,0.7536100387573242
0.5629240036010742,0.7477289199829101
0.5629240036010742,0.7477289199829101
0.5695312499999999,0.7547063827514648
0.5695312499999999,0.7547063827514648
0.5634189605712890,0.7541782379150390
0.5634189605712890,0.7541782379150390
0.5700599670410156,0.7531362533569336
0.5697257995605468,0.7603025436401367
0.5697257995605468,0.7591558456420898
0.5658033370971679,0.7540563583374024
0.5658033370971679,0.7540563583374024
0.5719974517822265,0.7604066848754882
0.5719974517822265,0.7604066848754882
0.5682867050170898,0.7596902847290039
0.5682867050170898,0.7596902847290039
0.5705932617187500,0.7576995849609375
0.5705932617187500,0.7576995849609375
0.5722509384155273,0.7646759033203124
0.5722509384155273,0.7646759033203124
0.5679170608520507,0.7588525772094726
0.5679170608520507,0.7588525772094726
0.5765356063842774,0.7649854660034180
0.5765356063842774,0.7649854660034180
0.5684057235717773,0.7635412216186523
0.5684057235717773,0.7635412216186523
0.5726240158081054,0.7624305725097656
0.5726240158081054,0.7624305725097656
0.5738605499267578,0.7687276840209961
0.5738605499267578,0.7687276840209961
0.5720460891723632,0.7627756118774414
0.5720460891723632,0.7627756118774414
0.5763324737548828,0.7681760787963867
0.5763324737548828,0.7681760787963867
0.5700553894042969,0.7674539566040038
0.5700553894042969,0.7674539566040038
0.5740201950073242,0.7658935546875000
0.5740201950073242,0.7658935546875000
0.5777572631835938,0.7721454620361328
0.5777572631835938,0.7721454620361328
0.5716157913208008,0.7655221939086914
0.5716157913208008,0.7655221939086914
0.5778991699218750,0.7718130111694336
0.5778991699218750,0.7718130111694336
0.5712272644042968,0.7706954956054687
0.5712272644042968,0.7706954956054687
0.5777481079101562,0.7689628601074219
0.5777481079101562,0.7689628601074219
0.5769578933715820,0.7741733551025390
0.5769578933715820,0.7741733551025390
0.5726417541503906,0.7680524826049805
0.5726417541503906,0.7680524826049805
0.5780948638916016,0.7725254058837890
0.5780948638916016,0.7725254058837890
0.5727224349975586,0.7679477691650390
0.5727224349975586,0.7679477691650390
0.5716707229614257,0.7565477371215820
0.5716707229614257,0.7565477371215820
0.5651939392089843,0.7453119277954101
0.5651939392089843,0.7453119277954101
0.5505695343017578,0.7192125320434570
0.5505695343017578,0.7192125320434570
0.5498645782470702,0.7081048965454101
0.5498645782470702,0.7081048965454101
0.5342548370361327,0.6937179565429688
0.5342548370361327,0.6937179565429688
0.5333450317382812,0.6838342666625976
0.5333450317382812,0.6838342666625976
0.5308553695678710,0.6837146759033202
0.5308553695678710,0.6837146759033202
0.5262170791625976,0.6730682373046875
0.5262170791625976,0.6730682373046875
0.5286609649658203,0.6749330520629883
0.5286609649658203,0.6749330520629883
0.5209997177124023,0.6715679168701172
0.5281894683837890,0.6715679168701172
0.5243167877197266,0.6685420989990234
0.5243167877197266,0.6685420989990234
0.5275085449218749,0.6739196777343750
0.5275085449218749,0.6739196777343750
0.5215690612792968,0.6673118591308593
0.5215690612792968,0.6673118591308593
0.5280149459838867,0.6738630294799804
0.5280149459838867,0.6738630294799804
0.5219770431518554,0.6733451843261719
0.5219770431518554,0.6733451843261719
0.5290729522705078,0.6735185623168946
0.5290729522705078,0.6735185623168946
0.5299776077270507,0.6815534591674804
0.5299776077270507,0.6815534591674804
0.5280035018920898,0.6798677444458008
0.5280035018920898,0.6798677444458008
0.5362890243530273,0.6908420562744141
0.5362890243530273,0.6908420562744141
0.5352201461791992,0.6956010818481445
0.5352201461791992,0.6956010818481445
0.5411241531372070,0.6997919082641602
0.5411241531372070,0.6997919082641602
0.5455398559570312,0.7124319076538086
0.5455398559570312,0.7124319076538086
0.5443696975708008,0.7120302200317382
0.5443696975708008,0.7120302200317382
0.5551958084106445,0.7228391647338867
0.5551958084106445,0.7228391647338867
0.5491161346435547,0.7249912261962891
0.5491161346435547,0.7249912261962891
0.5552536010742187,0.7272039413452148
0.5552536010742187,0.7272039413452148
0.5574588775634766,0.7356325149536133
0.5574588775634766,0.7356325149536133
0.5568494796752930,0.7320184707641602
0.5568494796752930,0.7320184707641602
0.5621034622192382,0.7389867782592773
0.5621034622192382,0.7389867782592773
0.5564140319824219,0.7396865844726562
0.5564140319824219,0.7396865844726562
0.5612977981567383,0.7395532608032226
0.5612977981567383,0.7395532608032226
0.5652957916259765,0.7468465805053711
0.5652957916259765,0.7468465805053711
0.5599920272827148,0.7414289474487304
0.5599920272827148,0.7414289474487304
0.5667291641235351,0.7486736297607421
0.5667291641235351,0.7486736297607421
0.5603668212890625,0.7483726501464844
0.5603668212890625,0.7483726501464844
0.5676109313964843,0.7477901458740234
0.5676109313964843,0.7477901458740234
0.5672000885009766,0.7539464950561523
0.5672000885009766,0.7539464950561523
0.5635911941528320,0.7489093780517578
0.5635911941528320,0.7489093780517578
0.5697996139526367,0.7556350708007812
0.5697996139526367,0.7556350708007812
0.5657455444335937,0.7548311233520507
0.5657455444335937,0.7548311233520507
0.5687129974365234,0.7533124923706055
0.5687129974365234,0.7533124923706055
0.5699810028076172,0.7600690841674804
0.5699810028076172,0.7600690841674804
0.5659086227416992,0.7546777725219727
0.5659086227416992,0.7546777725219727
0.5746135711669922,0.7609062194824219
0.5746135711669922,0.7609062194824219
0.5663583755493163,0.7593372344970702
0.5663583755493163,0.7593372344970702
0.5710258483886719,0.7586969375610352
0.5710258483886719,0.7586969375610352
0.5721038818359375,0.7649362564086913
0.5721038818359375,0.7649362564086913
0.5705217361450196,0.7592977523803711
0.5705217361450196,0.7592977523803711
0.5748407363891601,0.7649150848388672
0.5748407363891601,0.7649150848388672
0.5683467864990234,0.7639926910400391
0.5683467864990234,0.7639926910400391
0.5726612091064452,0.7627012252807617
0.5726612091064452,0.7627012252807617
0.5761299133300781,0.7688032150268554
0.5761299133300781,0.7688032150268554
0.5703060150146484,0.7623888015747070
0.5703060150146484,0.7623888015747070
0.5765150070190429,0.7687379837036132
0.5765150070190429,0.7687379837036132
0.5697326660156250,0.7673526763916015
0.5697326660156250,0.7673526763916015
0.5766088485717773,0.7661149978637695
0.5766088485717773,0.7661149978637695
0.5756967544555663,0.7714656829833985
0.5756967544555663,0.7714656829833985
0.5717485427856445,0.7659261703491210
0.5737260818481446,0.7659261703491210
0.5776021957397460,0.7717689514160156
0.5776021957397460,0.7717689514160156
0.5732219696044921,0.7704236984252929
0.5732219696044921,0.7704236984252929
0.5759719848632813,0.7683002471923828
0.5759719848632813,0.7683002471923828
0.5767433166503906,0.7744503021240234
0.5767433166503906,0.7744503021240234
0.5725851058959961,0.7680095672607422
0.5725851058959961,0.7680095672607422
0.5740774154663085,0.7665533065795899
0.5703929901123047,0.7665533065795899
0.5758993148803710,0.7677412033081055
0.5710876464843749,0.7677412033081055
0.5608514785766602,0.7484127044677734
0.5608514785766602,0.7484127044677734
0.5612445831298828,0.7317249298095703
0.5612445831298828,0.7317249298095703
0.5472295761108398,0.7153507232666015
0.5472295761108398,0.7153507232666015
0.5392564773559571,0.6956050872802734
0.5392564773559571,0.6956050872802734
0.5337781906127930,0.6916900634765625
0.5287988662719726,0.6916900634765625
0.5273128509521484,0.6788864135742188
0.5328844070434570,0.6788864135742188
0.5309263229370117,0.6767898559570312
0.5309263229370117,0.6767898559570312
0.5239213943481446,0.6754875183105469
0.5239213943481446,0.6754875183105469
0.5192596435546875,0.6678199768066406
0.5192596435546875,0.6678199768066406
0.5262937545776367,0.6725418090820312
0.5251928329467773,0.6725418090820312
0.5201894760131835,0.6659162521362304
0.5255052566528320,0.6659162521362304
0.5261215209960938,0.6685523986816406
0.5261215209960938,0.6685523986816406
0.5185455322265625,0.6716125488281249
0.5185455322265625,0.6716125488281249
0.5230842590332031,0.6678697586059570
0.5228462219238281,0.6678697586059570
0.5286930084228515,0.6756763458251953
0.5261186599731446,0.6756763458251953
0.5235019683837890,0.6722963333129882
0.5235019683837890,0.6722963333129882
0.5278701782226562,0.6791639328002930
0.5278701782226562,0.6791639328002930
0.5295930862426758,0.6864469528198242
0.5381549835205078,0.6864469528198242
0.5332820892333984,0.6878826141357421
0.5332820892333984,0.6878826141357421
0.5408077239990234,0.7003692626953125
0.5408077239990234,0.7003692626953125
0.5348854064941406,0.7014249801635742
0.5419509887695312,0.7014249801635742
0.5478916168212891,0.7109132766723633
0.5478916168212891,0.7109132766723633
0.5469989776611328,0.7187725067138672
0.5469989776611328,0.7187725067138672
0.5494646072387696,0.7188932418823242
0.5494646072387696,0.7188932418823242
0.5520286560058594,0.7290704727172851
0.5520286560058594,0.7290704727172851
0.5516298294067382,0.7264429092407226
0.5516298294067382,0.7264429092407226
0.5592618942260742,0.7324138641357422
0.5538654327392578,0.7324138641357422
0.5557966232299805,0.7368061065673828
0.5557966232299805,0.7368061065673828
0.5538516998291015,0.7344171524047851
0.5538516998291015,0.7344171524047851
0.5626516342163086,0.7424463272094727
0.5626516342163086,0.7424463272094727
0.5583068847656250,0.7381422042846679
0.5633411407470703,0.7381422042846679
0.5644443511962890,0.7428777694702148
0.5644443511962890,0.7428777694702148
0.5569238662719727,0.7467292785644531
0.5569238662719727,0.7467292785644531
0.5620342254638672,0.7433773040771484
0.5620342254638672,0.7433773040771484
0.5668138504028321,0.7508256912231445
0.5646966934204102,0.7508256912231445
0.5615839004516602,0.7458852767944336
0.5615839004516602,0.7458852767944336
0.5643201828002929,0.7505023956298827
0.5643201828002929,0.7505023956298827
0.5642120361328125,0.7538148880004882
0.5718893051147461,0.7538148880004882
0.5661117553710937,0.7501613616943359
0.5661117553710937,0.7501613616943359
0.5699037551879883,0.7572549819946289
0.5699037551879883,0.7572549819946289
0.5606323242187500,0.7523231506347656
0.5606323242187500,0.7523231506347656
0.5710401535034180,0.7565111160278321
0.5710401535034180,0.7565111160278321
0.5668590545654296,0.7595031738281249
0.5725708007812500,0.7595031738281249
0.5680566787719726,0.7553529739379883
0.5655796051025390,0.7553529739379883
0.5684772491455078,0.7624340057373047
0.5661918640136718,0.7624340057373047
0.5668052673339844,0.7570444107055664
0.5740333557128906,0.7570444107055664
0.5738834381103516,0.7608867645263672
0.5738834381103516,0.7608867645263672
0.5686729431152343,0.7635601043701171
0.5686729431152343,0.7635601043701171
0.5660339355468750,0.7592502593994140
0.5660339355468750,0.7592502593994140
0.5741226196289062,0.7661001205444335
0.5740705490112304,0.7661001205444335
0.5687639236450195,0.7606710433959961
0.5687639236450195,0.7606710433959961
0.5749740600585938,0.7642135620117188
0.5749740600585938,0.7642135620117188
0.5665311813354492,0.7670293807983398
0.5665311813354492,0.7670293807983398
0.5718286514282226,0.7627630233764648
0.5718286514282226,0.7627630233764648
0.5765968322753906,0.7695568084716796
0.5736522674560547,0.7695568084716796
0.5701807022094726,0.7639846801757812
0.5701807022094726,0.7639846801757812
0.5724088668823242,0.7677509307861328
0.5666553497314453,0.7677509307861328
0.5719127655029297,0.7703533172607422
0.5798915863037110,0.7703533172607422
0.5735109329223632,0.7659891128540038
0.5707523345947265,0.7659891128540038
0.5773075103759765,0.7722570419311523
0.5751331329345702,0.7722570419311523
0.5675828933715820,0.7667884826660156
0.5726240158081054,0.7667884826660156
0.5780187606811523,0.7704923629760742
0.5742256164550781,0.7704923629760742
0.5739292144775391,0.7727794647216797
0.5791574478149414,0.7727794647216797
0.5744144439697265,0.7680164337158203
0.5715929031372070,0.7680164337158203
0.5740247726440429,0.7737756729125976
0.5716003417968750,0.7737756729125976
0.5716787338256836,0.7663530349731446
0.5779609680175781,0.7663530349731446
0.5763113021850585,0.7650735855102538
0.5685401916503906,0.7650735855102538
0.5665643692016601,0.7546560287475585
0.5681499481201172,0.7546560287475585
0.5550487518310546,0.7309072494506835
0.5550487518310546,0.7309072494506835
0.5526283264160156,0.7182718276977539
0.5480094909667969,0.7182718276977539
0.5393520355224609,0.6974178314208984
0.5401102066040039,0.6974178314208984
0.5385337829589844,0.6901462554931640
0.5301612854003906,0.6901462554931640
0.5258646011352539,0.6852807998657227
0.5301527023315430,0.6852807998657227
0.5278976440429687,0.6755796432495117
0.5256208419799805,0.6755796432495117
0.5294122695922852,0.6780069351196288
0.5264717102050781,0.6780069351196288
0.5220199584960937,0.6691692352294921
0.5263401031494140,0.6691692352294921
0.5238424301147461,0.6708538055419921
0.5177118301391601,0.6708538055419921
0.5220153808593749,0.6720972061157227
0.5296451568603515,0.6720972061157227
0.5240598678588867,0.6673576354980468
0.5207324981689453,0.6673576354980468
0.5273757934570312,0.6740947723388672
0.5255910873413085,0.6740947723388672
0.5186983108520508,0.6691823959350586
0.5186983108520508,0.6691823959350586
0.5293573379516602,0.6743946075439453
0.5293573379516602,0.6743946075439453
0.5259315490722656,0.6794271469116211
0.5329559326171874,0.6794271469116211
0.5294998168945312,0.6786701202392578
0.5278152465820313,0.6786701202392578
0.5321651458740234,0.6904495239257812
0.5317548751831055,0.6904495239257812
0.5331447601318359,0.6907945632934570
0.5417066574096679,0.6907945632934570
0.5434690475463867,0.7006490707397460
0.5387844085693360,0.7006490707397460
0.5412242889404296,0.7092298507690430
0.5489965438842773,0.7092298507690430
0.5422576904296875,0.7104766845703124
0.5407573699951171,0.7104766845703124
0.5521917343139648,0.7219734191894531
0.5534002304077148,0.7219734191894531
0.5489805221557617,0.7205148696899414
0.5547483444213867,0.7205148696899414
0.5571229934692382,0.7274213790893554
0.5521608352661133,0.7274213790893554
0.5498090744018554,0.7328630447387695
0.5567367553710937,0.7328630447387695
0.5567527770996094,0.7309284210205078
0.5562257766723633,0.7309284210205078
0.5620691299438476,0.7395893096923828
0.5599662780761718,0.7395893096923828
0.5566835403442383,0.7356702804565429
0.5620113372802734,0.7356702804565429
0.5601018905639649,0.7410003662109375
0.5546791076660156,0.7410003662109375
0.5596406936645507,0.7447305679321289
0.5681533813476562,0.7447305679321289
0.5621309280395508,0.7416950225830078
0.5595085144042968,0.7416950225830078
0.5662221908569336,0.7492847442626953
0.5647653579711914,0.7492847442626953
0.5573427200317382,0.7447631835937499
0.5625583648681640,0.7447631835937499
0.5682374954223632,0.7495090484619140
0.5645290374755859,0.7495090484619140
0.5641073226928711,0.7526607513427734
0.5701217651367188,0.7526607513427734
0.5657821655273437,0.7491073608398438
0.5630601882934571,0.7491073608398438
0.5659532546997070,0.7564264297485351
0.5643110275268555,0.7564264297485351
0.5645055770874023,0.7514265060424804
0.5714836120605469,0.7514265060424804
0.5713296890258789,0.7558616638183594
0.5655921936035156,0.7558616638183594
0.5664258956909179,0.7584011077880859
0.5729661941528320,0.7584011077880859
0.5648214340209960,0.7549226760864257
0.5618717193603515,0.7549226760864257
0.5723773956298828,0.7620620727539062
0.5727516174316406,0.7620620727539062
0.5677654266357421,0.7567668914794922
0.5720003128051757,0.7567668914794922
0.5737369537353515,0.7610080718994140
0.5679908752441406,0.7610080718994140
0.5647722244262695,0.7634817123413086
0.5713777542114258,0.7634817123413086
0.5708484649658203,0.7595180511474610
0.5700891494750976,0.7595180511474610
0.5747045516967774,0.7664514541625976
0.5730319976806640,0.7664514541625976
0.5691741943359375,0.7607740402221680
0.5739646911621094,0.7607740402221680
0.5706293106079101,0.7675392150878906
0.5706293106079101,0.7675392150878906
0.5776016235351562,0.7656749725341797
0.5763376235961913,0.7701553344726563
0.5763376235961913,0.7701553344726563
0.5743154525756836,0.7720670700073242
0.5743154525756836,0.7711395263671875
0.5741334915161133,0.7657075881958008
0.5741334915161133,0.7657075881958008
0.5782144546508788,0.7708042144775390
0.5782144546508788,0.7708042144775390
0.5715253829956054,0.7691282272338867
0.5791025161743164,0.7691282272338867
0.5767313003540039,0.7685657501220703
0.5767313003540039,0.7685657501220703
0.5780496597290039,0.7741664886474610
0.5780496597290039,0.7741664886474610
0.5736431121826172,0.7681343078613281
0.5736431121826172,0.7681343078613281
0.5794818878173827,0.7740074157714844
0.5794818878173827,0.7740074157714844
0.5723642349243164,0.7719703674316406
0.5723642349243164,0.7719703674316406
0.5802062988281250,0.7713306427001952
0.5802062988281250,0.7713306427001952
0.5772050857543946,0.7762029647827148
0.5772050857543946,0.7762029647827148
0.5746101379394531,0.7705398559570312
0.5746101379394531,0.7705398559570312
0.5799419403076171,0.7752210617065429
0.5799419403076171,0.7752210617065429
0.5748579025268554,0.7713867187500000
0.5748579025268554,0.7713867187500000
0.5768245697021485,0.7668720245361328
0.5768245697021485,0.7668720245361328
0.5725582122802734,0.7643016815185547
0.5725582122802734,0.7643016815185547
0.5632947921752930,0.7441835403442383
0.5632947921752930,0.7441835403442383
0.5634109497070312,0.7333185195922851
0.5634109497070312,0.7333185195922851
0.5471826553344726,0.7163921356201172
0.5471826553344726,0.7163921356201172
0.5466705322265625,0.7053325653076171
0.5466705322265625,0.7053325653076171
0.5408323287963867,0.7029504776000977
0.5408323287963867,0.7029504776000977
0.5374122619628906,0.6923223495483398
0.5374122619628906,0.6923223495483398
0.5395643234252929,0.6946054458618164
0.5395643234252929,0.6946054458618164
0.5318653106689453,0.6908987045288085
0.5318653106689453,0.6908987045288085
0.5365613937377930,0.6899917602539062
0.5365613937377930,0.6899917602539062
0.5377510070800781,0.6958459854125977
0.5377510070800781,0.6958459854125977
0.5341890335083007,0.6909215927124023
0.5341890335083007,0.6909215927124023
0.5344293594360351,0.6956142425537110
0.5344293594360351,0.6956142425537110
0.5448841094970703,0.7059585571289062
0.5454900741577148,0.7059585571289062
0.5408151626586913,0.7052707672119141
0.5463495254516602,0.7052707672119141
0.5498079299926758,0.7155389785766602
0.5456880569458008,0.7155389785766602
0.5439073562622070,0.7241134643554688
0.5525127410888672,0.7241134643554688
0.5534963607788086,0.7261888504028320
0.5537544250488281,0.7261888504028320
0.5594919204711913,0.7379047393798828
0.5593070983886719,0.7379047393798828
0.5561456680297852,0.7356468200683594
0.5615421295166015,0.7356468200683594
0.5603239059448242,0.7428817749023438
0.5552742004394531,0.7428817749023438
0.5597906112670898,0.7472785949707031
0.5691753387451172,0.7472785949707031
0.5641565322875977,0.7449777603149413
0.5607553482055664,0.7449777603149413
0.5673213958740234,0.7530858993530273
0.5665534973144531,0.7530858993530273
0.5588682174682617,0.7485225677490234
0.5636610031127930,0.7485225677490234
0.5697355270385742,0.7538457870483398
0.5660734176635742,0.7538457870483398
0.5646966934204102,0.7565860748291016
0.5717765808105468,0.7565860748291016
0.5677053451538085,0.7531030654907226
0.5647396087646485,0.7531030654907226
0.5672767639160156,0.7606824874877930
0.5663303375244141,0.7606824874877930
0.5662794113159180,0.7554891586303710
0.5726972579956054,0.7554891586303710
0.5734519958496094,0.7600971221923828
0.5673168182373046,0.7600971221923828
0.5675668716430664,0.7626674652099609
0.5746284484863281,0.7626674652099609
0.5665666580200195,0.7589790344238281
0.5635471343994141,0.7589790344238281
0.5738164901733398,0.7660755157470703
0.5747079849243164,0.7660755157470703
0.5688829421997070,0.7605228424072266
0.5732786178588867,0.7605228424072266
0.5752218246459960,0.7647823333740235
0.5695947647094727,0.7647823333740235
0.5658256530761718,0.7671003341674805
0.5729593276977539,0.7671003341674805
0.5727121353149414,0.7634817123413086
0.5715888977050781,0.7634817123413086
0.5765298843383789,0.7703842163085938
0.5749454498291016,0.7703842163085938
0.5707895278930664,0.7646398544311523
0.5751932144165038,0.7646398544311523
0.5733461380004883,0.7690195083618164
0.5676029205322265,0.7690195083618164
0.5716604232788086,0.7710783004760742
0.5807367324829101,0.7710783004760742
0.5747737884521484,0.7673040390014648
0.5714630126953125,0.7673040390014648
0.5776416778564453,0.7738203048706055
0.5766008377075195,0.7738203048706055
0.5685247421264649,0.7681394577026367
0.5728683471679688,0.7681394577026367
0.5789011001586913,0.7726209640502929
0.5751800537109375,0.7726209640502929
0.5738771438598632,0.7744600296020507
0.5803527832031250,0.7744600296020507
0.5760950088500977,0.7704723358154296
0.5729496002197265,0.7704723358154296
0.5750719070434570,0.7769525527954101
0.5741592407226562,0.7769525527954101
0.5739738464355468,0.7709381103515625
0.5801931381225586,0.7709381103515625
0.5804306030273437,0.7754110336303711
0.5746049880981445,0.7754110336303711
0.5745512008666992,0.7767580032348632
0.5816093444824219,0.7767580032348632
0.5733736038208007,0.7729545593261719
0.5702104568481445,0.7729545593261719
0.5803436279296875,0.7795795440673828
0.5814393997192383,0.7795795440673828
0.5759141921997070,0.7734615325927734
0.5794715881347656,0.7734615325927734
0.5813861846923828,0.7777072906494140
0.5755960464477539,0.7777072906494140
0.5715728759765625,0.7792900085449218
0.5786705017089844,0.7792900085449218
0.5785354614257813,0.7753526687622070
0.5773229598999023,0.7753526687622070
0.5814250946044922,0.7817138671875000
0.5803773880004882,0.7817138671875000
0.5761579513549805,0.7750562667846680
0.5801965713500976,0.7750562667846680
0.5781721115112305,0.7792036056518554
0.5721914291381835,0.7792036056518554
0.5759422302246093,0.7797615051269531
0.5847043991088867,0.7797615051269531
0.5786647796630859,0.7737825393676757
0.5742095947265625,0.7737825393676757
0.5792266845703125,0.7757640838623047
0.5765945434570312,0.7757640838623047
0.5659606933593749,0.7586013793945312
0.5664052963256836,0.7586013793945312
0.5682689666748046,0.7463001251220703
0.5599090576171875,0.7463001251220703
0.5537652969360352,0.7305061340332031
0.5565576553344727,0.7305061340332031
0.5489788055419922,0.7121171951293945
0.5424728393554688,0.7121171951293945
0.5421930313110351,0.7080888748168945
0.5388816833496094,0.7080888748168945
0.5364830017089843,0.6946947097778320
0.5407127380371094,0.6946947097778320
0.5405485153198242,0.6947708129882812
0.5332386016845703,0.6947708129882812
0.5324272155761719,0.6934616088867187
0.5388490676879882,0.6934616088867187
0.5308238983154296,0.6880102157592773
0.5272848129272460,0.6880102157592773
0.5367656707763672,0.6938524246215820
0.5378225326538085,0.6938524246215820
0.5319974899291992,0.6878070831298828
0.5361202239990234,0.6878070831298828
0.5384302139282227,0.6929838180541992
0.5330343246459961,0.6929838180541992
0.5297716140747070,0.6961727142333984
0.5373985290527343,0.6961727142333984
0.5375392913818359,0.6947507858276367
0.5369316101074219,0.6947507858276367
0.5426616668701172,0.7047054290771484
0.5425889968872070,0.7047054290771484
0.5394836425781250,0.7031490325927734
0.5451129913330078,0.7031490325927734
0.5451232910156250,0.7138870239257812
0.5411453247070312,0.7138870239257812
0.5463975906372071,0.7221061706542968
0.5571516036987304,0.7221061706542968
0.5529893875122071,0.7248207092285156
0.5511308670043945,0.7248207092285156
0.5583749771118164,0.7364067077636719
0.5589488983154297,0.7364067077636719
0.5520126342773437,0.7346134185791016
0.5569999694824218,0.7346134185791016
0.5637359619140625,0.7425350189208985
0.5606740951538086,0.7425350189208985
0.5599531173706055,0.7464952468872070
0.5670324325561523,0.7464952468872070
0.5633451461791992,0.7446796417236328
0.5606214523315429,0.7446796417236328
0.5630207061767578,0.7527317047119141
0.5627552032470703,0.7527317047119141
0.5626962661743163,0.7478479385375977
0.5688205718994140,0.7478479385375977
0.5696823120117187,0.7537302017211914
0.5640947341918945,0.7537302017211914
0.5641468048095702,0.7557483673095703
0.5715608596801758,0.7557483673095703
0.5637496948242188,0.7530601501464843
0.5607170104980469,0.7530601501464843
0.5706756591796874,0.7602401733398437
0.5721021652221679,0.7602401733398437
0.5667280197143555,0.7545719146728516
0.5702716827392578,0.7545719146728516
0.5726034164428710,0.7600748062133789
0.5671382904052734,0.7600748062133789
0.5632215499877929,0.7618131637573242
0.5705131530761719,0.7618131637573242
0.5704439163208007,0.7586769104003906
0.5692296981811523,0.7586769104003906
0.5734365463256835,0.7656074523925781
0.5728546142578125,0.7656074523925781
0.5725502014160156,0.7593778610229492
0.5716123580932617,0.7593778610229492
0.5710853576660156,0.7649259567260742
0.5655384063720703,0.7649259567260742
0.5694156646728515,0.7664726257324218
0.5786899566650391,0.7664726257324218
0.5734771728515625,0.7633300781250000
0.5696525573730469,0.7633300781250000
0.5753969192504883,0.7699945449829101
0.5748624801635742,0.7699945449829101
0.5667474746704101,0.7639062881469726
0.5706716537475586,0.7639062881469726
0.5770820617675781,0.7690074920654296
0.5734228134155274,0.7690074920654296
0.5714017868041992,0.7704420089721680
0.5785823822021484,0.7704420089721680
0.5745529174804688,0.7669612884521484
0.5714281082153320,0.7669612884521484
0.5731464385986328,0.7737762451171875
0.5726800918579101,0.7737762451171875
0.5725296020507812,0.7675266265869141
0.5782619476318359,0.7675266265869141
0.5794567108154297,0.7724779129028320
0.5731967926025391,0.7724779129028320
0.5728797912597656,0.7737356185913086
0.5800649642944335,0.7737356185913086
0.5721118927001952,0.7701644897460938
0.5688508987426758,0.7701644897460938
0.5786470413208008,0.7768175125122070
0.5800237655639648,0.7768175125122070
0.5739870071411133,0.7703281402587890
0.5777023315429687,0.7703281402587890
0.5800918579101563,0.7751569747924805
0.5744710922241211,0.7751569747924805
0.5702465057373046,0.7764369964599609
0.5774877548217773,0.7764369964599609
0.5774459838867188,0.7729499816894531
0.5761962890625000,0.7729499816894531
0.5805776596069335,0.7793838500976562
0.5793176651000976,0.7793838500976562
0.5750719070434570,0.7728303909301758
0.5787380218505859,0.7728303909301758
0.5772342681884766,0.7777931213378906
0.5715511322021484,0.7777931213378906
0.5752767562866211,0.7784202575683593
0.5844160079956054,0.7784202575683593
0.5783300399780273,0.7744525909423828
0.5746393203735352,0.7744525909423828
0.5800203323364258,0.7791852951049805
0.5789680480957031,0.7791852951049805
0.5701469421386719,0.7698709487915039
0.5727676391601563,0.7698709487915039
0.5773818969726562,0.7667484283447266
0.5705223083496094,0.7667484283447266
0.5650394439697265,0.7511661529541015
0.5666496276855468,0.7511661529541015
0.5577049255371094,0.7280239105224610
0.5495344161987304,0.7280239105224610
0.5473457336425781,0.7171348571777344
0.5428493499755859,0.7171348571777344
0.5389308929443359,0.6975133895874023
0.5412689208984375,0.6975133895874023
0.5397668838500976,0.6937700271606445
0.5320186614990234,0.6937700271606445
0.5302711486816406,0.6882923126220702
0.5360778808593750,0.6882923126220702
0.5275737762451171,0.6809497833251953
0.5234184265136719,0.6809497833251953
0.5318012237548828,0.6843029022216797
0.5323551177978515,0.6843029022216797
0.5264928817749023,0.6756151199340820
0.5291776657104492,0.6756151199340820
0.5313549041748047,0.6794889450073242
0.5254131317138672,0.6794889450073242
0.5217075347900391,0.6794946670532226
0.5288085937500000,0.6794946670532226
0.5284080505371094,0.6762697219848632
0.5269672393798828,0.6762697219848632
0.5310842514038085,0.6830509185791015
0.5307512283325195,0.6830509185791015
0.5267589569091796,0.6773174285888671
0.5307203292846679,0.6773174285888671
0.5302362442016602,0.6843338012695312
0.5252523422241211,0.6843338012695312
0.5292434692382812,0.6875146865844727
0.5390602111816406,0.6875146865844727
0.5350776672363281,0.6882940292358398
0.5325376510620117,0.6882940292358398
0.5392461776733398,0.6997398376464844
0.5403997421264648,0.6997398376464844
0.5341283798217773,0.6993610382080078
0.5394887924194336,0.6993610382080078
0.5473634719848632,0.7109052658081054
0.5451650619506836,0.7109052658081054
0.5448200225830078,0.7175262451171874
0.5534196853637695,0.7175262451171874
0.5509014129638672,0.7197498321533203
0.5490880966186523,0.7197498321533203
0.5518535614013672,0.7308780670166015
0.5524097442626953,0.7308780670166015
0.5529178619384766,0.7281080245971679
0.5591165542602539,0.7281080245971679
0.5612794876098632,0.7364479064941406
0.5558298110961913,0.7364479064941406
0.5561777114868164,0.7392820358276367
0.5639047622680664,0.7392820358276367
0.5567739486694335,0.7383533477783203
0.5539873123168945,0.7383533477783203
0.5635425567626953,0.7462863922119141
0.5653141021728515,0.7462863922119141
0.5597602844238281,0.7411817550659180
0.5634876251220703,0.7411817550659180
0.5664796829223633,0.7476070404052734
0.5611730575561523,0.7476070404052734
0.5575618743896484,0.7492034912109374
0.5649318695068359,0.7492034912109374
0.5651435852050781,0.7472717285156250
0.5639814376831055,0.7472717285156250
0.5683765411376953,0.7545627593994141
0.5674753189086914,0.7545627593994141
0.5634916305541992,0.7489070892333984
0.5671297073364258,0.7489070892333984
0.5663658142089844,0.7550216674804687
0.5609138488769531,0.7550216674804687
0.5647584915161132,0.7558931350708008
0.5739372253417968,0.7558931350708008
0.5684875488281250,0.7537839889526367
0.5655778884887696,0.7554290771484374
0.5707208633422851,0.7605457305908203
0.5704547882080078,0.7605457305908203
0.5625263214111328,0.7548122406005859
0.5661603927612304,0.7548122406005859
0.5729850769042969,0.7606904983520507
0.5693790435791015,0.7606904983520507
0.5680389404296875,0.7612741470336913
0.5747314453125000,0.7612741470336913
0.5708868026733398,0.7590047836303710
0.5678003311157226,0.7590047836303710
0.5693069458007812,0.7656457901000976
0.5689132690429687,0.7656457901000976
0.5686717987060547,0.7595552444458008
0.5740219116210937,0.7595552444458008
0.5753059387207031,0.7652978897094727
0.5696428298950195,0.7652978897094727
0.5694419860839843,0.7653762817382812
0.5767742156982422,0.7653762817382812
0.5690763473510742,0.7631818771362304
0.5658691406249999,0.7631818771362304
0.5751766204833985,0.7697444915771484
0.5766529083251953,0.7697444915771484
0.5712781906127929,0.7635046005249023
0.5740774154663085,0.7635046005249023
0.5769435882568359,0.7691579818725586
0.5714469909667969,0.7691579818725586
0.5672441482543945,0.7691122055053711
0.5745609283447265,0.7691122055053711
0.5746347427368164,0.7666408538818359
0.5733135223388671,0.7666408538818359
0.5767518997192382,0.7730724334716796
0.5763731002807617,0.7730724334716796
0.5722166061401367,0.7664680480957031
0.5754941940307617,0.7664680480957031
0.5745512008666992,0.7722547531127929
0.5689556121826171,0.7722547531127929
0.5726995468139648,0.7719823837280273
0.5817970275878906,0.7719823837280273
0.5767959594726563,0.7696369171142577
0.5729307174682617,0.7696369171142577
0.5780771255493163,0.7759151458740234
0.5776771545410156,0.7759151458740234
0.5695249557495117,0.7693565368652343
0.5726966857910156,0.7693565368652343
0.5797056198120117,0.7746156692504883
0.5758283615112304,0.7746156692504883
0.5735858917236328,0.7734901428222656
0.5804643630981445,0.7734901428222656
0.5761602401733398,0.7689542770385742
0.5720746994018554,0.7689542770385742
0.5724597930908203,0.7709163665771485
0.5704565048217773,0.7709163665771485
0.5673419952392578,0.7528976440429688
0.5682374954223632,0.7528976440429688
0.5657524108886719,0.7398777008056641
0.5543014526367187,0.7398777008056641
0.5491304397583008,0.7200942993164062
0.5518690109252929,0.7200942993164062
0.5406709671020508,0.7020692825317383
0.5334938049316406,0.7020692825317383
0.5392885208129883,0.6967895507812499
0.5381412506103516,0.6967895507812499
0.5302825927734375,0.6825925827026367
0.5315832138061524,0.6825925827026367
0.5332168579101563,0.6821783065795898
0.5263669967651367,0.6821783065795898
0.5213464736938477,0.6774570465087890
0.5278026580810546,0.6774570465087890
0.5267217636108398,0.6718580245971679
0.5244054794311523,0.6718580245971679
0.5279542922973632,0.6757913589477539
0.5267921447753906,0.6757913589477539
0.5222425460815430,0.6678268432617187
0.5250606536865234,0.6678268432617187
0.5246772766113281,0.6727569580078124
0.5189947128295899,0.6727569580078124
0.5221492767333984,0.6719324111938476
0.5312730789184570,0.6719324111938476
0.5228038787841797,0.6698930740356445
0.5228038787841797,0.6698930740356445
0.5281265258789062,0.6766725540161133
0.5283130645751953,0.6766725540161133
0.5210111618041992,0.6715393066406250
0.5244237899780273,0.6715393066406250
0.5317039489746094,0.6794265747070313
0.5285957336425781,0.6794265747070313
0.5279428482055664,0.6817703247070312
0.5356458663940430,0.6817703247070312
0.5331018447875976,0.6839790344238281
0.5309978485107422,0.6839790344238281
0.5339893341064453,0.6954162597656249
0.5354999542236328,0.6954162597656249
0.5361688613891601,0.6949459075927734
0.5425518035888671,0.6949459075927734
0.5457309722900391,0.7067722320556641
0.5417404174804688,0.7067722320556641
0.5426862716674804,0.7114145278930664
0.5514575958251953,0.7114145278930664
0.5453544616699219,0.7145856857299805
0.5432464599609375,0.7145856857299805
0.5530500411987305,0.7252492904663086
0.5558944702148437,0.7252492904663086
0.5512006759643554,0.7224380493164062
0.5543998718261719,0.7224380493164062
0.5585186004638671,0.7312225341796875
0.5536920547485351,0.7312225341796875
0.5499675750732421,0.7328950881958007
0.5580207824707031,0.7328950881958007
0.5585443496704101,0.7329179763793945
0.5572568893432617,0.7329179763793945
0.5613813400268555,0.7409311294555664
0.5616760253906250,0.7409311294555664
0.5575607299804687,0.7359460830688477
0.5608303070068359,0.7359460830688477
0.5608692169189453,0.7432765960693359
0.5556444168090821,0.7432765960693359
0.5591566085815429,0.7437709808349610
0.5686792373657227,0.7437709808349610
0.5642532348632813,0.7430128097534180
0.5604463577270508,0.7430128097534180
0.5658433914184570,0.7502197265625000
0.5661174774169921,0.7502197265625000
0.5582616806030273,0.7449914932250976
0.5611948013305664,0.7449914932250976
0.5686248779296875,0.7517515182495117
0.5653003692626953,0.7517515182495117
0.5631036758422852,0.7515558242797852
0.5706773757934570,0.7515558242797852
0.5672744750976563,0.7502660751342773
0.5639488220214843,0.7502660751342773
0.5654863357543946,0.7572172164916992
0.5658187866210938,0.7572172164916992
0.5652791976928710,0.7518070220947265
0.5699134826660156,0.7518070220947265
0.5723396301269531,0.7581190109252930
0.5665580749511718,0.7581190109252930
0.5658216476440430,0.7574569702148437
0.5736036300659180,0.7574569702148437
0.5662416458129883,0.7560939788818359
0.5629308700561523,0.7560939788818359
0.5719099044799805,0.7627109527587891
0.5740779876708985,0.7627109527587891
0.5679410934448242,0.7569551467895508
0.5705245971679688,0.7569551467895508
0.5742267608642578,0.7628557205200195
0.5689161300659179,0.7628557205200195
0.5644031524658203,0.7622726440429687
0.5719791412353515,0.7622726440429687
0.5723613739013672,0.7608215332031250
0.5707328796386718,0.7608215332031250
0.5747297286987304,0.7670814514160156
0.5744270324707031,0.7670814514160156
0.5697875976562500,0.7610921859741211
0.5725112915039062,0.7610921859741211
0.5723104476928711,0.7671443939208984
0.5669586181640625,0.7671443939208984
0.5700164794921875,0.7660915374755859
0.5795351028442383,0.7660915374755859
0.5743228912353515,0.7644189834594727
0.5706710815429688,0.7644189834594727
0.5757041931152344,0.7703544616699218
0.5760543823242187,0.7703544616699218
0.5676132202148437,0.7645391464233399
0.5702865600585937,0.7645391464233399
0.5778310775756835,0.7703796386718750
0.5742593765258789,0.7703796386718750
0.5722320556640624,0.7691562652587890
0.5792009353637695,0.7691562652587890
0.5756755828857422,0.7676164627075195
0.5719688415527343,0.7676164627075195
0.5731836318969726,0.7735198974609375
0.5736499786376953,0.7735198974609375
0.5729352951049804,0.7675666809082031
0.5773572921752930,0.7675666809082031
0.5793611526489257,0.7734020233154296
0.5737947463989258,0.7734020233154296
0.5727350234985351,0.7717088699340821
0.5803407669067383,0.7717088699340821
0.5729804992675781,0.7699619293212890
0.5691724777221679,0.7699619293212890
0.5780284881591796,0.7754047393798827
0.5801725387573242,0.7754047393798827
0.5740465164184571,0.7678682327270507
0.5752017974853515,0.7678682327270507
0.5782562255859375,0.7701261520385742
0.5713165283203124,0.7701261520385742
0.5644632339477539,0.7589859008789063
0.5683759689331055,0.7589859008789063
0.5643693923950195,0.7392099380493163
0.5573272705078125,0.7392099380493163
0.5556461334228515,0.7249551773071289
0.5511995315551758,0.7249551773071289
0.5424041748046875,0.7018346786499023
0.5406509399414062,0.7018346786499023
0.5377412796020508,0.6950363159179688
0.5294277191162109,0.6950363159179688
0.5297636032104492,0.6850948333740234
0.5371782302856445,0.6850948333740234
0.5310928344726562,0.6771938323974609
0.5252815246582031,0.6771938323974609
0.5290248870849609,0.6780956268310546
0.5284320831298828,0.6780956268310546
0.5195297241210938,0.6680912017822266
0.5209980010986328,0.6680912017822266
0.5277517318725585,0.6711370468139648
0.5234647750854492,0.6711370468139648
0.5206501007080078,0.6680454254150391
0.5279457092285156,0.6680454254150391
0.5244415283203124,0.6651969909667969
0.5205396652221680,0.6651969909667969
0.5221326828002929,0.6707422256469726
0.5228147506713867,0.6707422256469726
0.5216176986694335,0.6648468017578125
0.5256477355957031,0.6648468017578125
0.5287055969238281,0.6710695266723633
0.5230012893676758,0.6710695266723633
0.5221601486206054,0.6707050323486328
0.5302345275878906,0.6707050323486328
0.5240335464477539,0.6710334777832031
0.5209493637084961,0.6710334777832031
0.5301303863525391,0.6798763275146484
0.5335161209106445,0.6798763275146484
0.5284137725830078,0.6779726028442382
0.5316324234008789,0.6779726028442382
0.5370180130004882,0.6886682510375977
0.5332534790039062,0.6886682510375977
0.5300708770751953,0.6933328628540039
0.5393829345703125,0.6933328628540039
0.5412151336669921,0.6980655670166015
0.5407711029052734,0.6980655670166015
0.5459833145141602,0.7098318099975586
0.5477537155151367,0.7098318099975586
0.5443542480468749,0.7090867996215821
0.5477148056030273,0.7090867996215821
0.5492340087890625,0.7194534301757812
0.5450489044189453,0.7194534301757812
0.5484535217285156,0.7218629837036132
0.5587978363037109,0.7218629837036132
0.5548181533813477,0.7236459732055663
0.5515199661254883,0.7236459732055663
0.5569782257080078,0.7319377899169922
0.5585346221923828,0.7319377899169922
0.5506696701049805,0.7283615112304688
0.5531393051147461,0.7283615112304688
0.5614900588989258,0.7359832763671875
0.5584093093872070,0.7359832763671875
0.5564208984375000,0.7362327575683594
0.5638978958129882,0.7362327575683594
0.5612056732177734,0.7365411758422852
0.5576248168945312,0.7365411758422852
0.5590438842773438,0.7437658309936523
0.5604337692260742,0.7437658309936523
0.5597866058349609,0.7392665863037109
0.5637067794799805,0.7392665863037109
0.5622093200683593,0.7462549209594727
0.5605310440063477,0.7455694198608398
0.5683708190917969,0.7455694198608398
0.5618700027465821,0.7454996109008789
0.5580499649047851,0.7454996109008789
0.5669488906860352,0.7524484634399414
0.5699993133544922,0.7524484634399414
0.5643888473510742,0.7474382400512695
0.5657312393188476,0.7474382400512695
0.5701932907104492,0.7539236068725585
0.5650732040405273,0.7539236068725585
0.5602392196655274,0.7529170989990234
0.5680114746093750,0.7529170989990234
0.5689252853393555,0.7524793624877929
0.5669425964355469,0.7524793624877929
0.5700965881347656,0.7587461471557617
0.5712839126586914,0.7587461471557617
0.5665369033813477,0.7532855987548828
0.5684011459350585,0.7532855987548828
0.5690929412841796,0.7595369338989257
0.5640363693237305,0.7595369338989257
0.5665517807006836,0.7585195541381836
0.5762363433837890,0.7585195541381836
0.5722320556640624,0.7575462341308593
0.5675720214843750,0.7575462341308593
0.5724260330200195,0.7637231826782226
0.5735841751098633,0.7637231826782226
0.5651195526123046,0.7583318710327148
0.5668207168579101,0.7583318710327148
0.5751131057739257,0.7641197204589844
0.5718521118164063,0.7641197204589844
0.5687747955322265,0.7628574371337891
0.5764503479003906,0.7628574371337891
0.5735195159912109,0.7616672515869141
0.5694351196289062,0.7616672515869141
0.5702877044677734,0.7677337646484375
0.5716238021850586,0.7677337646484375
0.5708129882812499,0.7622863769531250
0.5742433547973632,0.7622863769531250
0.5776170730590821,0.7678276062011719
0.5719041824340820,0.7678276062011719
0.5703111648559570,0.7663061141967773
0.5780616760253906,0.7663061141967773
0.5706298828124999,0.7647457122802734
0.5706298828124999,0.7647457122802734
0.5706298828124999,0.7646415710449218
0.5793148040771484,0.7681812286376953
0.5717834472656250,0.7681812286376953
0.5731927871704101,0.7707241058349609
0.5731927871704101,0.7707241058349609
0.5739870071411133,0.7664022445678711
0.5739870071411133,0.7664022445678711
0.5780851364135742,0.7729877471923828
0.5780851364135742,0.7729877471923828
0.5743778228759765,0.7674985885620117
0.5743778228759765,0.7674985885620117
0.5788724899291992,0.7709472656249999
0.5788724899291992,0.7709472656249999
0.5744504928588867,0.7735736846923827
0.5744504928588867,0.7735736846923827
0.5748184204101562,0.7691802978515625
0.5748184204101562,0.7691802978515625
0.5812797546386719,0.7755626678466797
0.5812797546386719,0.7755626678466797
0.5736585617065429,0.7695596694946288
0.5736585617065429,0.7695596694946288
0.5794069290161132,0.7722770690917968
0.5794069290161132,0.7722770690917968
0.5739595413208007,0.7729345321655273
0.5739595413208007,0.7729345321655273
0.5755027770996094,0.7639257431030273
0.5755027770996094,0.7639257431030273
0.5730010986328125,0.7583747863769531
0.5730010986328125,0.7583747863769531
0.5588447570800781,0.7343135833740234
0.5588447570800781,0.7343135833740234
0.5548736572265625,0.7188199996948242
0.5548736572265625,0.7188199996948242
0.5443628311157226,0.7060913085937500
0.5443628311157226,0.7060913085937500
0.5371559143066406,0.6900884628295898
0.5371559143066406,0.6900884628295898
0.5365430831909179,0.6888816833496093
0.5365430831909179,0.6888816833496093
0.5275022506713867,0.6777500152587891
0.5275022506713867,0.6777500152587891
0.5334022521972656,0.6771383285522461
0.5334022521972656,0.6771383285522461
0.5252363204956054,0.6760940551757812
0.5252363204956054,0.6760940551757812
0.5254262924194336,0.6693798065185547
0.5254262924194336,0.6693798065185547
0.5279434204101562,0.6744169235229492
0.5256294250488281,0.6744169235229492
0.5240581512451171,0.6680334091186523
0.5240581512451171,0.6680334091186523
0.5286695480346679,0.6712097167968750
0.5286695480346679,0.6712097167968750
0.5241737365722656,0.6738985061645507
0.5303930282592774,0.6738985061645507
0.5259973526000976,0.6705471038818359
0.5259973526000976,0.6705471038818359
0.5324930191040039,0.6788406372070312
0.5324930191040039,0.6788406372070312
0.5266284942626953,0.6759401321411133
0.5266284942626953,0.6759401321411133
0.5348819732666016,0.6835126876831055
0.5348819732666016,0.6835126876831055
0.5320936203002929,0.6908363342285156
0.5320936203002929,0.6908363342285156
0.5388576507568359,0.6923772811889648
0.5388576507568359,0.6923772811889648
0.5440464019775391,0.7048547744750976
0.5440464019775391,0.7048547744750976
0.5415498733520507,0.7052232742309570
0.5415498733520507,0.7052232742309570
0.5505191802978515,0.7140575408935547
0.5505191802978515,0.7140575408935547
0.5498926162719726,0.7212661743164063
0.5498926162719726,0.7212661743164063
0.5520589828491210,0.7207609176635742
0.5520589828491210,0.7207609176635742
0.5572568893432617,0.7305456161499023
0.5572568893432617,0.7305456161499023
0.5526391983032226,0.7277332305908203
0.5526391983032226,0.7277332305908203
0.5625308990478516,0.7336189270019531
0.5625308990478516,0.7336189270019531
0.5567853927612304,0.7377405166625977
0.5567853927612304,0.7377405166625977
0.5594289779663085,0.7351633071899414
0.5594289779663085,0.7351633071899414
0.5636283874511718,0.7432388305664063
0.5636283874511718,0.7432388305664063
0.5607759475708007,0.7391727447509765
0.5607759475708007,0.7391727447509765
0.5659126281738281,0.7439334869384765
0.5659126281738281,0.7439334869384765
0.5613870620727539,0.7474851608276367
0.5613870620727539,0.7474851608276367
0.5632942199707031,0.7442276000976562
0.5632942199707031,0.7442276000976562
0.5696393966674804,0.7518316268920898
0.5696393966674804,0.7518316268920898
0.5628902435302734,0.7471080780029297
0.5628902435302734,0.7471080780029297
0.5696056365966796,0.7515792846679688
0.5696056365966796,0.7515792846679688
0.5646686553955078,0.7546056747436524
0.5646686553955078,0.7546056747436524
0.5690935134887695,0.7510477066040039
0.5690935134887695,0.7510477066040039
0.5710613250732421,0.7582157135009765
0.5710613250732421,0.7582157135009765
0.5657575607299804,0.7530744552612304
0.5657575607299804,0.7530744552612304
0.5718246459960937,0.7574964523315429
0.5718246459960937,0.7574964523315429
0.5692537307739257,0.7602785110473632
0.5692537307739257,0.7602785110473632
0.5698167800903320,0.7563806533813476
0.5698167800903320,0.7563806533813476
0.5735315322875977,0.7633609771728516
0.5735315322875977,0.7633609771728516
0.5679416656494141,0.7580869674682617
0.5679416656494141,0.7580869674682617
0.5765161514282227,0.7623046875000000
0.5765161514282227,0.7623046875000000
0.5697097778320312,0.7646358489990234
0.5697097778320312,0.7646358489990234
0.5720655441284179,0.7607517242431641
0.5720655441284179,0.7607517242431641
0.5748355865478515,0.7675912857055663
0.5748355865478515,0.7675912857055663
0.5720438003540039,0.7621776580810546
0.5720438003540039,0.7621776580810546
0.5765985488891602,0.7660251617431640
0.5765985488891602,0.7660251617431640
0.5713039398193359,0.7683036804199218
0.5713039398193359,0.7683036804199218
0.5735326766967773,0.7642290115356445
0.5735326766967773,0.7642290115356445
0.5789154052734374,0.7709976196289062
0.5789154052734374,0.7709976196289062
0.5718114852905273,0.7653259277343750
0.5718114852905273,0.7653259277343750
0.5781206130981446,0.7692472457885742
0.5781206130981446,0.7692472457885742
0.5722784042358399,0.7715171813964844
0.5722784042358399,0.7715171813964844
0.5770677566528321,0.7673017501831054
0.5770677566528321,0.7673017501831054
0.5785446166992188,0.7739358901977539
0.5785446166992188,0.7739358901977539
0.5731401443481445,0.7681417465209961
0.5731401443481445,0.7681417465209961
0.5792272567749023,0.7721803665161132
0.5792272567749023,0.7721803665161132
0.5758907318115234,0.7742294311523438
0.5758907318115234,0.7742294311523438
0.5765453338623047,0.7699979782104492
0.5765453338623047,0.7699979782104492
0.5797559738159179,0.7764507293701172
0.5797559738159179,0.7764507293701172
0.5737083435058593,0.7706651687622070
0.5782161712646484,0.7706651687622070
0.5824121475219727,0.7747066497802734
0.5824121475219727,0.7747066497802734
0.5751920700073242,0.7764759063720703
0.5751920700073242,0.7764759063720703
0.5775266647338867,0.7719308853149414
0.5775266647338867,0.7719308853149414
0.5800878524780273,0.7778526306152344
0.5800878524780273,0.7778526306152344
0.5763404846191406,0.7706663131713867
0.5763404846191406,0.7706663131713867
0.5795070648193359,0.7718227386474609
0.5795070648193359,0.7718227386474609
0.5716266632080078,0.7669303894042968
0.5716266632080078,0.7669303894042968
0.5680406570434570,0.7496143341064453
0.5680406570434570,0.7496143341064453
0.5655155181884766,0.7396110534667969
0.5655155181884766,0.7396110534667969
0.5504945755004883,0.7182163238525391
0.5504945755004883,0.7182163238525391
0.5501976013183594,0.7099897384643554
0.5501976013183594,0.7099897384643554
0.5394069671630859,0.7028228759765625
0.5394069671630859,0.7028228759765625
0.5402017593383789,0.6927206039428710
0.5402017593383789,0.6927206039428710
0.5392484664916992,0.6951210021972656
0.5392484664916992,0.6951210021972656
0.5326641082763671,0.6867233276367187
0.5326641082763671,0.6867233276367187
0.5374614715576171,0.6894779205322266
0.5374614715576171,0.6894779205322266
0.5338279724121093,0.6910102844238281
0.5391952514648437,0.6910102844238281
0.5349952697753906,0.6871238708496094
0.5349952697753906,0.6871238708496094
0.5383438110351563,0.6943559646606445
0.5383438110351563,0.6943559646606445
0.5337438583374023,0.6899047851562500
0.5337438583374023,0.6899047851562500
0.5431137084960938,0.6968233108520507
0.5431137084960938,0.6968233108520507
0.5376520156860352,0.7022100448608398
0.5376520156860352,0.7022100448608398
0.5429271697998047,0.7032697677612304
0.5429271697998047,0.7032697677612304
0.5482561111450195,0.7157415390014649
0.5482561111450195,0.7157415390014649
0.5487321853637696,0.7163269042968750
0.5487321853637696,0.7163269042968750
0.5564380645751953,0.7268068313598632
0.5564380645751953,0.7268068313598632
0.5536199569702148,0.7336132049560546
0.5536199569702148,0.7336132049560546
0.5583709716796875,0.7338901519775390
0.5583709716796875,0.7338901519775390
0.5648872375488281,0.7436685562133789
0.5648872375488281,0.7436685562133789
0.5594959259033203,0.7399600982666016
0.5594959259033203,0.7399600982666016
0.5666439056396484,0.7463762283325195
0.5666439056396484,0.7463762283325195
0.5612852096557617,0.7497499465942382
0.5612852096557617,0.7497499465942382
0.5671817779541015,0.7471406936645507
0.5671817779541015,0.7471406936645507
0.5688440322875976,0.7548568725585937
0.5688440322875976,0.7548568725585937
0.5643436431884765,0.7495347976684570
0.5643436431884765,0.7495347976684570
0.5707929611206054,0.7548774719238281
0.5707929611206054,0.7548774719238281
0.5675222396850585,0.7574054718017578
0.5735670089721679,0.7574054718017578
0.5689744949340820,0.7542600631713867
0.5689744949340820,0.7542600631713867
0.5720855712890625,0.7612581253051758
0.5720855712890625,0.7612581253051758
0.5668012619018554,0.7557374954223632
0.5668012619018554,0.7557374954223632
0.5756784439086914,0.7608301162719726
0.5756784439086914,0.7608301162719726
0.5684040069580077,0.7628854751586914
0.5684040069580077,0.7628854751586914
0.5714933395385742,0.7594293594360352
0.5714933395385742,0.7594293594360352
0.5743314743041992,0.7663564682006836
0.5743314743041992,0.7663564682006836
0.5716661453247071,0.7606882095336914
0.5716661453247071,0.7606882095336914
0.5762191772460937,0.7655273437500000
0.5762191772460937,0.7655273437500000
0.5706075668334961,0.7673841476440429
0.5777801513671875,0.7673841476440429
0.5731475830078124,0.7638948440551757
0.5700736999511719,0.7638948440551757
0.5783540725708007,0.7706829071044922
0.5783540725708007,0.7706829071044922
0.5718011856079102,0.7646478652954102
0.5758100509643554,0.7646478652954102
0.5781400680541992,0.7693948745727539
0.5781400680541992,0.7693948745727539
0.5722297668457031,0.7711143493652344
0.5722297668457031,0.7711143493652344
0.5774070739746093,0.7676897048950195
0.5774070739746093,0.7676897048950195
0.5782670974731445,0.7740692138671875
0.5782670974731445,0.7740692138671875
0.5734508514404296,0.7679243087768555
0.5734508514404296,0.7679243087768555
0.5790767669677734,0.7727291107177734
0.5790767669677734,0.7727291107177734
0.5757963180541992,0.7742145538330077
0.5757963180541992,0.7742145538330077
0.5769699096679687,0.7705621719360352
0.5769699096679687,0.7705621719360352
0.5796781539916992,0.7769056320190429
0.5796781539916992,0.7769056320190429
0.5745557785034180,0.7707744598388672
0.5745557785034180,0.7707744598388672
0.5829408645629882,0.7755695343017578
0.5829408645629882,0.7755695343017578
0.5753093719482422,0.7769027709960937
0.5753093719482422,0.7769027709960937
0.5783220291137695,0.7731325149536132
0.5783220291137695,0.7731325149536132
0.5801971435546874,0.7795091629028320
0.5801971435546874,0.7795091629028320
0.5778911590576171,0.7732189178466796
0.5778911590576171,0.7732189178466796
0.5821809768676758,0.7780918121337891
0.5821809768676758,0.7780918121337891
0.5764577865600585,0.7790285110473633
0.5764577865600585,0.7790285110473633
0.5791843414306640,0.7755540847778321
0.5791843414306640,0.7755540847778321
0.5837253570556641,0.7817848205566406
0.5837253570556641,0.7817848205566406
0.5797204971313477,0.7818145751953125
0.5829374313354492,0.7818145751953125
0.5739486694335937,0.7757532119750976
0.5731933593749999,0.7757532119750976
0.5829574584960937,0.7810329437255860
0.5803058624267577,0.7810329437255860
0.5764120101928710,0.7756885528564453
0.5822410583496094,0.7756885528564453
0.5799499511718750,0.7727640151977538
0.5735492706298828,0.7727640151977538
0.5716489791870117,0.7702102661132812
0.5721559524536133,0.7702102661132812
0.5681819915771484,0.7520513534545898
0.5657918930053710,0.7520513534545898
0.5671377182006836,0.7432846069335938
0.5587034225463867,0.7432846069335938
0.5534042358398438,0.7257219314575195
0.5567636489868164,0.7257219314575195
0.5490858078002929,0.7156774520874023
0.5415298461914062,0.7156774520874023
0.5469486236572265,0.7127769470214843
0.5501140594482422,0.7127769470214843
0.5424219131469726,0.7023090362548828
0.5407041549682617,0.7023090362548828
0.5458190917968749,0.7052564620971680
0.5411464691162109,0.7052564620971680
0.5353036880493164,0.6999452590942382
0.5414657592773438,0.6999452590942382
0.5435743331909180,0.7002347946166992
0.5400867462158203,0.7002347946166992
0.5426519393920898,0.7053291320800781
0.5454414367675781,0.7053291320800781
0.5408294677734374,0.7010364532470703
0.5406417846679688,0.7010364532470703
0.5434415817260742,0.7091680526733398
0.5400541305541992,0.7091680526733398
0.5425586700439453,0.7080825805664063
0.5516138076782227,0.7080825805664063
0.5495841979980468,0.7130510330200195
0.5455621719360352,0.7130510330200195
0.5501638412475586,0.7225696563720703
0.5548439025878906,0.7225696563720703
0.5477605819702148,0.7232631683349610
0.5488180160522461,0.7232631683349610
0.5600011825561523,0.7355363845825195
0.5592870712280273,0.7355363845825195
0.5574508666992187,0.7367031097412109
0.5643299102783202,0.7367031097412109
0.5638641357421875,0.7417144775390625
0.5596292495727538,0.7417144775390625
0.5599073410034180,0.7491765975952148
0.5637474060058594,0.7491765975952148
0.5632965087890625,0.7461112976074219
0.5651092529296875,0.7461112976074219
0.5698860168457031,0.7545312881469727
0.5662530899047852,0.7545312881469727
0.5647218704223632,0.7517017364501953
0.5713560104370117,0.7517017364501953
0.5663108825683594,0.7541650772094727
0.5614746093749999,0.7541650772094727
0.5689281463623047,0.7596925735473633
0.5744739532470703,0.7596925735473633
0.5686557769775390,0.7552253723144531
0.5676200866699218,0.7552253723144531
0.5736951828002930,0.7622732162475586
0.5699838638305664,0.7622732162475586
0.5642498016357421,0.7587152481079101
0.5705486297607422,0.7587152481079101
0.5733180999755859,0.7605508804321289
0.5702081680297851,0.7605508804321289
0.5720088958740234,0.7653419494628906
0.5752510070800781,0.7653419494628906
0.5705881118774414,0.7602035522460937
0.5700227737426757,0.7602035522460937
0.5721227645874023,0.7671283721923828
0.5683153152465820,0.7671283721923828
0.5705566406250000,0.7633472442626953
0.5785554885864258,0.7633472442626953
0.5761407852172852,0.7651451110839843
0.5705400466918945,0.7651451110839843
0.5738422393798828,0.7696844100952148
0.5773893356323242,0.7696844100952148
0.5686489105224609,0.7645700454711913
0.5680131912231445,0.7645700454711913
0.5779821395874023,0.7711956024169921
0.5760629653930663,0.7711956024169921
0.5724981307983398,0.7673521041870117
0.5785915374755859,0.7673521041870117
0.5773046493530273,0.7687025070190430
0.5722349166870117,0.7687025070190430
0.5715883255004882,0.7733373641967773
0.5750616073608398,0.7733373641967773
0.5742599487304687,0.7681177139282226
0.5754793167114257,0.7681177139282226
0.5803447723388672,0.7747209548950195
0.5759513854980468,0.7747209548950195
0.5740562438964844,0.7705032348632812
0.5801925659179688,0.7705032348632812
0.5748481750488281,0.7720928192138672
0.5696788787841797,0.7720928192138672
0.5769601821899414,0.7763603210449218
0.5824092864990235,0.7763603210449218
0.5758438110351562,0.7711864471435547
0.5750976562500000,0.7711864471435547
0.5810039520263671,0.7774154663085937
0.5772205352783203,0.7774154663085937
0.5712890625000000,0.7731668472290039
0.5774145126342773,0.7731668472290039
0.5801668167114258,0.7749298095703124
0.5768222808837891,0.7749298095703124
0.5788982391357421,0.7790285110473633
0.5818490982055664,0.7790285110473633
0.5768583297729492,0.7736881256103515
0.5761774063110351,0.7736881256103515
0.5780799865722656,0.7800064086914062
0.5742874145507812,0.7800064086914062
0.5763587951660156,0.7755065917968750
0.5843708038330078,0.7755065917968750
0.5812763214111328,0.7771276473999024
0.5759553909301758,0.7771276473999024
0.5792203903198242,0.7809322357177734
0.5828161239624023,0.7809322357177734
0.5738370895385742,0.7757148742675781
0.5731058120727539,0.7757148742675781
0.5832487106323242,0.7821859359741211
0.5812877655029297,0.7821859359741211
0.5780891418457031,0.7774005889892578
0.5833711624145508,0.7774005889892578
0.5820768356323242,0.7789844512939453
0.5766511917114258,0.7789844512939453
0.5755863189697266,0.7821475982666015
0.5790802001953125,0.7821475982666015
0.5778991699218750,0.7752416610717773
0.5783740997314453,0.7752416610717773
0.5819011688232422,0.7783372879028320
0.5768114089965820,0.7783372879028320
0.5729204177856445,0.7652177810668945
0.5759519577026367,0.7652177810668945
0.5672178268432617,0.7518270492553710
0.5576293945312499,0.7518270492553710
0.5602741241455078,0.7376655578613281
0.5611925125122070,0.7376655578613281
0.5514884948730469,0.7162347793579101
0.5463804244995117,0.7162347793579101
0.5493101119995117,0.7102180480957031
0.5426713943481445,0.7102180480957031
0.5346662521362304,0.6964416503906250
0.5385669708251953,0.6964416503906250
0.5396747589111328,0.6926216125488281
0.5348814010620117,0.6926216125488281
0.5354358673095703,0.6923612594604492
0.5382379531860352,0.6923612594604492
0.5327173233032226,0.6840757369995117
0.5312902450561523,0.6840757369995117
0.5332952499389648,0.6888513565063477
0.5293270111083984,0.6888513565063477
0.5305984497070312,0.6831396102905273
0.5380565643310546,0.6831396102905273
0.5359148025512696,0.6847131729125976
0.5300594329833984,0.6847131729125976
0.5331510543823242,0.6886842727661132
0.5371335983276367,0.6886842727661132
0.5287982940673828,0.6838571548461914
0.5280961990356445,0.6838571548461914
0.5380708694458007,0.6914279937744140
0.5365293502807617,0.6914279937744140
0.5332723617553711,0.6882848739624023
0.5397096633911133,0.6882848739624023
0.5393617630004882,0.6931674957275390
0.5350164413452149,0.6931674957275390
0.5353425979614258,0.7009786605834961
0.5406171798706054,0.7009786605834961
0.5407350540161132,0.7010576248168945
0.5429695129394531,0.7010576248168945
0.5495149612426757,0.7134555816650391
0.5469554901123047,0.7134555816650391
0.5462013244628906,0.7147350311279297
0.5536663055419921,0.7147350311279297
0.5504390716552734,0.7226371765136719
0.5464187622070312,0.7226371765136719
0.5543615341186523,0.7313077926635742
0.5612857818603515,0.7313077926635742
0.5557657241821289,0.7300992965698242
0.5556140899658203,0.7300992965698242
0.5624622344970703,0.7395721435546875
0.5596172332763671,0.7395721435546875
0.5541446685791015,0.7375362396240234
0.5607181549072265,0.7375362396240234
0.5642955780029296,0.7422111511230468
0.5612148284912110,0.7422111511230468
0.5633983612060547,0.7475366592407227
0.5672309875488281,0.7475366592407227
0.5626905441284179,0.7440055847167969
0.5619913101196289,0.7440055847167969
0.5644729614257812,0.7516479492187500
0.5613166809082031,0.7516479492187500
0.5632055282592773,0.7478553771972656
0.5711357116699218,0.7478553771972656
0.5689350128173828,0.7513412475585938
0.5636392593383789,0.7513412475585938
0.5667652130126953,0.7555194854736328
0.5710172653198242,0.7555194854736328
0.5623895645141601,0.7515369415283203
0.5615581512451172,0.7515369415283203
0.5719379425048828,0.7587215423583984
0.5704244613647461,0.7587215423583984
0.5671623229980468,0.7544099807739257
0.5725067138671874,0.7544099807739257
0.5719453811645507,0.7575759887695312
0.5667068481445312,0.7575759887695312
0.5655773162841796,0.7617307662963867
0.5699283599853515,0.7617307662963867
0.5692399978637696,0.7572532653808594
0.5700931549072266,0.7572532653808594
0.5747159957885742,0.7641019821166992
0.5711477279663085,0.7641019821166992
0.5689996719360352,0.7594041824340820
0.5748865127563476,0.7594041824340820
0.5703809738159179,0.7626148223876953
0.5650829315185547,0.7626148223876953
0.5719511032104492,0.7664646148681641
0.5781297683715820,0.7664646148681641
0.5721559524536133,0.7617502212524414
0.5703763961791992,0.7617502212524414
0.5766614913940430,0.7685045242309571
0.5733489990234375,0.7685045242309571
0.5669254302978516,0.7637168884277343
0.5728483200073242,0.7637168884277343
0.5763147354125976,0.7666837692260742
0.5729759216308593,0.7666837692260742
0.5738914489746093,0.7704265594482421
0.5781068801879883,0.7704265594482421
0.5732425689697266,0.7653820037841796
0.5719917297363281,0.7653820037841796
0.5743114471435546,0.7720636367797852
0.5709491729736328,0.7720636367797852
0.5727201461791992,0.7671426773071289
0.5804677963256836,0.7671426773071289
0.5788324356079101,0.7701650619506836
0.5726446151733399,0.7701650619506836
0.5752716064453125,0.7735639572143554
0.5795608520507812,0.7735639572143554
0.5705709457397461,0.7687173843383789
0.5692245483398437,0.7687173843383789
0.5796964645385742,0.7751483917236328
0.5783557891845703,0.7751483917236328
0.5740568161010742,0.7700363159179687
0.5797811508178711,0.7700363159179687
0.5793451309204102,0.7727073669433594
0.5739349365234375,0.7727073669433594
0.5721496582031250,0.7760931015014648
0.5765699386596680,0.7760931015014648
0.5758689880371094,0.7712167739868164
0.5765121459960937,0.7712167739868164
0.5815526962280273,0.7776111602783203
0.5775959014892578,0.7776111602783203
0.5750375747680664,0.7723714828491210
0.5808454513549804,0.7723714828491210
0.5759445190429687,0.7748834609985351
0.5703500747680664,0.7748834609985351
0.5770683288574219,0.7778749465942383
0.5834987640380859,0.7778749465942383
0.5764972686767578,0.7721569061279296
0.5746192932128906,0.7721569061279296
0.5805479049682617,0.7763025283813476
0.5765264511108398,0.7763025283813476
0.5685550689697265,0.7667421340942383
0.5724929809570313,0.7667421340942383
0.5741203308105468,0.7581533432006836
0.5668104171752929,0.7581533432006836
0.5633617401123047,0.7428646087646484
0.5621063232421875,0.7428646087646484
0.5524732589721679,0.7189693450927734
0.5463409423828125,0.7189693450927734
0.5448034286499023,0.7095010757446288
0.5379352569580078,0.7095010757446288
0.5364480972290039,0.6925346374511718
0.5415000915527344,0.6925346374511718
0.5375318527221680,0.6875318527221680
0.5300891876220702,0.6875318527221680
0.5310161590576171,0.6848150253295898
0.5341815948486328,0.6848150253295898
0.5240753173828124,0.6758480072021484
0.5215988159179688,0.6758480072021484
0.5313085556030274,0.6787765502929687
0.5291170120239258,0.6787765502929687
0.5247825622558594,0.6708669662475586
0.5292760848999023,0.6708669662475586
0.5287307739257813,0.6718671798706054
0.5228261947631836,0.6718671798706054
0.5212154388427734,0.6738149642944335
0.5255012512207031,0.6738149642944335
0.5243688583374023,0.6683893203735352
0.5243848800659180,0.6683893203735352
0.5293830871582031,0.6746177673339844
0.5261020660400391,0.6746177673339844
0.5237525939941406,0.6696395874023438
0.5297573089599609,0.6696395874023438
0.5253255844116210,0.6721675872802734
0.5282123565673827,0.6721675872802734
0.5286838531494140,0.6800943374633789
0.5294179916381836,0.6800943374633789
0.5285282135009766,0.6829565048217773
0.5285282135009766,0.6829565048217773
0.5347486495971679,0.6856058120727538
0.5347486495971679,0.6856058120727538
0.5384107589721679,0.6970767974853516
0.5384107589721679,0.6970767974853516
0.5395980834960937,0.6971620559692383
0.5395980834960937,0.6971620559692383
0.5468095779418946,0.7081048965454101
0.5468095779418946,0.7081048965454101
0.5434255599975586,0.7119850158691406
0.5434255599975586,0.7119850158691406
0.5492992401123047,0.7142469406127929
0.5492992401123047,0.7142469406127929
0.5549142837524413,0.7237964630126953
0.5549142837524413,0.7237964630126953
0.5504259109497071,0.7211277008056640
0.5504259109497071,0.7211277008056640
0.5575035095214843,0.7281171798706054
0.5575035095214843,0.7281171798706054
0.5517528533935546,0.7292089462280273
0.5517528533935546,0.7292089462280273
0.5592590332031250,0.7289937973022461
0.5592590332031250,0.7289937973022461
0.5597780227661132,0.7367534637451172
0.5597780227661132,0.7367534637451172
0.5561897277832031,0.7323623657226562
0.5561897277832031,0.7323623657226562
0.5627660751342773,0.7387161254882812
0.5627660751342773,0.7387161254882812
0.5597826004028320,0.7394943237304688
0.5597826004028320,0.7394943237304688
0.5622076034545899,0.7392528533935546
0.5622076034545899,0.7392528533935546
0.5644254684448242,0.7462263107299805
0.5644254684448242,0.7462263107299805
0.5601591110229492,0.7419319152832031
0.5601591110229492,0.7419319152832031
0.5695655822753906,0.7480161666870117
0.5695655822753906,0.7480161666870117
0.5620164871215820,0.7486455917358398
0.5620164871215820,0.7486455917358398
0.5663738250732422,0.7472557067871094
0.5663738250732422,0.7472557067871094
0.5681070327758789,0.7541313171386719
0.5681070327758789,0.7541313171386719
0.5667778015136719,0.7494775772094726
0.5667778015136719,0.7494775772094726
0.5710327148437500,0.7554416656494141
0.5710327148437500,0.7554416656494141
0.5652740478515624,0.7549936294555664
0.5652740478515624,0.7549936294555664
0.5687725067138671,0.7536998748779297
0.5687725067138671,0.7536998748779297
0.5733764648437499,0.7602338790893555
0.5733764648437499,0.7602338790893555
0.5676486968994140,0.7556024551391601
0.5676486968994140,0.7556024551391601
0.5738571166992187,0.7605491638183594
0.5738571166992187,0.7605491638183594
0.5675909042358398,0.7601234436035156
0.5675909042358398,0.7601234436035156
0.5741683959960937,0.7588674545288085
0.5741683959960937,0.7588674545288085
0.5737609863281250,0.7653202056884766
0.5737609863281250,0.7653202056884766
0.5698711395263671,0.7598905563354492
0.5698711395263671,0.7598905563354492
0.5752927780151367,0.7650489807128906
0.5698362350463867,0.7650489807128906
0.5720695495605469,0.7644533157348633
0.5720695495605469,0.7644533157348633
0.5742233276367187,0.7632539749145507
0.5742233276367187,0.7632539749145507
0.5756023406982421,0.7688964843750000
0.5756023406982421,0.7688964843750000
0.5715591430664062,0.7637008666992188
0.5715591430664062,0.7637008666992188
0.5799036026000977,0.7687047958374024
0.5799036026000977,0.7687047958374024
0.5716678619384765,0.7682733535766602
0.5716678619384765,0.7682733535766602
0.5758609771728516,0.7663656234741211
0.5758609771728516,0.7663656234741211
0.5762849807739258,0.7722650527954101
0.5762849807739258,0.7722650527954101
0.5753362655639648,0.7670139312744141
0.5753362655639648,0.7670139312744141
0.5793874740600585,0.7723056793212890
0.5793874740600585,0.7723056793212890
0.5731590270996093,0.7708774566650390
0.5731590270996093,0.7708774566650390
0.5770751953125000,0.7693651199340820
0.5770751953125000,0.7693651199340820
0.5804174423217773,0.7751152038574218
0.5804174423217773,0.7751152038574218
0.5744544982910156,0.7698411941528320
0.5744544982910156,0.7698411941528320
0.5802349090576172,0.7737339019775390
0.5802349090576172,0.7737339019775390
0.5725221633911133,0.7713529586791992
0.5725221633911133,0.7713529586791992
0.5783094406127930,0.7667398452758789
0.5783094406127930,0.7667398452758789
0.5742725372314453,0.7647268295288085
0.5742725372314453,0.7647268295288085
0.5636867523193360,0.7430328369140625
0.5636867523193360,0.7430328369140625
0.5602878570556641,0.7288524627685546
0.5602878570556641,0.7288524627685546
0.5474401473999023,0.7112073898315430
0.5474401473999023,0.7112073898315430
0.5426565170288086,0.6968410491943359
0.5426565170288086,0.6968410491943359
0.5379409790039062,0.6926828384399414
0.5379409790039062,0.6926828384399414
0.5299055099487304,0.6807180404663086
0.5299055099487304,0.6807180404663086
0.5357803344726563,0.6805973052978516
0.5357803344726563,0.6805973052978516
0.5256631851196288,0.6756591796875000
0.5256631851196288,0.6756591796875000
0.5283536911010742,0.6706329345703125
0.5283536911010742,0.6706329345703125
0.5277065277099610,0.6738996505737305
0.5277065277099610,0.6738996505737305
0.5253015518188476,0.6670778274536132
0.5253015518188476,0.6670778274536132
0.5291799545288086,0.6709756851196289
0.5291799545288086,0.6709756851196289
0.5227512359619141,0.6692630767822265
0.5227512359619141,0.6692630767822265
0.5265060424804687,0.6678989410400390
0.5265060424804687,0.6678989410400390
0.5301115036010742,0.6743471145629882
0.5301115036010742,0.6743471145629882
0.5255481719970703,0.6709379196166992
0.5255481719970703,0.6709379196166992
0.5328111648559570,0.6778038024902343
0.5328111648559570,0.6778038024902343
0.5283182144165038,0.6807672500610351
0.5283182144165038,0.6807672500610351
0.5369974136352539,0.6842462539672851
0.5369974136352539,0.6842462539672851
0.5386362075805664,0.6956834793090820
0.5386362075805664,0.6956834793090820
0.5381063461303711,0.6957269668579101
0.5381063461303711,0.6957269668579101
0.5462677001953125,0.7058338165283203
0.5424030303955077,0.7058338165283203
0.5450695037841796,0.7096818923950196
0.5450695037841796,0.7096818923950196
0.5499738693237305,0.7126939773559570
0.5468421936035156,0.7126939773559570
0.5523027420043946,0.7217330932617188
0.5523027420043946,0.7217330932617188
0.5502874374389648,0.7193504333496094
0.5502874374389648,0.7193504333496094
0.5595520019531249,0.7266489028930664
0.5595520019531249,0.7266489028930664
0.5526529312133789,0.7280147552490234
0.5526529312133789,0.7280147552490234
0.5581529617309570,0.7280994415283203
0.5581529617309570,0.7280994415283203
0.5586856842041016,0.7355152130126953
0.5586856842041016,0.7355152130126953
0.5585947036743164,0.7318176269531250
0.5585947036743164,0.7318176269531250
0.5635740280151367,0.7382852554321289
0.5635740280151367,0.7382852554321289
0.5581781387329101,0.7381914138793945
0.5581781387329101,0.7381914138793945
0.5631706237792968,0.7383052825927734
0.5631706237792968,0.7383052825927734
0.5661048889160156,0.7454612731933593
0.5663824081420898,0.7454612731933593
0.5616674423217773,0.7415948867797851
0.5616674423217773,0.7415948867797851
0.5682426452636719,0.7471509933471679
0.5682426452636719,0.7471509933471679
0.5616771697998046,0.7469409942626953
0.5616771697998046,0.7469409942626953
0.5693349838256836,0.7467006683349610
0.5693349838256836,0.7467006683349610
0.5681299209594727,0.7534767150878906
0.5681299209594727,0.7534767150878906
0.5652597427368163,0.7485397338867187
0.5652597427368163,0.7485397338867187
0.5713365554809570,0.7540803909301758
0.5713365554809570,0.7540803909301758
0.5674964904785156,0.7534749984741210
0.5674964904785156,0.7534749984741210
0.5705989837646485,0.7532867431640625
0.5705989837646485,0.7532867431640625
0.5708175659179687,0.7588491439819336
0.5723442077636719,0.7588491439819336
0.5670856475830078,0.7539785385131835
0.5681676864624023,0.7539785385131835
0.5691318511962891,0.7592920303344727
0.5691318511962891,0.7592920303344727
0.5678043365478516,0.7585144042968750
0.5678043365478516,0.7585144042968750
0.5725255966186523,0.7571834564208985
0.5680120468139648,0.7571834564208985
0.5722440719604492,0.7628940582275391
0.5738382339477539,0.7628940582275391
0.5713651657104492,0.7577024459838867
0.5713651657104492,0.7577024459838867
0.5755617141723632,0.7631578445434570
0.5755617141723632,0.7631578445434570
0.5690397262573242,0.7611648559570312
0.5690397262573242,0.7611648559570312
0.5730360031127929,0.7601119995117187
0.5730360031127929,0.7601119995117187
0.5754026412963867,0.7656085968017577
0.5754026412963867,0.7656085968017577
0.5702596664428711,0.7605777740478515
0.5702596664428711,0.7605777740478515
0.5759605407714844,0.7646787643432617
0.5759605407714844,0.7646787643432617
0.5688863754272461,0.7625204086303711
0.5688863754272461,0.7625204086303711
0.5755542755126953,0.7610263824462891
0.5755542755126953,0.7610263824462891
0.5726606369018554,0.7662712097167969
0.5726606369018554,0.7662712097167969
0.5691341400146485,0.7596593856811523
0.5691341400146485,0.7596593856811523
0.5736917495727539,0.7638702392578125
0.5736917495727539,0.7638702392578125
0.5698207855224610,0.7615688323974609
0.5698207855224610,0.7615688323974609
0.5718881607055664,0.7601520538330078
0.5718881607055664,0.7601520538330078
0.5708747863769531,0.7644813537597656
0.5708747863769531,0.7644813537597656
0.5669523239135742,0.7582397460937500
0.5669523239135742,0.7582397460937500
0.5744070053100586,0.7622732162475586
0.5744070053100586,0.7622732162475586
0.5657712936401367,0.7600393295288086
0.5657712936401367,0.7600393295288086
0.5698276519775390,0.7569957733154297
0.5698276519775390,0.7569957733154297
0.5675411224365234,0.7602407455444335
0.5675411224365234,0.7602407455444335
0.5654262542724610,0.7508411407470703
0.5654262542724610,0.7508411407470703
0.5661443710327149,0.7468511581420898
0.5580139160156250,0.7468511581420898
0.5531867980957031,0.7295230865478516
0.5531867980957031,0.7295230865478516
0.5497415542602538,0.7122247695922851
0.5497415542602538,0.7122247695922851
0.5437145233154297,0.7036148071289062
0.5437145233154297,0.7036148071289062
0.5332643508911132,0.6878351211547852
0.5332643508911132,0.6878351211547852
0.5349500656127929,0.6852756500244140
0.5349500656127929,0.6852756500244140
0.5252918243408203,0.6783433914184570
0.5252918243408203,0.6783433914184570
0.5306287765502929,0.6739631652832031
0.5306287765502929,0.6739631652832031
0.5273895263671875,0.6777471542358399
0.5273895263671875,0.6777471542358399
0.5239929199218750,0.6705471038818359
0.5239929199218750,0.6705471038818359
0.5296039581298828,0.6751791000366211
0.5296039581298828,0.6751791000366211
0.5252889633178711,0.6733463287353515
0.5252889633178711,0.6733463287353515
0.5288251876831055,0.6733675003051758
0.5288251876831055,0.6733675003051758
0.5286844253540038,0.6796010971069336
0.5310304641723632,0.6796010971069336
0.5260803222656250,0.6759836196899414
0.5272567749023437,0.6759836196899414
0.5358610153198242,0.6841289520263671
0.5358610153198242,0.6841289520263671
0.5300325393676758,0.6866277694702149
0.5300325393676758,0.6866277694702149
0.5373956680297851,0.6901897430419922
0.5373956680297851,0.6901897430419922
0.5390848159790039,0.7009271621704102
0.5390848159790039,0.7009271621704102
0.5412860870361328,0.7003549575805664
0.5412860870361328,0.7003549575805664
0.5474510192871094,0.7103816986083984
0.5474510192871094,0.7103816986083984
0.5430713653564453,0.7113338470458984
0.5430713653564453,0.7113338470458984
0.5487699508666992,0.7135030746459960
0.5446500778198242,0.7135030746459960
0.5523799896240235,0.7217119216918945
0.5523799896240235,0.7217119216918945
0.5488517761230468,0.7189693450927734
0.5493249893188477,0.7250907897949218
0.5559156417846679,0.7256286621093749
0.5516704559326172,0.7256286621093749
0.5504104614257812,0.7254117965698242
0.5579853057861328,0.7254117965698242
0.5586456298828125,0.7263101577758789
0.5586456298828125,0.7263101577758789
0.5564466476440429,0.7338026046752929
0.5564466476440429,0.7338026046752929
0.5545600891113281,0.7290201187133789
0.5545600891113281,0.7290201187133789
0.5600761413574219,0.7358642578125000
0.5557291030883789,0.7358642578125000
0.5576288223266601,0.7347793579101562
0.5576288223266601,0.7347793579101562
0.5610614776611328,0.7357166290283202
0.5610614776611328,0.7357166290283202
0.5606168746948242,0.7415737152099610
0.5606168746948242,0.7415737152099610
0.5581237792968750,0.7369119644165039
0.5581237792968750,0.7369119644165039
0.5668046951293945,0.7433332443237305
0.5668046951293945,0.7433332443237305
0.5590290069580078,0.7422243118286133
0.5590290069580078,0.7422243118286133
0.5643070220947265,0.7418947219848633
0.5643070220947265,0.7418947219848633
0.5627237319946289,0.7479692459106445
0.5627237319946289,0.7479692459106445
0.5636449813842773,0.7433132171630860
0.5620342254638672,0.7433132171630860
0.5677259445190429,0.7499279022216797
0.5677259445190429,0.7499279022216797
0.5619386672973633,0.7474954605102538
0.5619386672973633,0.7474954605102538
0.5669517517089844,0.7477117538452148
0.5669517517089844,0.7477117538452148
0.5687753677368164,0.7538326263427734
0.5687753677368164,0.7538326263427734
0.5645931243896484,0.7496217727661133
0.5648763656616210,0.7496217727661133
0.5707025527954102,0.7550783157348633
0.5707025527954102,0.7550783157348633
0.5641519546508789,0.7534452438354492
0.5641519546508789,0.7534452438354492
0.5724695205688476,0.7537096023559570
0.5724695205688476,0.7537096023559570
0.5697996139526367,0.7604049682617188
0.5722801208496093,0.7604049682617188
0.5678318023681640,0.7549255371093749
0.5678318023681640,0.7549255371093749
0.5737209320068359,0.7612277984619140
0.5737209320068359,0.7612277984619140
0.5704547882080078,0.7593280792236328
0.5704547882080078,0.7593280792236328
0.5735395431518554,0.7600822448730469
0.5685607910156250,0.7600822448730469
0.5726652145385742,0.7653356552124023
0.5726652145385742,0.7653356552124023
0.5698390960693359,0.7604404449462890
0.5699609756469727,0.7604404449462890
0.5788106918334961,0.7666934967041016
0.5788106918334961,0.7666934967041016
0.5708702087402343,0.7650987625122070
0.5708702087402343,0.7650987625122070
0.5760211944580078,0.7646089553833008
0.5710853576660156,0.7646089553833008
0.5747686386108398,0.7702011108398438
0.5747686386108398,0.7702011108398438
0.5752212524414062,0.7652286529541016
0.5752212524414062,0.7652286529541016
0.5789594650268555,0.7718152999877930
0.5789594650268555,0.7718152999877930
0.5728832244873047,0.7688083648681641
0.5798086166381836,0.7688083648681641
0.5770923614501953,0.7686796188354492
0.5770923614501953,0.7686796188354492
0.5789978027343750,0.7740783691406250
0.5789978027343750,0.7740783691406250
0.5745271682739258,0.7686647415161133
0.5745271682739258,0.7686647415161133
0.5795991897583007,0.7724515914916992
0.5776674270629882,0.7664669036865234
0.5762615203857422,0.7579118728637695
0.5762615203857422,0.7579118728637695
0.5665723800659179,0.7487211227416992
0.5665723800659179,0.7487211227416992
0.5560232162475586,0.7247892379760742
0.5560232162475586,0.7247892379760742
0.5527467727661133,0.7149885177612304
0.5527467727661133,0.7149885177612304
0.5432264328002929,0.7003046035766601
0.5432264328002929,0.7003046035766601
0.5412906646728516,0.6923732757568359
0.5344757080078125,0.6923732757568359
0.5369899749755859,0.6916013717651367
0.5369899749755859,0.6916013717651367
0.5325696945190429,0.6822584152221679
0.5325696945190429,0.6822584152221679
0.5390207290649414,0.6857522964477539
0.5326807022094726,0.6857522964477539
0.5302539825439453,0.6817222595214844
0.5367256164550781,0.6817222595214844
0.5346559524536133,0.6801807403564453
0.5295261383056641,0.6801807403564453
0.5325908660888672,0.6852046966552734
0.5325908660888672,0.6852046966552734
0.5333227157592774,0.6801841735839843
0.5317131042480469,0.6801841735839843
0.5374551773071289,0.6873853683471679
0.5374551773071289,0.6873853683471679
0.5323104858398438,0.6853471755981445
0.5323104858398438,0.6853471755981445
0.5379936218261718,0.6879592895507812
0.5379936218261718,0.6879592895507812
0.5409811019897460,0.6971511840820312
0.5434696197509765,0.6971511840820312
0.5393709182739258,0.6974670410156250
0.5393709182739258,0.6974670410156250
0.5480192184448242,0.7086307525634765
0.5480192184448242,0.7086307525634765
0.5444555282592773,0.7120439529418945
0.5444555282592773,0.7120439529418945
0.5548730850219726,0.7178861618041992
0.5494274139404297,0.7178861618041992
0.5545183181762695,0.7290481567382813
0.5545183181762695,0.7290481567382813
0.5544015884399414,0.7270969390869141
0.5544015884399414,0.7270969390869141
0.5618156433105469,0.7364261627197265
0.5577529907226563,0.7364261627197265
0.5596052169799804,0.7364610671997071
0.5596052169799804,0.7364610671997071
0.5632982254028320,0.7391521453857421
0.5632982254028320,0.7391521453857421
0.5632919311523438,0.7455677032470703
0.5632919311523438,0.7455677032470703
0.5608222961425781,0.7415290832519531
0.5608222961425781,0.7415290832519531
0.5701761245727539,0.7486696243286133
0.5701761245727539,0.7486696243286133
0.5628570556640625,0.7474353790283202
0.5699357986450195,0.7474353790283202
0.5677047729492187,0.7475503921508789
0.5631299972534179,0.7475503921508789
0.5671669006347656,0.7538349151611328
0.5671669006347656,0.7538349151611328
0.5674421310424804,0.7493402481079101
0.5668046951293945,0.7493402481079101
0.5716461181640625,0.7564441680908203
0.5716461181640625,0.7564441680908203
0.5662622451782227,0.7537090301513671
0.5662622451782227,0.7537090301513671
0.5700536727905273,0.7544454574584961
0.5700536727905273,0.7544454574584961
0.5726629257202148,0.7605554580688476
0.5731338500976563,0.7605554580688476
0.5684572219848633,0.7563629150390625
0.5684572219848633,0.7563629150390625
0.5744939804077148,0.7620306015014648
0.5744939804077148,0.7620306015014648
0.5688280105590821,0.7597383499145508
0.5756549835205078,0.7597383499145508
0.5756412506103515,0.7602893829345703
0.5756412506103515,0.7602893829345703
0.5731567382812500,0.7668617248535156
0.5755393981933593,0.7668617248535156
0.5709411621093750,0.7610670089721679
0.5709411621093750,0.7610670089721679
0.5759479522705078,0.7672016143798828
0.5759479522705078,0.7672016143798828
0.5734216690063476,0.7647514343261719
0.5734216690063476,0.7647514343261719
0.5758495330810547,0.7657230377197265
0.5758495330810547,0.7657230377197265
0.5750890731811523,0.7704385757446289
0.5775135040283202,0.7704385757446289
0.5726572036743164,0.7652709960937499
0.5726572036743164,0.7652709960937499
0.5809066772460937,0.7713420867919921
0.5809066772460937,0.7713420867919921
0.5732070922851562,0.7690303802490234
0.5799591064453125,0.7690303802490234
0.5775117874145508,0.7686126708984374
0.5725856781005859,0.7686126708984374
0.5757614135742187,0.7740188598632812
0.5783454895019531,0.7740188598632812
0.5766105651855469,0.7684633255004882
0.5748310089111328,0.7684633255004882
0.5803430557250976,0.7754293441772461
0.5803430557250976,0.7754293441772461
0.5743652343750000,0.7710811614990234
0.5743652343750000,0.7710811614990234
0.5787288665771484,0.7714576721191406
0.5735847473144531,0.7714576721191406
0.5801948547363281,0.7771596908569336
0.5813341140747070,0.7771596908569336
0.5756813049316406,0.7719589233398437
0.5761144638061523,0.7719589233398437
0.5817535400390624,0.7772563934326172
0.5765653610229492,0.7772563934326172
0.5746982574462890,0.7734546661376953
0.5746982574462890,0.7734546661376953
0.5817878723144531,0.7731204986572265
0.5817878723144531,0.7731204986572265
0.5779775619506836,0.7771934509277344
0.5799625396728515,0.7771934509277344
0.5739383697509766,0.7657516479492187
0.5724861145019531,0.7657516479492187
0.5751194000244141,0.7598115921020507
0.5659996032714844,0.7598115921020507
0.5629091262817383,0.7373090744018554
0.5629091262817383,0.7373090744018554
0.5557050704956055,0.7187582015991211
0.5557050704956055,0.7187582015991211
0.5463855743408202,0.7076002120971679
0.5455421447753906,0.7076002120971679
0.5368125915527343,0.6899580001831055
0.5368125915527343,0.6899580001831055
0.5408638000488281,0.6885108947753906
0.5408638000488281,0.6885108947753906
0.5298780441284180,0.6792737960815429
0.5298780441284180,0.6792737960815429
0.5318035125732422,0.6744277954101562
0.5255184173583984,0.6744277954101562
0.5285476684570313,0.6758491516113281
0.5305446624755860,0.6758491516113281
0.5269821166992187,0.6672517776489257
0.5269821166992187,0.6672517776489257
0.5305206298828125,0.6725715637207031
0.5305206298828125,0.6725715637207031
0.5239860534667968,0.6666194915771484
0.5239860534667968,0.6666194915771484
0.5277254104614257,0.6671081542968750
0.5222660064697265,0.6671081542968750
0.5289104461669921,0.6720142364501953
0.5305074691772461,0.6720142364501953
0.5253427505493163,0.6668712615966796
0.5253427505493163,0.6668712615966796
0.5316770553588867,0.6733572006225585
0.5270605087280273,0.6733572006225585
0.5259309768676758,0.6703170776367188
0.5331899642944335,0.6703170776367188
0.5336042404174804,0.6735151290893554
0.5277574539184570,0.6735151290893554
0.5319471359252930,0.6822189331054688
0.5361557006835938,0.6822189331054688
0.5319362640380859,0.6795232772827148
0.5330371856689453,0.6795232772827148
0.5394001007080078,0.6906858444213867
0.5357276916503906,0.6906858444213867
0.5384536743164062,0.6914176940917969
0.5448423385620117,0.6914176940917969
0.5435457229614258,0.6978052139282226
0.5393852233886719,0.6978052139282226
0.5444389343261719,0.7063430786132813
0.5485519409179688,0.7063430786132813
0.5441368103027343,0.7041509628295898
0.5452028274536133,0.7041509628295898
0.5539833068847656,0.7140335083007813
0.5486074447631836,0.7140335083007813
0.5476043701171874,0.7134206771850585
0.5476043701171874,0.7134206771850585
0.5534088134765625,0.7162284851074219
0.5486669540405273,0.7162284851074219
0.5523714065551758,0.7233381271362305
0.5558635711669921,0.7233381271362305
0.5539278030395508,0.7194540023803710
0.5527656555175781,0.7194540023803710
0.5590187072753906,0.7284965515136719
0.5590187072753906,0.7284965515136719
0.5538511276245117,0.7254140853881835
0.5610706329345703,0.7254140853881835
0.5590610504150391,0.7284708023071289
0.5590610504150391,0.7284708023071289
0.5608388900756835,0.7355243682861328
0.5632902145385742,0.7355243682861328
0.5578708648681641,0.7322010040283203
0.5584350585937500,0.7322010040283203
0.5647464752197265,0.7399108886718749
0.5604526519775390,0.7399108886718749
0.5588350296020508,0.7373399734497070
0.5660419464111328,0.7373399734497070
0.5670679092407226,0.7407348632812499
0.5602832794189453,0.7407348632812499
0.5645095825195312,0.7480224609375000
0.5681350708007812,0.7480224609375000
0.5633594512939453,0.7430059432983398
0.5638080596923828,0.7430059432983398
0.5698339462280273,0.7510505676269531
0.5654216766357422,0.7510505676269531
0.5666210174560546,0.7482055664062500
0.5725307464599609,0.7482055664062500
0.5700605392456054,0.7516239166259765
0.5647756576538085,0.7516239166259765
0.5690397262573242,0.7568962097167968
0.5725461959838867,0.7568962097167968
0.5675645828247070,0.7585338592529297
0.5675645828247070,0.7585338592529297
0.5675645828247070,0.7572423934936523
0.5707660675048828,0.7547332763671875
0.5683038711547851,0.7547332763671875
0.5739446640014648,0.7621616363525391
0.5739446640014648,0.7621616363525391
0.5646183013916015,0.7564590454101562
0.5646183013916015,0.7564590454101562
0.5757825851440429,0.7623395919799805
0.5757825851440429,0.7623395919799805
0.5711362838745117,0.7631727218627929
0.5711362838745117,0.7631727218627929
0.5733306884765624,0.7602109909057617
0.5733306884765624,0.7602109909057617
0.5719316482543945,0.7673818588256835
0.5719316482543945,0.7673818588256835
0.5711534500122070,0.7612054824829101
0.5711534500122070,0.7612054824829101
0.5780879974365234,0.7668382644653320
0.5780879974365234,0.7668382644653320
0.5724580764770507,0.7672039031982422
0.5724580764770507,0.7672039031982422
0.5708141326904297,0.7641534805297852
0.5708141326904297,0.7641534805297852
0.5782848358154297,0.7713586807250976
0.5782848358154297,0.7713586807250976
0.5738428115844726,0.7651525497436523
0.5738428115844726,0.7651525497436523
0.5796730041503906,0.7705661773681640
0.5796730041503906,0.7705661773681640
0.5695466995239258,0.7707492828369140
0.5695466995239258,0.7707492828369140
0.5768749237060546,0.7676719665527344
0.5768749237060546,0.7676719665527344
0.5797960281372070,0.7741155624389648
0.5797960281372070,0.7741155624389648
0.5740625381469726,0.7666706085205078
0.5740625381469726,0.7666706085205078
0.5754220962524413,0.7699430465698242
0.5754220962524413,0.7699430465698242
0.5718755722045898,0.7637804031372070
0.5718755722045898,0.7637804031372070
0.5694293975830078,0.7452953338623046
0.5694293975830078,0.7452953338623046
0.5616308212280273,0.7308940887451172
0.5616308212280273,0.7308940887451172
0.5421689987182617,0.7045211791992188
0.5421689987182617,0.7045211791992188
0.5449001312255859,0.6949642181396484
0.5449001312255859,0.6949642181396484
0.5332225799560547,0.6848007202148437
0.5332225799560547,0.6848007202148437
0.5319259643554687,0.6738424301147461
0.5319259643554687,0.6738424301147461
0.5274078369140625,0.6744358062744140
0.5274078369140625,0.6744358062744140
0.5236907958984375,0.6633195877075195
0.5236907958984375,0.6633195877075195
0.5294603347778321,0.6654602050781250
0.5294603347778321,0.6654602050781250
0.5219730377197266,0.6633384704589843
0.5219730377197266,0.6633384704589843
0.5205614089965820,0.6586320877075195
0.5205614089965820,0.6586320877075195
0.5265867233276367,0.6645755767822266
0.5265867233276367,0.6645755767822266
0.5214809417724610,0.6574316024780273
0.5214809417724610,0.6574316024780273
0.5278678894042969,0.6626369476318359
0.5278678894042969,0.6626369476318359
0.5183012008666992,0.6627965927124023
0.5183012008666992,0.6627965927124023
0.5255619049072265,0.6604133605957031
0.5245862960815429,0.6604133605957031
0.5294363021850585,0.6683355331420898
0.5294363021850585,0.6683355331420898
0.5245513916015625,0.6640090942382812
0.5245513916015625,0.6640090942382812
0.5287038803100585,0.6724771499633789
0.5287038803100585,0.6724771499633789
0.5286352157592773,0.6763292312622070
0.5286352157592773,0.6763292312622070
0.5342760086059570,0.6779342651367187
0.5342760086059570,0.6779342651367187
0.5391506195068360,0.6894041061401367
0.5391506195068360,0.6894041061401367
0.5324781417846679,0.6877252578735351
0.5324781417846679,0.6877252578735351
0.5453927993774413,0.6977994918823242
0.5419647216796875,0.6977994918823242
0.5420551300048828,0.7015840530395507
0.5420551300048828,0.7015840530395507
0.5464387893676758,0.7020698547363281
0.5464387893676758,0.7020698547363281
0.5462831497192383,0.7115232467651367
0.5462831497192383,0.7115232467651367
0.5465360641479492,0.7075681686401367
0.5465360641479492,0.7075681686401367
0.5542900085449218,0.7150199890136718
0.5483264923095703,0.7150199890136718
0.5490159988403320,0.7164350509643554
0.5490159988403320,0.7164350509643554
0.5490262985229492,0.7152219772338867
0.5490262985229492,0.7152219772338867
0.5563682556152344,0.7236671447753906
0.5563682556152344,0.7236671447753906
0.5529470443725586,0.7191427230834960
0.5529470443725586,0.7191427230834960
0.5597465515136718,0.7265865325927734
0.5597465515136718,0.7265865325927734
0.5503509521484374,0.7280147552490234
0.5503509521484374,0.7280147552490234
0.5588665008544922,0.7273996353149413
0.5588665008544922,0.7273996353149413
0.5625326156616210,0.7361772537231445
0.5625326156616210,0.7361772537231445
0.5582479476928711,0.7317049026489257
0.5582479476928711,0.7317049026489257
0.5616685867309570,0.7393180847167968
0.5616685867309570,0.7393180847167968
0.5607089996337891,0.7410135269165039
0.5607089996337891,0.7410135269165039
0.5656534194946289,0.7402851104736328
0.5656534194946289,0.7402851104736328
0.5682065963745117,0.7486690521240235
0.5682065963745117,0.7486690521240235
0.5596029281616210,0.7437681198120117
0.5596029281616210,0.7437681198120117
0.5711202621459961,0.7506729125976562
0.5711202621459961,0.7506729125976562
0.5658496856689453,0.7516130447387696
0.5658496856689453,0.7516130447387696
0.5695816040039062,0.7499616622924804
0.5695816040039062,0.7499616622924804
0.5682374954223632,0.7577144622802734
0.5682374954223632,0.7577144622802734
0.5679691314697265,0.7523122787475586
0.5679691314697265,0.7523122787475586
0.5755165100097656,0.7585006713867187
0.5755165100097656,0.7585006713867187
0.5689945220947266,0.7587381362915039
0.5689945220947266,0.7587381362915039
0.5683834075927734,0.7565551757812500
0.5683834075927734,0.7565551757812500
0.5752063751220703,0.7637569427490234
0.5752063751220703,0.7637569427490234
0.5705589294433594,0.7578071594238281
0.5705589294433594,0.7578071594238281
0.5770786285400390,0.7633707046508789
0.5770786285400390,0.7633707046508789
0.5667308807373047,0.7634130477905273
0.5667308807373047,0.7634130477905273
0.5747514724731445,0.7611597061157226
0.5747514724731445,0.7611597061157226
0.5778551101684570,0.7679832458496093
0.5778551101684570,0.7679832458496093
0.5722045898437500,0.7619018554687500
0.5722045898437500,0.7619018554687500
0.5745552062988281,0.7674379348754883
0.5745552062988281,0.7674379348754883
0.5727121353149414,0.7671953201293945
0.5727121353149414,0.7671953201293945
0.5765539169311523,0.7647846221923827
0.5765539169311523,0.7647846221923827
0.5786270141601563,0.7712047576904296
0.5786270141601563,0.7712047576904296
0.5692199707031250,0.7645946502685547
