REDsignal,IRsignal
0.5361545562744140,0.6251255035400390
0.5321485519409179,0.6153293609619140
0.5321485519409179,0.6153293609619140
0.5408786773681641,0.6245698928833008
0.5408786773681641,0.6245698928833008
0.5315214157104492,0.6225563049316406
0.5315214157104492,0.6225563049316406
0.5394739151000977,0.6224807739257813
0.5394739151000977,0.6224807739257813
0.5386293411254882,0.6306747436523438
0.5386293411254882,0.6306747436523438
0.5354015350341796,0.6217964172363281
0.5354015350341796,0.6217964172363281
0.5443456649780273,0.6328496932983398
0.5443456649780273,0.6328496932983398
0.5356212615966797,0.6312194824218750
0.5356212615966797,0.6312194824218750
0.5436326980590820,0.6318952560424804
0.5436326980590820,0.6318952560424804
0.5433849334716797,0.6403736114501953
0.5433849334716797,0.6403736114501953
0.5403247833251953,0.6330768585205078
0.5403247833251953,0.6330768585205078
0.5495836257934570,0.6440952301025390
0.5495836257934570,0.6440952301025390
0.5408031463623046,0.6425622940063477
0.5408031463623046,0.6425622940063477
0.5489141464233398,0.6426572799682617
0.5489141464233398,0.6426572799682617
0.5485090255737305,0.6513582229614258
0.5485090255737305,0.6513582229614258
0.5452497482299804,0.6431493759155273
0.5452497482299804,0.6431493759155273
0.5538717269897461,0.6532133102416992
0.5538717269897461,0.6532133102416992
0.5450918197631835,0.6508993148803711
0.5450918197631835,0.6508993148803711
0.5527473449707031,0.6515207290649414
0.5527473449707031,0.6515207290649414
0.5523817062377929,0.6597215652465820
0.5571790695190429,0.6597215652465820
0.5490434646606445,0.6518365859985351
0.5490434646606445,0.6518365859985351
0.5579275131225586,0.6616207122802734
0.5579275131225586,0.6616207122802734
0.5496196746826172,0.6611520767211914
0.5496196746826172,0.6611520767211914
0.5575229644775390,0.6620183944702148
0.5575229644775390,0.6620183944702148
0.5572505950927734,0.6707164764404296
0.5572505950927734,0.6707164764404296
0.5543157577514648,0.6625619888305664
0.5543157577514648,0.6625619888305664
0.5624862670898437,0.6717967987060547
0.5624862670898437,0.6717967987060547
0.5528852462768554,0.6669256210327148
0.5528852462768554,0.6669256210327148
0.5574954986572266,0.6604345321655273
0.5574954986572266,0.6604345321655273
0.5528572082519531,0.6586984634399414
0.5528572082519531,0.6586984634399414
0.5451787948608399,0.6417188644409180
0.5451787948608399,0.6417188644409180
0.5495962142944336,0.6432220458984375
0.5495962142944336,0.6432220458984375
0.5378665924072266,0.6350326538085938
0.5378665924072266,0.6350326538085938
0.5349918365478515,0.6279602050781250
0.5349918365478515,0.6279602050781250
0.5437265396118164,0.6304653167724609
0.5437265396118164,0.6304653167724609
0.5358472824096679,0.6311004638671874
0.5358472824096679,0.6311004638671874
0.5381109237670898,0.6247060775756835
0.5381109237670898,0.6247060775756835
0.5426456451416015,0.6331512451171875
0.5426456451416015,0.6331512451171875
0.5333284378051758,0.6252296447753906
0.5333284378051758,0.6252296447753906
0.5438026428222656,0.6297723770141601
0.5438026428222656,0.6297723770141601
0.5362277984619140,0.6325521469116211
0.5362277984619140,0.6325521469116211
0.5394922256469726,0.6274847030639649
0.5394922256469726,0.6274847030639649
0.5448354721069336,0.6378376007080078
0.5448354721069336,0.6378376007080078
0.5358970642089843,0.6302845001220703
0.5358970642089843,0.6302845001220703
0.5471729278564453,0.6363916397094727
0.5471729278564453,0.6363916397094727
0.5397954940795898,0.6402969360351562
0.5397954940795898,0.6402969360351562
0.5436378479003906,0.6365118026733398
0.5436378479003906,0.6365118026733398
0.5494125366210937,0.6475147247314453
0.5494125366210937,0.6475147247314453
0.5406183242797852,0.6406282424926758
0.5406183242797852,0.6406282424926758
0.5523090362548828,0.6475547790527344
0.5523090362548828,0.6475547790527344
0.5450345993041992,0.6521066665649414
0.5450345993041992,0.6521066665649414
0.5490543365478515,0.6479352951049805
0.5490543365478515,0.6479352951049805
0.5550155639648438,0.6593101501464843
0.5550155639648438,0.6593101501464843
0.5459255218505860,0.6524042129516602
0.5459255218505860,0.6524042129516602
0.5576305389404297,0.6592529296874999
0.5576305389404297,0.6592529296874999
0.5502273559570312,0.6628492355346679
0.5502273559570312,0.6628492355346679
0.5539255142211914,0.6584444046020508
0.5539255142211914,0.6584444046020508
0.5596864700317382,0.6693712234497070
0.5596864700317382,0.6693712234497070
0.5504493713378906,0.6622209548950195
0.5504493713378906,0.6622209548950195
0.5617864608764648,0.6679224014282227
0.5617864608764648,0.6679224014282227
0.5540170669555664,0.6712234497070312
0.5540170669555664,0.6712234497070312
0.5575281143188476,0.6659328460693359
0.5575281143188476,0.6659328460693359
0.5628175735473633,0.6764390945434570
0.5628175735473633,0.6764390945434570
0.5532251358032226,0.6679229736328125
0.5532251358032226,0.6679229736328125
0.5638452529907226,0.6722047805786132
0.5638452529907226,0.6722047805786132
0.5551494598388672,0.6725069046020508
0.5551494598388672,0.6725069046020508
0.5559288024902344,0.6618890762329102
0.5559288024902344,0.6618890762329102
0.5577438354492187,0.6636674880981445
0.5577438354492187,0.6636674880981445
0.5445699691772461,0.6479175567626952
0.5445699691772461,0.6479175567626952
0.5519714355468750,0.6458169937133789
0.5456703186035156,0.6458169937133789
0.5416414260864257,0.6434743881225585
0.5416414260864257,0.6434743881225585
0.5422416687011719,0.6329040527343750
0.5422416687011719,0.6329040527343750
0.5456760406494140,0.6387639999389648
0.5456760406494140,0.6387639999389648
0.5347887039184570,0.6281032562255859
0.5347887039184570,0.6281032562255859
0.5445362091064453,0.6311725616455078
0.5445362091064453,0.6311725616455078
0.5363805770874023,0.6325143814086914
0.5363805770874023,0.6325143814086914
0.5387941360473633,0.6260318756103516
0.5387941360473633,0.6260318756103516
0.5438398361206055,0.6352209091186524
0.5438398361206055,0.6352209091186524
0.5343652725219726,0.6273513793945312
0.5343652725219726,0.6273513793945312
0.5450855255126953,0.6321744918823242
0.5450855255126953,0.6321744918823242
0.5376794815063476,0.6353891372680663
0.5376794815063476,0.6353891372680663
0.5412139892578125,0.6308458328247070
0.5412139892578125,0.6308458328247070
0.5467020034790039,0.6417594909667969
0.5467020034790039,0.6417594909667969
0.5380245208740234,0.6349691390991211
0.5380245208740234,0.6349691390991211
0.5492391586303711,0.6414196014404296
0.5492391586303711,0.6414196014404296
0.5425249099731445,0.6455978393554688
0.5425249099731445,0.6455978393554688
0.5460823059082031,0.6419591903686523
0.5460823059082031,0.6419591903686523
0.5515794754028320,0.6521650314331054
0.5515794754028320,0.6521650314331054
0.5428882598876953,0.6449592590332031
0.5428882598876953,0.6449592590332031
0.5533395767211914,0.6499071121215820
0.5533395767211914,0.6499071121215820
0.5457624435424805,0.6524173736572265
0.5457624435424805,0.6524173736572265
0.5485279083251953,0.6462284088134765
0.5485279083251953,0.6462284088134765
0.5529218673706054,0.6544589996337891
0.5529218673706054,0.6544589996337891
0.5433603286743164,0.6455005645751953
0.5433603286743164,0.6455005645751953
0.5532903671264648,0.6496410369873047
0.5532903671264648,0.6496410369873047
0.5452995300292969,0.6508111953735352
0.5452995300292969,0.6508111953735352
0.5476341247558594,0.6447938919067383
0.5476341247558594,0.6447938919067383
0.5522964477539062,0.6531148910522461
0.5522964477539062,0.6531148910522461
0.5431600570678711,0.6453626632690429
0.5431600570678711,0.6453626632690429
0.5530614852905273,0.6493566513061523
0.5530614852905273,0.6493566513061523
0.5459146499633789,0.6520196914672851
0.5459146499633789,0.6520196914672851
0.5486520767211914,0.6469430923461914
0.5486520767211914,0.6469430923461914
0.5536102294921875,0.6563083648681640
0.5536102294921875,0.6563083648681640
0.5447175979614257,0.6485046386718750
0.5447175979614257,0.6485046386718750
0.5545286178588867,0.6522113800048828
0.5545286178588867,0.6522113800048828
0.5465080261230468,0.6528213500976562
0.5465080261230468,0.6528213500976562
0.5476232528686523,0.6439893722534179
0.5476232528686523,0.6439893722534179
0.5501409530639648,0.6476497650146484
0.5501409530639648,0.6476497650146484
0.5387002944946289,0.6349302291870117
0.5387002944946289,0.6349302291870117
0.5466602325439452,0.6351968765258789
0.5466602325439452,0.6351968765258789
0.5374700546264648,0.6342636108398437
0.5444480895996093,0.6342636108398437
0.5388467788696288,0.6255266189575195
0.5388467788696288,0.6255266189575195
0.5426662445068359,0.6322946548461914
0.5426662445068359,0.6322946548461914
0.5323762893676758,0.6223308563232421
0.5323762893676758,0.6223308563232421
0.5424230575561523,0.6263420104980468
0.5424230575561523,0.6263420104980468
0.5343933105468750,0.6283069610595703
0.5343933105468750,0.6283069610595703
0.5375942230224610,0.6228029251098632
0.5375942230224610,0.6228029251098632
0.5430324554443359,0.6330179214477539
0.5430324554443359,0.6330179214477539
0.5336986541748047,0.6257623672485352
0.5336986541748047,0.6257623672485352
0.5450672149658203,0.6314374923706054
0.5450672149658203,0.6314374923706054
0.5376949310302734,0.6350160598754883
0.5376949310302734,0.6350160598754883
0.5409793853759766,0.6300767898559571
0.5364200592041015,0.6300767898559571
0.5466104507446289,0.6403581619262695
0.5466104507446289,0.6403581619262695
0.5371673583984374,0.6324989318847656
0.5371673583984374,0.6324989318847656
0.5480615615844726,0.6376253128051758
0.5480615615844726,0.6376253128051758
0.5408758163452149,0.6411506652832031
0.5408758163452149,0.6411506652832031
0.5439119338989258,0.6366783142089844
0.5439119338989258,0.6366783142089844
0.5497278213500977,0.6468212127685546
0.5497278213500977,0.6468212127685546
0.5403820037841797,0.6396492004394531
0.5403820037841797,0.6396492004394531
0.5513191223144531,0.6445924758911132
0.5513191223144531,0.6445924758911132
0.5439565658569335,0.6478431701660156
0.5439565658569335,0.6478431701660156
0.5465766906738281,0.6418951034545898
0.5465766906738281,0.6418951034545898
0.5519319534301758,0.6515590667724609
0.5519319534301758,0.6515590667724609
0.5424230575561523,0.6437925338745117
0.5424230575561523,0.6437925338745117
0.5530420303344726,0.6489257812500000
0.5530420303344726,0.6489257812500000
0.5458225250244141,0.6518915176391601
0.5458225250244141,0.6518915176391601
0.5485250473022460,0.6467004776000976
0.5485250473022460,0.6467004776000976
0.5542591094970702,0.6570167541503906
0.5542591094970702,0.6570167541503906
0.5450134277343750,0.6501245498657227
0.5450134277343750,0.6501245498657227
0.5563259124755859,0.6555547714233398
0.5563259124755859,0.6555547714233398
0.5489742279052734,0.6593101501464843
0.5489742279052734,0.6593101501464843
0.5521980285644531,0.6542587280273438
0.5521980285644531,0.6542587280273438
0.5577255249023437,0.6646797180175781
0.5577255249023437,0.6646797180175781
0.5481777191162109,0.6563478469848633
0.5481777191162109,0.6563478469848633
0.5585964202880859,0.6601518630981446
0.5585964202880859,0.6601518630981446
0.5499378204345703,0.6600282669067382
0.5499378204345703,0.6600282669067382
0.5504539489746093,0.6493732452392578
0.5504539489746093,0.6493732452392578
0.5525487899780274,0.6520975112915038
0.5525487899780274,0.6520975112915038
0.5400295257568359,0.6378175735473632
0.5400295257568359,0.6378175735473632
0.5477617263793945,0.6369300842285156
0.5477617263793945,0.6369300842285156
0.5382081985473632,0.6353525161743164
0.5382081985473632,0.6353525161743164
0.5392295837402343,0.6260227203369141
0.5392295837402343,0.6260227203369141
0.5429048538208008,0.6325172424316406
0.5429048538208008,0.6325172424316406
0.5326452255249023,0.6224315643310546
0.5326452255249023,0.6224315643310546
0.5422359466552734,0.6259094238281250
0.5422359466552734,0.6259094238281250
0.5345123291015624,0.6273513793945312
0.5345123291015624,0.6273513793945312
0.5369516372680664,0.6215063095092773
0.5369516372680664,0.6215063095092773
0.5419916152954102,0.6305316925048828
0.5419916152954102,0.6305316925048828
0.5330543518066406,0.6235725402832031
0.5330543518066406,0.6235725402832031
0.5435388565063476,0.6286972045898437
0.5435388565063476,0.6286972045898437
0.5368715286254883,0.6325578689575195
0.5368715286254883,0.6325578689575195
0.5401668548583984,0.6290084838867187
0.5401668548583984,0.6290084838867187
0.5462345123291016,0.6404245376586913
0.5462345123291016,0.6404245376586913
0.5383501052856445,0.6353221893310547
0.5383501052856445,0.6353221893310547
0.5499818801879882,0.6432603836059571
0.5499818801879882,0.6432603836059571
0.5443571090698242,0.6492593765258788
0.5443571090698242,0.6492593765258788
0.5485439300537109,0.6476703643798828
0.5485439300537109,0.6476703643798828
0.5551082611083984,0.6593782424926757
0.5551082611083984,0.6593782424926757
0.5468873977661133,0.6535360336303710
0.5468873977661133,0.6535360336303710
0.5578256607055664,0.6591934204101563
0.5578256607055664,0.6591934204101563
0.5506484985351562,0.6625213623046875
0.5506484985351562,0.6625213623046875
0.5532955169677735,0.6566099166870117
0.5532955169677735,0.6566099166870117
0.5582439422607421,0.6656370162963867
0.5582439422607421,0.6656370162963867
0.5488357543945312,0.6576581954956054
0.5488357543945312,0.6576581954956054
0.5592041015625000,0.6623434066772461
0.5592041015625000,0.6623434066772461
0.5519874572753906,0.6648118972778320
0.5519874572753906,0.6648118972778320
0.5544204711914062,0.6590509414672852
0.5544204711914062,0.6590509414672852
0.5597339630126953,0.6684070587158203
0.5597339630126953,0.6684070587158203
0.5501335144042968,0.6609037399291992
0.5501335144042968,0.6609037399291992
0.5608137130737304,0.6654212951660156
0.5608137130737304,0.6654212951660156
0.5535598754882812,0.6687126159667969
0.5535598754882812,0.6687126159667969
0.5562738418579102,0.6631376266479492
0.5562738418579102,0.6631376266479492
0.5600498199462890,0.6659059524536133
0.5600498199462890,0.6659059524536133
0.5637491226196288,0.6734001159667968
0.5637491226196288,0.6734001159667968
0.5549205780029297,0.6625116348266601
0.5549205780029297,0.6625116348266601
0.5623352050781250,0.6687068939208984
0.5623352050781250,0.6687068939208984
0.5501398086547852,0.6603595733642578
0.5501398086547852,0.6603595733642578
0.5539060592651367,0.6517026901245117
0.5539060592651367,0.6517026901245117
0.5498497009277343,0.6511539459228516
0.5498497009277343,0.6511539459228516
0.5423343658447265,0.6355630874633789
0.5423343658447265,0.6355630874633789
0.5482641220092773,0.6386484146118164
0.5482641220092773,0.6386484146118164
0.5363210678100586,0.6316097259521484
0.5416271209716796,0.6316097259521484
0.5420213699340820,0.6262962341308593
0.5420213699340820,0.6262962341308593
0.5401073455810547,0.6315925598144531
0.5401073455810547,0.6315925598144531
0.5349060058593750,0.6204780578613281
0.5349060058593750,0.6204780578613281
0.5426914215087890,0.6279127120971679
0.5426914215087890,0.6279127120971679
0.5329433441162109,0.6243330001831054
0.5329433441162109,0.6243330001831054
0.5402097702026367,0.6231256484985351
0.5402097702026367,0.6231256484985351
0.5396232604980469,0.6310014724731445
0.5396232604980469,0.6310014724731445
0.5356206893920898,0.6221900939941406
0.5356206893920898,0.6221900939941406
0.5448291778564452,0.6317682266235352
0.5448291778564452,0.6317682266235352
0.5357574462890625,0.6309808731079102
0.5357574462890625,0.6309808731079102
0.5438615798950195,0.6312973022460937
0.5438615798950195,0.6312973022460937
0.5437974929809570,0.6402597427368164
0.5437974929809570,0.6402597427368164
0.5403636932373047,0.6317270278930663
0.5403636932373047,0.6317270278930663
0.5498062133789062,0.6427253723144531
0.5498062133789062,0.6427253723144531
0.5404809951782227,0.6410991668701171
0.5404809951782227,0.6410991668701171
0.5485925674438477,0.6410745620727539
0.5485925674438477,0.6410745620727539
0.5483951568603516,0.6493045806884765
0.5483951568603516,0.6493045806884765
0.5448818206787109,0.6417074203491211
0.5448818206787109,0.6417074203491211
0.5540691375732422,0.6522142410278320
0.5540691375732422,0.6522142410278320
0.5448932647705078,0.6506813049316406
0.5448932647705078,0.6506813049316406
0.5529727935791016,0.6502269744873047
0.5529727935791016,0.6502269744873047
0.5527673721313476,0.6593221664428711
0.5527673721313476,0.6593221664428711
0.5491058349609375,0.6510063171386719
0.5491058349609375,0.6510063171386719
0.5578811645507812,0.6605712890625000
0.5578811645507812,0.6605712890625000
0.5485862731933594,0.6579288482666016
0.5485862731933594,0.6579288482666016
0.5561336517333985,0.6576244354248046
0.5561336517333985,0.6576244354248046
0.5554538726806640,0.6652318954467773
0.5554538726806640,0.6652318954467773
0.5516361236572266,0.6562379837036133
0.5516361236572266,0.6562379837036133
0.5601316452026367,0.6647855758666992
0.5601316452026367,0.6647855758666992
0.5508464813232422,0.6630037307739257
0.5508464813232422,0.6630037307739257
0.5582799911499023,0.6621065139770508
0.5582799911499023,0.6621065139770508
0.5570766448974609,0.6685586929321289
0.5570766448974609,0.6685586929321289
0.5523674011230468,0.6564239501953125
0.5523674011230468,0.6564239501953125
0.5583091735839844,0.6602834701538086
0.5583091735839844,0.6602834701538086
0.5456497192382812,0.6502069473266602
0.5456497192382812,0.6502069473266602
0.5487722396850586,0.6408153533935547
0.5487722396850586,0.6408153533935547
0.5443159103393554,0.6397808074951171
0.5443159103393554,0.6397808074951171
0.5373281478881836,0.6250585556030274
0.5373281478881836,0.6250585556030274
0.5432653427124023,0.6289066314697266
0.5432653427124023,0.6289066314697266
0.5319528579711914,0.6225963592529297
0.5319528579711914,0.6225963592529297
0.5377876281738281,0.6181056976318359
0.5377876281738281,0.6181056976318359
0.5359491348266602,0.6231531143188477
0.5359491348266602,0.6231531143188477
0.5313732147216796,0.6131355285644531
0.5313732147216796,0.6131355285644531
0.5386636734008788,0.6200803756713867
0.5386636734008788,0.6200803756713867
0.5294986724853515,0.6166963577270508
0.5294986724853515,0.6166963577270508
0.5363250732421875,0.6157842636108398
0.5363250732421875,0.6157842636108398
0.5358610153198242,0.6228607177734374
0.5358610153198242,0.6228607177734374
0.5320878982543945,0.6149248123168946
0.5320878982543945,0.6149248123168946
0.5407218933105469,0.6236309051513672
0.5407218933105469,0.6236309051513672
0.5319414138793945,0.6224555969238281
0.5319414138793945,0.6224555969238281
0.5395500183105468,0.6222873687744140
0.5395500183105468,0.6222873687744140
0.5391448974609375,0.6303422927856445
0.5391448974609375,0.6303422927856445
0.5355257034301758,0.6216533660888671
0.5355257034301758,0.6216533660888671
0.5444967269897460,0.6317007064819335
0.5444967269897460,0.6317007064819335
0.5352727890014648,0.6300367355346680
0.5352727890014648,0.6300367355346680
0.5430433273315429,0.6300384521484375
0.5430433273315429,0.6300384521484375
0.5432716369628906,0.6385883331298828
0.5432716369628906,0.6385883331298828
0.5399042129516601,0.6318002700805664
0.5399042129516601,0.6318002700805664
0.5496168136596680,0.6431922912597656
0.5496168136596680,0.6431922912597656
0.5412031173706054,0.6432706832885742
0.5412031173706054,0.6432706832885742
0.5498891830444336,0.6441913604736328
0.5498891830444336,0.6441913604736328
0.5505769729614257,0.6549465179443359
0.5505769729614257,0.6549465179443359
0.5475414276123046,0.6481704711914062
0.5475414276123046,0.6481704711914062
0.5571664810180664,0.6590354919433593
0.5571664810180664,0.6590354919433593
0.5478349685668945,0.6567083358764648
0.5478349685668945,0.6567083358764648
0.5555740356445312,0.6557104110717773
0.5555740356445312,0.6557104110717773
0.5545166015624999,0.6625408172607422
0.5545166015624999,0.6625408172607422
0.5494222640991211,0.6509971618652344
0.5494222640991211,0.6509971618652344
0.5570045471191406,0.6569286346435547
0.5570045471191406,0.6569286346435547
0.5456016540527343,0.6509817123413085
0.5456016540527343,0.6509817123413085
0.5509323120117188,0.6452390670776367
0.5509323120117188,0.6452390670776367
0.5476615905761718,0.6471914291381836
0.5476615905761718,0.6471914291381836
0.5406051635742187,0.6312904357910156
0.5406051635742187,0.6312904357910156
0.5462934494018554,0.6342149734497070
0.5462934494018554,0.6342149734497070
0.5338966369628906,0.6259843826293945
0.5338966369628906,0.6259843826293945
0.5386470794677735,0.6197170257568360
0.5386470794677735,0.6197170257568360
0.5360670089721680,0.6226861953735351
0.5360670089721680,0.6226861953735351
0.5304307937622070,0.6106859207153320
0.5304307937622070,0.6106859207153320
0.5377773284912110,0.6168170928955078
0.5377773284912110,0.6168170928955078
0.5268842697143554,0.6120958328247070
0.5268842697143554,0.6120958328247070
0.5333856582641602,0.6084743499755859
0.5333856582641602,0.6084743499755859
0.5320455551147460,0.6148555755615234
0.5320455551147460,0.6148555755615234
0.5274862289428711,0.6048614501953125
0.5245634078979492,0.6048614501953125
0.5356430053710938,0.6128162384033203
0.5356430053710938,0.6128162384033203
0.5259973526000976,0.6095855712890624
0.5259973526000976,0.6095855712890624
0.5331470489501953,0.6085693359375000
0.5331470489501953,0.6085693359375000
0.5327310562133789,0.6163364410400390
0.5327310562133789,0.6163364410400390
0.5289247512817382,0.6078500747680664
0.5289247512817382,0.6078500747680664
0.5378013610839844,0.6170076370239258
0.5378013610839844,0.6170076370239258
0.5288995742797852,0.6159742355346679
0.5288995742797852,0.6159742355346679
0.5366300582885742,0.6159667968750000
0.5366300582885742,0.6159667968750000
0.5365831375122070,0.6243833541870117
0.5365831375122070,0.6243833541870117
0.5331933975219726,0.6164691925048827
0.5331933975219726,0.6164691925048827
0.5421386718750000,0.6267660140991210
0.5421386718750000,0.6267660140991210
0.5335836410522461,0.6256856918334961
0.5335836410522461,0.6256856918334961
0.5411344528198242,0.6259185791015625
0.5411344528198242,0.6259185791015625
0.5413644790649413,0.6339500427246093
0.5413644790649413,0.6339500427246093
0.5381263732910156,0.6271150588989257
0.5381263732910156,0.6271150588989257
0.5469961166381836,0.6371417999267578
0.5469961166381836,0.6371417999267578
0.5384393692016601,0.6366136550903320
0.5384393692016601,0.6366136550903320
0.5465509414672851,0.6372453689575195
0.5465509414672851,0.6372453689575195
0.5471202850341796,0.6472537994384765
0.5471202850341796,0.6472537994384765
0.5445711135864257,0.6415288925170898
0.5445711135864257,0.6415288925170898
0.5538751602172851,0.6529169082641602
0.5538751602172851,0.6529169082641602
0.5462436676025391,0.6530662536621094
0.5462436676025391,0.6530662536621094
0.5544902801513671,0.6549596786499023
0.5491733551025391,0.6549596786499023
0.5549371719360351,0.6642654418945312
0.5549371719360351,0.6642654418945312
0.5514570236206054,0.6566574096679687
0.5514570236206054,0.6566574096679687
0.5602174758911133,0.6652959823608399
0.5602174758911133,0.6652959823608399
0.5510278701782226,0.6633138656616211
0.5510278701782226,0.6633138656616211
0.5578519821166992,0.6611869812011718
0.5578519821166992,0.6611869812011718
0.5561496734619140,0.6659254074096680
0.5561496734619140,0.6659254074096680
0.5500093460083008,0.6517724990844727
0.5500093460083008,0.6517724990844727
0.5547861099243164,0.6528476715087891
0.5547861099243164,0.6528476715087891
0.5415670394897460,0.6421583175659179
0.5415670394897460,0.6421583175659179
0.5446466445922852,0.6328416824340820
0.5446466445922852,0.6328416824340820
0.5409805297851562,0.6328559875488281
0.5409805297851562,0.6328559875488281
0.5341787338256836,0.6191190719604492
0.5341787338256836,0.6191190719604492
0.5410503387451172,0.6244171142578124
0.5410503387451172,0.6244171142578124
0.5301189422607422,0.6194526672363281
0.5301189422607422,0.6194526672363281
0.5367198944091797,0.6161458969116210
0.5367198944091797,0.6161458969116210
0.5357769012451171,0.6232006072998046
0.5357769012451171,0.6232006072998046
0.5314876556396484,0.6139308929443359
0.5314876556396484,0.6139308929443359
0.5402132034301758,0.6229150772094726
0.5402132034301758,0.6229150772094726
0.5310979843139648,0.6210210800170898
0.5310979843139648,0.6210210800170898
0.5391397476196289,0.6216447830200195
0.5391397476196289,0.6216447830200195
0.5395603179931641,0.6314580917358398
0.5395603179931641,0.6314580917358398
0.5364824295043945,0.6250282287597656
0.5364824295043945,0.6250282287597656
0.5469320297241210,0.6370845794677734
0.5469320297241210,0.6370845794677734
0.5389652252197266,0.6387702941894531
0.5389652252197266,0.6387702941894531
0.5481210708618164,0.6412021636962890
0.5481210708618164,0.6412021636962890
0.5491041183471680,0.6518646240234375
0.5491041183471680,0.6518646240234375
0.5462099075317383,0.6449209213256836
0.5462099075317383,0.6449209213256836
0.5560071945190429,0.6563913345336914
0.5560071945190429,0.6563913345336914
0.5472576141357421,0.6554609298706054
0.5547569274902343,0.6547914505004883
0.5547569274902343,0.6547914505004883
0.5543415069580078,0.6620286941528321
0.5543415069580078,0.6620286941528321
0.5500705718994140,0.6527366638183594
0.5500705718994140,0.6527366638183594
0.5584104537963867,0.6611291885375976
0.5584104537963867,0.6611291885375976
0.5478807449340820,0.6570018768310547
0.5478807449340820,0.6570018768310547
0.5550979614257813,0.6541482925415039
0.5484558105468750,0.6494991302490234
0.5536617279052735,0.6607669830322266
0.5579223632812500,0.6607669830322266
0.5489101409912109,0.6506166458129883
0.5489101409912109,0.6506166458129883
0.5573049545288086,0.6587579727172851
0.5573049545288086,0.6587579727172851
0.5474515914916992,0.6554351806640625
0.5474515914916992,0.6554351806640625
0.5548553466796875,0.6546478271484375
0.5548553466796875,0.6546478271484375
0.5545143127441406,0.6628154754638672
0.5545143127441406,0.6628154754638672
0.5504379272460938,0.6543405532836913
0.5504379272460938,0.6543405532836913
0.5596441268920899,0.6639930725097656
0.5596441268920899,0.6639930725097656
0.5506227493286132,0.6631519317626953
0.5506227493286132,0.6631519317626953
0.5582342147827148,0.6621288299560547
0.5582342147827148,0.6621288299560547
0.5571556091308594,0.6683727264404297
0.5571556091308594,0.6683727264404297
0.5514289855957031,0.6545522689819335
0.5514289855957031,0.6545522689819335
0.5564975738525391,0.6557550430297852
0.5564975738525391,0.6557550430297852
0.5422216415405273,0.6435464859008789
0.5422216415405273,0.6435464859008789
0.5454191207885742,0.6335197448730469
0.5454191207885742,0.6335197448730469
0.5412414550781249,0.6337709426879883
0.5412414550781249,0.6337709426879883
0.5347909927368164,0.6200208663940430
0.5347909927368164,0.6200208663940430
0.5418136596679687,0.6256628036499023
0.5418136596679687,0.6256628036499023
0.5307260513305664,0.6203619003295898
0.5307260513305664,0.6203619003295898
0.5374477386474609,0.6171878814697266
0.5374477386474609,0.6171878814697266
0.5361282348632812,0.6239599227905274
0.5361282348632812,0.6239599227905274
0.5321720123291015,0.6146610260009765
0.5321720123291015,0.6146610260009765
0.5404546737670898,0.6235948562622070
0.5404546737670898,0.6235948562622070
0.5313383102416992,0.6209157943725586
0.5313383102416992,0.6209157943725586
0.5391420364379883,0.6213157653808593
0.5391420364379883,0.6213157653808593
0.5389045715332031,0.6297849655151367
0.5389045715332031,0.6297849655151367
0.5357145309448242,0.6224807739257813
0.5357145309448242,0.6224807739257813
0.5448240280151367,0.6325750350952148
0.5448240280151367,0.6325750350952148
0.5363679885864258,0.6323450088500976
0.5363679885864258,0.6323450088500976
0.5446763992309570,0.6335002899169921
0.5446763992309570,0.6335002899169921
0.5446380615234375,0.6421497344970702
0.5446380615234375,0.6421497344970702
0.5414800643920898,0.6344020843505859
0.5414800643920898,0.6344020843505859
0.5501014709472656,0.6438657760620117
0.5501014709472656,0.6438657760620117
0.5410617828369141,0.6416793823242187
0.5410617828369141,0.6416793823242187
0.5477479934692383,0.6400520324707031
0.5477479934692383,0.6400520324707031
0.5470407485961913,0.6457946777343749
0.5470407485961913,0.6457946777343749
0.5426914215087890,0.6368677139282226
0.5426914215087890,0.6368677139282226
0.5503406524658203,0.6442691802978515
0.5503406524658203,0.6442691802978515
0.5408849716186523,0.6412473678588867
0.5408849716186523,0.6412473678588867
0.5475872039794921,0.6391113281249999
0.5475872039794921,0.6391113281249999
0.5470647811889648,0.6465139389038086
0.5470647811889648,0.6465139389038086
0.5430828094482422,0.6379812240600585
0.5430828094482422,0.6379812240600585
0.5514862060546875,0.6466913223266602
0.5514862060546875,0.6466913223266602
0.5422708511352539,0.6440814971923828
0.5422708511352539,0.6440814971923828
0.5496791839599610,0.6438056945800781
0.5437557220458984,0.6438056945800781
0.5493072509765625,0.6515939712524413
0.5493072509765625,0.6515939712524413
0.5454059600830078,0.6431053161621093
0.5454059600830078,0.6431053161621093
0.5543197631835938,0.6523973464965820
0.5543197631835938,0.6523973464965820
0.5452571868896484,0.6515161514282226
0.5452571868896484,0.6515161514282226
0.5530065536499024,0.6507843017578124
0.5530065536499024,0.6507843017578124
0.5521413803100585,0.6575740814208985
0.5521413803100585,0.6575740814208985
0.5471139907836914,0.6455183029174805
0.5471139907836914,0.6455183029174805
0.5541584014892578,0.6509737014770508
0.5541584014892578,0.6509737014770508
0.5421026229858398,0.6438331604003906
0.5421026229858398,0.6438331604003906
0.5476598739624023,0.6386363983154296
0.5476598739624023,0.6386363983154296
0.5450975418090820,0.6417840957641602
0.5450975418090820,0.6417840957641602
0.5391122817993164,0.6285707473754882
0.5391122817993164,0.6285707473754882
0.5457790374755859,0.6332279205322265
0.5457790374755859,0.6332279205322265
0.5339967727661132,0.6266281127929687
0.5339967727661132,0.6266281127929687
0.5397422790527343,0.6215000152587891
0.5397422790527343,0.6215000152587891
0.5379209518432617,0.6265474319458008
0.5379209518432617,0.6265474319458008
0.5325965881347656,0.6153448104858398
0.5325965881347656,0.6153448104858398
0.5403985977172852,0.6223411560058594
0.5403985977172852,0.6223411560058594
0.5302213668823242,0.6180461883544922
0.5302213668823242,0.6180461883544922
0.5369871139526367,0.6160268783569336
0.5369871139526367,0.6160268783569336
0.5361860275268554,0.6226718902587890
0.5361860275268554,0.6226718902587890
0.5314973831176758,0.6130771636962891
0.5314973831176758,0.6130771636962891
0.5401142120361327,0.6210565567016602
0.5401142120361327,0.6210565567016602
0.5305177688598632,0.6186830520629882
0.5305177688598632,0.6186830520629882
0.5377040863037109,0.6175758361816406
0.5377040863037109,0.6175758361816406
0.5373029708862305,0.6252227783203125
0.5373029708862305,0.6252227783203125
0.5333593368530273,0.6163284301757812
0.5333593368530273,0.6163284301757812
0.5424242019653320,0.6261589050292968
0.5424242019653320,0.6261589050292968
0.5331974029541016,0.6243907928466796
0.5331974029541016,0.6243907928466796
0.5407024383544922,0.6238203048706055
0.5407024383544922,0.6238203048706055
0.5405153274536133,0.6315284729003906
0.5405153274536133,0.6315284729003906
0.5366312026977539,0.6235502243041992
0.5366312026977539,0.6235502243041992
0.5455615997314452,0.6330774307250976
0.5455615997314452,0.6330774307250976
0.5362243652343750,0.6310535430908203
0.5362243652343750,0.6310535430908203
0.5437734603881835,0.6299062728881836
0.5437734603881835,0.6299062728881836
0.5437837600708008,0.6385980606079101
0.5437837600708008,0.6385980606079101
0.5399133682250976,0.6304767608642577
0.5399133682250976,0.6304767608642577
0.5486812591552734,0.6401487350463867
0.5486812591552734,0.6401487350463867
0.5400907516479492,0.6385980606079101
0.5400907516479492,0.6385980606079101
0.5475196838378906,0.6386781692504883
0.5475196838378906,0.6386781692504883
0.5476243972778320,0.6471519470214844
0.5476243972778320,0.6471519470214844
0.5438810348510742,0.6396875381469727
0.5438810348510742,0.6396875381469727
0.5530546188354492,0.6492370605468750
0.5530546188354492,0.6492370605468750
0.5447999954223632,0.6491214752197265
0.5447999954223632,0.6491214752197265
0.5521179199218750,0.6484914779663086
0.5521179199218750,0.6484914779663086
0.5513929367065430,0.6546461105346679
0.5513929367065430,0.6546461105346679
0.5460514068603516,0.6421834945678710
0.5460514068603516,0.6421834945678710
0.5517723083496093,0.6454547882080078
0.5517723083496093,0.6454547882080078
0.5398166656494140,0.6370548248291016
0.5398166656494140,0.6370548248291016
0.5436229705810547,0.6297901153564452
0.5436229705810547,0.6297901153564452
0.5406200408935546,0.6311050415039062
0.5406200408935546,0.6311050415039062
0.5342462539672851,0.6179431915283203
0.5306270599365234,0.6179431915283203
0.5402812957763672,0.6220476150512695
0.5402812957763672,0.6220476150512695
0.5297601699829101,0.6170671463012695
0.5297601699829101,0.6170671463012695
0.5358615875244140,0.6135526657104492
0.5358615875244140,0.6135526657104492
0.5349254608154297,0.6199504852294921
0.5349254608154297,0.6199504852294921
0.5306528091430663,0.6108072280883788
0.5306528091430663,0.6108072280883788
0.5386093139648437,0.6189325332641601
0.5386093139648437,0.6189325332641601
0.5296165466308593,0.6162729263305664
0.5296165466308593,0.6162729263305664
0.5367645263671875,0.6159078598022460
0.5367645263671875,0.6159078598022460
0.5367010116577148,0.6238248825073242
0.5367010116577148,0.6238248825073242
0.5328941345214844,0.6157402038574219
0.5328941345214844,0.6157402038574219
0.5419612884521484,0.6249481201171875
0.5419612884521484,0.6249481201171875
0.5328655242919922,0.6237888336181641
0.5328655242919922,0.6237888336181641
0.5404340744018554,0.6234901428222656
0.5404340744018554,0.6234901428222656
0.5405233383178710,0.6318140029907227
0.5405233383178710,0.6318140029907227
0.5367376327514648,0.6234689712524414
0.5367376327514648,0.6234689712524414
0.5460828781127930,0.6342561721801757
0.5460828781127930,0.6342561721801757
0.5372337341308594,0.6335746765136718
0.5372337341308594,0.6335746765136718
0.5453275680541992,0.6339534759521485
0.5453275680541992,0.6339534759521485
0.5457807540893554,0.6431779861450195
0.5457807540893554,0.6431779861450195
0.5425804138183593,0.6363412857055664
0.5425804138183593,0.6363412857055664
0.5524457931518555,0.6479799270629882
0.5524457931518555,0.6479799270629882
0.5434038162231445,0.6474672317504883
0.5434038162231445,0.6474672317504883
0.5521745681762695,0.6480892181396484
0.5521745681762695,0.6480892181396484
0.5528348922729492,0.6585834503173827
0.5528348922729492,0.6585834503173827
0.5495687484741211,0.6516248703002929
0.5495687484741211,0.6516248703002929
0.5591972351074218,0.6626564025878906
0.5591972351074218,0.6626564025878906
0.5505397796630859,0.6615577697753906
0.5505397796630859,0.6615577697753906
0.5587354660034179,0.6625711441040039
0.5587354660034179,0.6625711441040039
0.5589443206787109,0.6719152450561523
0.5589443206787109,0.6719152450561523
0.5552295684814453,0.6639633178710938
0.5552295684814453,0.6639633178710938
0.5646085739135742,0.6734144210815429
0.5646085739135742,0.6734144210815429
0.5549383163452148,0.6713001251220703
0.5549383163452148,0.6713001251220703
0.5618917465209960,0.6683973312377930
0.5618917465209960,0.6683973312377930
0.5593723297119141,0.6712068557739258
0.5593723297119141,0.6712068557739258
0.5516046524047852,0.6533266067504883
0.5516046524047852,0.6533266067504883
0.5551374435424804,0.6511127471923828
0.5551374435424804,0.6511127471923828
0.5399316787719727,0.6373907089233398
0.5399316787719727,0.6373907089233398
0.5425003051757812,0.6266218185424804
0.5425003051757812,0.6266218185424804
0.5385704040527344,0.6271837234497070
0.5385704040527344,0.6271837234497070
0.5320941925048828,0.6139131546020508
0.5320941925048828,0.6139131546020508
0.5396341323852539,0.6201953887939453
0.5396341323852539,0.6201953887939453
0.5286083221435547,0.6152956008911132
0.5286083221435547,0.6152956008911132
0.5355171203613281,0.6122314453125000
0.5355171203613281,0.6122314453125000
0.5343681335449219,0.6191825866699219
0.5343681335449219,0.6191825866699219
0.5299707412719726,0.6093624114990234
0.5299707412719726,0.6093624114990234
0.5385801315307617,0.6182773590087890
0.5385801315307617,0.6182773590087890
0.5290552139282226,0.6155181884765625
0.5290552139282226,0.6155181884765625
0.5368349075317382,0.6155582427978515
0.5368349075317382,0.6155582427978515
0.5365270614624024,0.6236274719238281
0.5365270614624024,0.6236274719238281
0.5328100204467773,0.6156040191650390
0.5328100204467773,0.6156040191650390
0.5419143676757813,0.6251380920410156
0.5419143676757813,0.6251380920410156
0.5330863952636719,0.6242614746093750
0.5330863952636719,0.6242614746093750
0.5334074020385742,0.6210788726806641
0.5334074020385742,0.6210788726806641
0.5334074020385742,0.6241636276245117
0.5443141937255859,0.6298061370849609
0.5443141937255859,0.6298061370849609
0.5377075195312500,0.6336027145385742
0.5377075195312500,0.6336027145385742
0.5404529571533203,0.6291194915771484
0.5404529571533203,0.6291194915771484
0.5459884643554688,0.6384904861450195
0.5459884643554688,0.6384904861450195
0.5367845535278321,0.6309717178344726
0.5367845535278321,0.6309717178344726
0.5473171234130859,0.6357610702514648
0.5473171234130859,0.6357610702514648
0.5400621414184570,0.6386409759521484
0.5400621414184570,0.6386409759521484
0.5424236297607422,0.6327386856079101
0.5424236297607422,0.6327386856079101
0.5475116729736328,0.6413818359375000
0.5475116729736328,0.6413818359375000
0.5379346847534180,0.6331598281860351
0.5379346847534180,0.6331598281860351
0.5480203628540039,0.6372745513916015
0.5480203628540039,0.6372745513916015
0.5403528213500977,0.6389957427978515
0.5403528213500977,0.6389957427978515
0.5425752639770508,0.6329378128051758
0.5425752639770508,0.6329378128051758
0.5474584579467773,0.6416296005249024
0.5474584579467773,0.6416296005249024
0.5381549835205078,0.6339408874511718
0.5381549835205078,0.6339408874511718
0.5485679626464843,0.6386163711547851
0.5485679626464843,0.6386163711547851
0.5413261413574219,0.6414836883544922
0.5413261413574219,0.6414836883544922
0.5437974929809570,0.6355739593505859
0.5437974929809570,0.6355739593505859
0.5481977462768555,0.6429891586303711
0.5481977462768555,0.6429891586303711
0.5372549057006836,0.6313711166381836
0.5372549057006836,0.6313711166381836
0.5451839447021484,0.6309923171997071
0.5451839447021484,0.6309923171997071
0.5356727600097656,0.6285724639892578
0.5356727600097656,0.6285724639892578
0.5356012344360351,0.6185606002807617
0.5356012344360351,0.6185606002807617
0.5388725280761718,0.6231599807739258
0.5388725280761718,0.6231599807739258
0.5279067993164063,0.6121055603027343
0.5279067993164063,0.6121055603027343
0.5365585327148438,0.6135606765747070
0.5365585327148438,0.6135606765747070
0.5285350799560546,0.6142049789428711
0.5285350799560546,0.6142049789428711
0.5295896530151367,0.6061592102050781
0.5295896530151367,0.6061592102050781
0.5344036102294921,0.6138221740722656
0.5344036102294921,0.6138221740722656
0.5242938995361328,0.6051366806030273
0.5242938995361328,0.6051366806030273
0.5347434997558593,0.6093263626098633
0.5347434997558593,0.6093263626098633
0.5274690628051758,0.6120563507080078
0.5274690628051758,0.6120563507080078
0.5299455642700195,0.6066272735595702
0.5299455642700195,0.6066272735595702
0.5358484268188476,0.6166717529296875
0.5358484268188476,0.6166717529296875
0.5265769958496094,0.6101097106933594
0.5265769958496094,0.6101097106933594
0.5377052307128906,0.6151010513305664
0.5377052307128906,0.6151010513305664
0.5309589385986327,0.6192117691040039
0.5309589385986327,0.6192117691040039
0.5335224151611327,0.6141288757324218
0.5335224151611327,0.6141288757324218
0.5393417358398437,0.6240880966186523
0.5393417358398437,0.6240880966186523
0.5298889160156249,0.6166643142700196
0.5298889160156249,0.6166643142700196
0.5407865524291992,0.6218507766723632
0.5407865524291992,0.6218507766723632
0.5339332580566406,0.6255031585693359
0.5339332580566406,0.6255031585693359
0.5365350723266601,0.6205335617065429
0.5365350723266601,0.6205335617065429
0.5423274993896484,0.6302278518676757
0.5423274993896484,0.6302278518676757
0.5326194763183594,0.6224985122680664
0.5326194763183594,0.6224985122680664
0.5434009552001953,0.6270853042602539
0.5434009552001953,0.6270853042602539
0.5361528396606445,0.6305728912353515
0.5361528396606445,0.6305728912353515
0.5385543823242187,0.6246648788452148
0.5385543823242187,0.6246648788452148
0.5443124771118164,0.6345994949340820
0.5456834793090820,0.6345994949340820
0.5347755432128906,0.6271345138549804
0.5347755432128906,0.6271345138549804
0.5456371307373047,0.6326448440551757
0.5456371307373047,0.6326448440551757
0.5387821197509766,0.6360208511352539
0.5387821197509766,0.6360208511352539
0.5414800643920898,0.6312698364257813
0.5414800643920898,0.6312698364257813
0.5475751876831054,0.6418247222900391
0.5475751876831054,0.6418247222900391
0.5383575439453124,0.6354280471801758
0.5383575439453124,0.6354280471801758
0.5495681762695312,0.6411415100097656
0.5495681762695312,0.6411415100097656
0.5428544998168945,0.6451927185058594
0.5428544998168945,0.6451927185058594
0.5457235336303711,0.6400777816772460
0.5457235336303711,0.6400777816772460
0.5510181427001953,0.6490499496459960
0.5510181427001953,0.6490499496459960
0.5401599884033202,0.6380132675170899
0.5401599884033202,0.6380132675170899
0.5483465194702148,0.6370794296264648
0.5483465194702148,0.6370794296264648
0.5380834579467774,0.6334024429321289
0.5380834579467774,0.6334024429321289
0.5372983932495117,0.6215915679931641
0.5372983932495117,0.6215915679931641
0.5400112152099609,0.6252794265747070
0.5400112152099609,0.6252794265747070
0.5286209106445312,0.6136058807373047
0.5286209106445312,0.6136058807373047
0.5375593185424804,0.6151485443115234
0.5375593185424804,0.6151485443115234
0.5292251586914062,0.6160268783569336
0.5292251586914062,0.6160268783569336
0.5309297561645507,0.6086168289184570
0.5309297561645507,0.6086168289184570
0.5356475830078125,0.6167884826660156
0.5356475830078125,0.6167884826660156
0.5260408401489257,0.6085533142089844
0.5286558151245117,0.6085533142089844
0.5364572525024414,0.6132247924804687
0.5364572525024414,0.6132247924804687
0.5295186996459961,0.6163255691528320
0.5295186996459961,0.6163255691528320
0.5323848724365234,0.6117919921875000
0.5323848724365234,0.6117919921875000
0.5382390975952148,0.6221700668334961
0.5382390975952148,0.6221700668334961
0.5298751831054688,0.6169166564941406
0.5298751831054688,0.6169166564941406
0.5410800933837890,0.6236652374267578
0.5410800933837890,0.6236652374267578
0.5355239868164062,0.6296241760253906
0.5355239868164062,0.6296241760253906
0.5394081115722656,0.6274074554443360
0.5394081115722656,0.6274074554443360
0.5460456848144531,0.6395948410034179
0.5460456848144531,0.6395948410034179
0.5382442474365234,0.6346567153930663
0.5382442474365234,0.6346567153930663
0.5495143890380859,0.6414247512817383
0.5495143890380859,0.6414247512817383
0.5435096740722656,0.6463016510009766
0.5435096740722656,0.6463016510009766
0.5466716766357421,0.6430280685424804
0.5466716766357421,0.6430280685424804
0.5527536392211914,0.6536052703857421
0.5527536392211914,0.6536052703857421
0.5444715499877929,0.6481510162353515
0.5444715499877929,0.6481510162353515
0.5555620193481445,0.6544120788574218
0.5555620193481445,0.6544120788574218
0.5494474411010742,0.6595344543457031
0.5494474411010742,0.6595344543457031
0.5524251937866210,0.6552652359008789
0.5524251937866210,0.6552652359008789
0.5585357666015625,0.6658859252929688
0.5585357666015625,0.6658859252929688
0.5494445800781250,0.6590314865112304
0.5494445800781250,0.6590314865112304
0.5606678009033202,0.6649097442626953
0.5606678009033202,0.6649097442626953
0.5532909393310547,0.6681375503540039
0.5532909393310547,0.6681375503540039
0.5561124801635742,0.6627565383911133
0.5561124801635742,0.6627565383911133
0.5618219375610352,0.6725452423095702
0.5618219375610352,0.6725452423095702
0.5520412445068359,0.6647632598876952
0.5520412445068359,0.6647632598876952
0.5630498886108398,0.6694152832031249
0.5630498886108398,0.6694152832031249
0.5553777694702148,0.6723209381103515
0.5553777694702148,0.6723209381103515
0.5577638626098632,0.6658555984497070
0.5577638626098632,0.6658555984497070
0.5625148773193359,0.6737503051757813
0.5625148773193359,0.6737503051757813
0.5508653640747070,0.6607561111450195
0.5508653640747070,0.6607561111450195
0.5587308883666992,0.6588117599487304
0.5587308883666992,0.6588117599487304
0.5472650527954102,0.6535795211791992
0.5472650527954102,0.6535795211791992
0.5462917327880860,0.6404582977294921
0.5462917327880860,0.6404582977294921
0.5485713958740234,0.6430475234985351
0.5485713958740234,0.6430475234985351
0.5356492996215820,0.6284837722778320
0.5356492996215820,0.6284837722778320
0.5435405731201172,0.6271665573120117
0.5435405731201172,0.6271665573120117
0.5342285156250000,0.6264707565307617
0.5342285156250000,0.6264707565307617
0.5349946975708008,0.6175552368164062
0.5349946975708008,0.6175552368164062
0.5398550033569336,0.6253023147583008
0.5398550033569336,0.6253023147583008
0.5295101165771484,0.6162597656250000
0.5295101165771484,0.6162597656250000
0.5400976181030274,0.6205764770507812
0.5400976181030274,0.6205764770507812
0.5326154708862304,0.6234752655029296
0.5326154708862304,0.6234752655029296
0.5354118347167969,0.6180221557617187
0.5354118347167969,0.6180221557617187
0.5412363052368164,0.6286640167236328
0.5412363052368164,0.6286640167236328
0.5320323944091797,0.6219532012939453
0.5320323944091797,0.6219532012939453
0.5437963485717773,0.6282520294189453
0.5437963485717773,0.6282520294189453
0.5368446350097656,0.6328811645507812
0.5368446350097656,0.6328811645507812
0.5404895782470703,0.6288202285766601
0.5404895782470703,0.6288202285766601
0.5468582153320313,0.6409595489501952
0.5468582153320313,0.6409595489501952
0.5379781723022461,0.6344249725341796
0.5379781723022461,0.6344249725341796
0.5499195098876953,0.6412158966064453
0.5499195098876953,0.6412158966064453
0.5428344726562500,0.6455057144165038
0.5428344726562500,0.6455057144165038
0.5462499618530273,0.6413269042968750
0.5462499618530273,0.6413269042968750
0.5522563934326171,0.6518480300903320
0.5522563934326171,0.6518480300903320
0.5427515029907226,0.6444053649902344
0.5427515029907226,0.6444053649902344
0.5539987564086913,0.6501022338867187
0.5539987564086913,0.6501022338867187
0.5466218948364258,0.6536727905273437
0.5466218948364258,0.6536727905273437
0.5497106552124024,0.6483747482299804
0.5497106552124024,0.6483747482299804
0.5552215576171875,0.6585628509521484
0.5552215576171875,0.6585628509521484
0.5460628509521485,0.6512054443359375
0.5460628509521485,0.6512054443359375
0.5570783615112305,0.6571266174316406
0.5570783615112305,0.6571266174316406
0.5500562667846679,0.6605735778808594
0.5500562667846679,0.6605735778808594
0.5531925201416016,0.6560628890991210
0.5531925201416016,0.6560628890991210
0.5586336135864257,0.6663305282592773
0.5586336135864257,0.6663305282592773
0.5496517181396484,0.6595087051391602
0.5496517181396484,0.6595087051391602
0.5604681015014649,0.6644519805908203
0.5604681015014649,0.6644519805908203
0.5531089782714843,0.6669536590576172
0.5531089782714843,0.6669536590576172
0.5553176879882812,0.6599132537841796
0.5553176879882812,0.6599132537841796
0.5586725234985351,0.6650602340698242
0.5586725234985351,0.6650602340698242
0.5459747314453125,0.6489807128906250
0.5459747314453125,0.6489807128906250
0.5515125274658202,0.6435539245605468
0.5515125274658202,0.6435539245605468
0.5392301559448242,0.6361999511718750
0.5392301559448242,0.6361999511718750
0.5380022048950195,0.6226999282836914
0.5380022048950195,0.6226999282836914
0.5398973464965821,0.6254940032958984
0.5398973464965821,0.6254940032958984
0.5284034729003906,0.6131801605224609
0.5284034729003906,0.6131801605224609
0.5370248794555664,0.6143440246582031
0.5370248794555664,0.6143440246582031
0.5282661437988281,0.6144687652587890
0.5282661437988281,0.6144687652587890
0.5299919128417968,0.6066112518310547
0.5299919128417968,0.6066112518310547
0.5342199325561523,0.6139177322387696
0.5342199325561523,0.6139177322387696
0.5351240158081054,0.6122915267944335
0.5351240158081054,0.6122915267944335
0.5267715454101562,0.6027975082397461
0.5241233825683593,0.6027975082397461
0.5346845626831055,0.6109182357788085
0.5322120666503906,0.6109182357788085
0.5256168365478515,0.6078912734985351
0.5256168365478515,0.6078912734985351
0.5327836990356445,0.6072246551513671
0.5327836990356445,0.6072246551513671
0.5320060729980468,0.6142719268798827
0.5320060729980468,0.6142719268798827
0.5281299591064453,0.6054679870605468
0.5281299591064453,0.6054679870605468
0.5366563796997070,0.6141260147094726
0.5366563796997070,0.6141260147094726
0.5274650573730468,0.6124156951904297
0.5274650573730468,0.6124156951904297
0.5352979660034179,0.6119653701782226
0.5352979660034179,0.6119653701782226
0.5345666885375976,0.6198308944702148
0.5345666885375976,0.6198308944702148
0.5310155868530273,0.6108684539794922
0.5310155868530273,0.6108684539794922
0.5399517059326172,0.6214897155761718
0.5399517059326172,0.6214897155761718
0.5309234619140625,0.6198268890380859
0.5309234619140625,0.6198268890380859
0.5389726638793945,0.6202239990234375
0.5389726638793945,0.6202239990234375
0.5388416290283203,0.6287904739379883
0.5388416290283203,0.6287904739379883
0.5357786178588867,0.6216299057006835
0.5357786178588867,0.6216299057006835
0.5454254150390625,0.6331432342529296
0.5454254150390625,0.6331432342529296
0.5366683959960937,0.6324628829956055
0.5366683959960937,0.6324628829956055
0.5452720642089843,0.6334585189819336
0.5452720642089843,0.6334585189819336
0.5456554412841796,0.6439132690429688
0.5456554412841796,0.6439132690429688
0.5428550720214843,0.6370416641235351
0.5428550720214843,0.6370416641235351
0.5523416519165039,0.6483095169067382
0.5523416519165039,0.6483095169067382
0.5436183929443359,0.6467336654663086
0.5436183929443359,0.6467336654663086
0.5519170761108398,0.6475255966186523
0.5519170761108398,0.6475255966186523
0.5514913558959961,0.6559650421142578
0.5514913558959961,0.6559650421142578
0.5475139617919922,0.6465099334716796
0.5475139617919922,0.6465099334716796
0.5558492660522460,0.6539331436157226
0.5558492660522460,0.6539331436157226
0.5443181991577148,0.6473018646240234
0.5443181991577148,0.6473018646240234
0.5488626480102539,0.6390283584594726
0.5488626480102539,0.6390283584594726
0.5436893463134765,0.6375148773193359
0.5436893463134765,0.6375148773193359
0.5354490280151367,0.6192581176757812
0.5354490280151367,0.6192581176757812
0.5404300689697266,0.6215040206909179
0.5404300689697266,0.6215040206909179
0.5282707214355469,0.6137237548828125
0.5282707214355469,0.6137237548828125
0.5334474563598632,0.6083398818969726
0.5334474563598632,0.6083398818969726
0.5313451766967773,0.6123744964599609
0.5313451766967773,0.6123744964599609
0.5261175155639648,0.6012016296386719
0.5261175155639648,0.6012016296386719
0.5339006423950196,0.6084217071533203
0.5339006423950196,0.6084217071533203
0.5237663269042968,0.6046085357666016
0.5237663269042968,0.6046085357666016
0.5304599761962890,0.6018985748291016
0.5304599761962890,0.6018985748291016
0.5293722152709961,0.6088045120239257
0.5293722152709961,0.6088045120239257
0.5252883911132812,0.5994535446166992
0.5252883911132812,0.5994535446166992
0.5334388732910156,0.6081132888793945
0.5334388732910156,0.6081132888793945
0.5246692657470703,0.6057088851928710
0.5246692657470703,0.6057088851928710
0.5319402694702148,0.6056247711181640
0.5319402694702148,0.6056247711181640
0.5318029403686523,0.6139514923095702
0.5318029403686523,0.6139514923095702
0.5285327911376952,0.6063171386718750
0.5285327911376952,0.6063171386718750
0.5375661849975586,0.6165006637573242
0.5375661849975586,0.6165006637573242
0.5292491912841797,0.6164045333862305
0.5292491912841797,0.6164045333862305
0.5377120971679688,0.6177824020385742
0.5377120971679688,0.6177824020385742
0.5375999450683594,0.6266807556152344
0.5375999450683594,0.6266807556152344
0.5347663879394531,0.6190103530883789
0.5347663879394531,0.6190103530883789
0.5438381195068359,0.6302982330322265
0.5420059204101563,0.6302982330322265
0.5357093811035156,0.6297157287597656
0.5357093811035156,0.6297157287597656
0.5435153961181640,0.6305820465087890
0.5435153961181640,0.6305820465087890
0.5436962127685546,0.6390129089355469
0.5436962127685546,0.6390129089355469
0.5408798217773437,0.6326694488525391
0.5408798217773437,0.6326694488525391
0.5497718811035156,0.6432758331298828
0.5497718811035156,0.6432758331298828
0.5418268203735351,0.6426109313964844
0.5418268203735351,0.6426109313964844
0.5495429992675781,0.6432403564453125
0.5495429992675781,0.6432403564453125
0.5497798919677734,0.6524471282958985
0.5497798919677734,0.6524471282958985
0.5468210220336914,0.6454645156860351
0.5468210220336914,0.6454645156860351
0.5553812026977539,0.6554649353027343
0.5553812026977539,0.6554649353027343
0.5472393035888672,0.6539651870727539
0.5472393035888672,0.6539651870727539
0.5548187255859375,0.6546964645385742
0.5548187255859375,0.6546964645385742
0.5545257568359375,0.6626306533813476
0.5545257568359375,0.6626306533813476
0.5508836746215821,0.6542055130004882
0.5508836746215821,0.6542055130004882
0.5588842391967773,0.6616098403930664
0.5588842391967773,0.6616098403930664
0.5487316131591796,0.6564125061035156
0.5487316131591796,0.6564125061035156
0.5528886795043945,0.6486608505249023
0.5528886795043945,0.6486608505249023
0.5476495742797851,0.6463960647583008
0.5476495742797851,0.6463960647583008
0.5392902374267577,0.6274074554443360
0.5392902374267577,0.6274074554443360
0.5433792114257813,0.6282606124877930
0.5433792114257813,0.6282606124877930
0.5308565139770508,0.6191282272338867
0.5308565139770508,0.6191282272338867
0.5356361389160156,0.6131217956542968
0.5356361389160156,0.6131217956542968
0.5332672119140625,0.6169944763183594
0.5332672119140625,0.6169944763183594
0.5283044815063477,0.6061752319335937
0.5283044815063477,0.6061752319335937
0.5364669799804688,0.6144458770751953
0.5364669799804688,0.6144458770751953
0.5265604019165039,0.6113182067871094
0.5265604019165039,0.6113182067871094
0.5343372344970703,0.6099826812744140
0.5343372344970703,0.6099826812744140
0.5336774826049805,0.6184581756591797
0.5336774826049805,0.6184581756591797
0.5303077697753906,0.6103237152099609
0.5303077697753906,0.6103237152099609
0.5394710540771485,0.6210342407226562
0.5394710540771485,0.6210342407226562
0.5307924270629882,0.6196409225463867
0.5307924270629882,0.6196409225463867
0.5395156860351562,0.6212894439697265
0.5395156860351562,0.6212894439697265
0.5395694732666015,0.6314861297607421
0.5395694732666015,0.6314861297607421
0.5368526458740234,0.6247198104858398
0.5368526458740234,0.6247198104858398
0.5469841003417969,0.6365169525146485
0.5469841003417969,0.6365169525146485
0.5388347625732421,0.6369358062744140
0.5388347625732421,0.6369358062744140
0.5472919464111328,0.6380704879760742
0.5472919464111328,0.6380704879760742
0.5473022460937500,0.6472578048706055
0.5473022460937500,0.6472578048706055
0.5438879013061523,0.6387039184570312
0.5438879013061523,0.6387039184570312
0.5529596328735351,0.6489887237548828
0.5529596328735351,0.6489887237548828
0.5436498641967773,0.6465385437011718
0.5436498641967773,0.6465385437011718
0.5508367538452148,0.6452877044677734
0.5508367538452148,0.6452877044677734
0.5498554229736328,0.6519876480102539
0.5498554229736328,0.6519876480102539
0.5457778930664062,0.6423923492431640
0.5457778930664062,0.6423923492431640
0.5540227890014648,0.6510595321655274
0.5540227890014648,0.6510595321655274
0.5440040588378906,0.6475107192993164
0.5440040588378906,0.6475107192993164
0.5512590408325195,0.6454141616821288
0.5512590408325195,0.6454141616821288
0.5499624252319336,0.6528190612792969
0.5499624252319336,0.6528190612792969
0.5459009170532226,0.6426767349243164
0.5459009170532226,0.6426767349243164
0.5542556762695312,0.6517095565795898
0.5542556762695312,0.6517095565795898
0.5444578170776367,0.6478958129882812
0.5444578170776367,0.6478958129882812
0.5520372390747070,0.6472389221191406
0.5457710266113281,0.6472389221191406
0.5506313323974609,0.6541259765624999
0.5506313323974609,0.6541259765624999
0.5461721420288086,0.6427356719970703
0.5461721420288086,0.6427356719970703
0.5532045364379883,0.6482013702392578
0.5532045364379883,0.6482013702392578
0.5411293029785156,0.6401464462280273
0.5411293029785156,0.6401464462280273
0.5456291198730469,0.6326322555541992
0.5456291198730469,0.6326322555541992
0.5409467697143554,0.6328914642333984
0.5409467697143554,0.6328914642333984
0.5342182159423828,0.6168863296508789
0.5342182159423828,0.6168863296508789
0.5403018951416015,0.6218822479248046
0.5403018951416015,0.6218822479248046
0.5290248870849609,0.6154907226562499
0.5290248870849609,0.6154907226562499
0.5349317550659179,0.6115087509155274
0.5349317550659179,0.6115087509155274
0.5328300476074218,0.6159805297851563
0.5328300476074218,0.6159805297851563
0.5283920288085937,0.6056093215942383
0.5283920288085937,0.6056093215942383
0.5361059188842773,0.6135589599609375
0.5361059188842773,0.6135589599609375
0.5265300750732421,0.6101371765136718
0.5265300750732421,0.6101371765136718
0.5336912155151367,0.6085590362548828
0.5336912155151367,0.6085590362548828
0.5326887130737304,0.6162832260131835
0.5326887130737304,0.6162832260131835
0.5295284271240234,0.6077384948730469
0.5295284271240234,0.6077384948730469
0.5377492904663086,0.6174121856689453
0.5377492904663086,0.6174121856689453
0.5290311813354492,0.6150718688964844
0.5290311813354492,0.6150718688964844
0.5368635177612304,0.6155553817749023
0.5368635177612304,0.6155553817749023
0.5362100601196289,0.6233865737915039
0.5362100601196289,0.6233865737915039
0.5328821182250977,0.6149940490722656
0.5328821182250977,0.6149940490722656
0.5411745071411133,0.6237762451171874
0.5411745071411133,0.6237762451171874
0.5320924758911133,0.6214771270751953
0.5320924758911133,0.6214771270751953
0.5395305633544921,0.6208116531372070
0.5395305633544921,0.6208116531372070
0.5382396697998046,0.6277679443359375
0.5382396697998046,0.6277679443359375
0.5348493576049804,0.6187585830688477
0.5348493576049804,0.6187585830688477
0.5431194305419922,0.6286130905151367
0.5431194305419922,0.6286130905151367
0.5343097686767578,0.6263134002685546
0.5343097686767578,0.6263134002685546
0.5417444229125976,0.6262012481689453
0.5417444229125976,0.6262012481689453
0.5410051345825195,0.6331895828247071
0.5410051345825195,0.6331895828247071
0.5376268386840820,0.6251329421997071
0.5376268386840820,0.6251329421997071
0.5459369659423828,0.6347831726074219
0.5459369659423828,0.6347831726074219
0.5372154235839843,0.6328685760498046
0.5372154235839843,0.6328685760498046
0.5446907043457031,0.6320943832397461
0.5446907043457031,0.6320943832397461
0.5440223693847656,0.6402299880981445
0.5440223693847656,0.6402299880981445
0.5406520843505859,0.6317390441894531
0.5406520843505859,0.6317390441894531
0.5491550445556640,0.6414253234863281
0.5491550445556640,0.6414253234863281
0.5402343749999999,0.6389917373657227
0.5402343749999999,0.6389917373657227
0.5479843139648437,0.6391828536987304
0.5479843139648437,0.6391828536987304
0.5471849441528320,0.6466403961181640
0.5471849441528320,0.6466403961181640
0.5431692123413085,0.6366783142089844
0.5431692123413085,0.6366783142089844
0.5508235931396485,0.6433713912963867
0.5508235931396485,0.6433713912963867
0.5395986557006835,0.6367029190063477
0.5395986557006835,0.6367029190063477
0.5353826522827149,0.6265806198120117
0.5363914489746093,0.6265806198120117
0.5430816650390625,0.6257617950439452
0.5371044158935546,0.6257617950439452
0.5331110000610352,0.6236886978149414
0.5331110000610352,0.6236886978149414
0.5341026306152343,0.6143508911132812
0.5341026306152343,0.6143508911132812
0.5374666213989258,0.6201742172241210
0.5374666213989258,0.6201742172241210
0.5268087387084961,0.6091552734375000
0.5268087387084961,0.6091552734375000
0.5360166549682617,0.6112552642822265
0.5360166549682617,0.6112552642822265
0.5273363113403320,0.6119945526123046
0.5273363113403320,0.6119945526123046
0.5294002532958985,0.6043979644775390
0.5294002532958985,0.6043979644775390
0.5337055206298827,0.6123842239379883
0.5337055206298827,0.6123842239379883
0.5238636016845702,0.6033239364624023
0.5238636016845702,0.6033239364624023
0.5341924667358399,0.6076526641845703
0.5341924667358399,0.6076526641845703
0.5265209197998046,0.6100273132324219
0.5265209197998046,0.6100273132324219
0.5295289993286133,0.6047075271606445
0.5295289993286133,0.6047075271606445
0.5348768234252930,0.6149654388427734
0.5348768234252930,0.6149654388427734
0.5261238098144531,0.6080251693725586
0.5261238098144531,0.6080251693725586
0.5370065689086914,0.6135206222534180
0.5370065689086914,0.6135206222534180
0.5298316955566406,0.6173503875732421
0.5298316955566406,0.6173503875732421
0.5335138320922851,0.6132110595703125
0.5335138320922851,0.6132110595703125
0.5393297195434570,0.6244377136230469
0.5393297195434570,0.6244377136230469
0.5305744171142578,0.6177148818969727
0.5305744171142578,0.6177148818969727
0.5417890548706055,0.6239925384521484
0.5417890548706055,0.6239925384521484
0.5348785400390624,0.6280431747436523
0.5348785400390624,0.6280431747436523
0.5387266159057617,0.6242797851562499
0.5387266159057617,0.6242797851562499
0.5443342208862304,0.6349685668945312
0.5443342208862304,0.6349685668945312
0.5356372833251953,0.6281558990478515
0.5356372833251953,0.6281558990478515
0.5466487884521484,0.6340662002563476
0.5422983169555664,0.6340662002563476
0.5395208358764648,0.6380899429321288
0.5473554611206054,0.6380899429321288
0.5431102752685547,0.6335546493530273
0.5386539459228515,0.6335546493530273
0.5485816955566406,0.6439493179321288
0.5505128860473633,0.6439493179321288
0.5397851943969726,0.6369798660278320
0.5422903060913086,0.6369798660278320
0.5508184432983398,0.6431659698486328
0.5465486526489257,0.6431659698486328
0.5435588836669921,0.6465425491333008
0.5435588836669921,0.6465425491333008
0.5472742080688476,0.6422012329101562
0.5472742080688476,0.6422012329101562
0.5525276184082031,0.6524660110473632
0.5525276184082031,0.6524660110473632
0.5439908981323242,0.6456270217895508
0.5439908981323242,0.6456270217895508
0.5543958663940429,0.6506103515625000
0.5543958663940429,0.6506103515625000
0.5465612411499023,0.6520860671997070
0.5465612411499023,0.6520860671997070
0.5483974456787110,0.6437410354614258
0.5483974456787110,0.6437410354614258
0.5506330490112304,0.6473613739013672
0.5506330490112304,0.6473613739013672
0.5383323669433594,0.6318449020385742
0.5383323669433594,0.6318449020385742
0.5448623657226562,0.6293151855468749
0.5448623657226562,0.6293151855468749
0.5340848922729492,0.6253681182861328
0.5340848922729492,0.6253681182861328
0.5349214553833007,0.6157361984252929
0.5349214553833007,0.6157361984252929
0.5379632949829102,0.6215772628784180
0.5379632949829102,0.6215772628784180
0.5282758712768555,0.6119504928588867
0.5282758712768555,0.6119504928588867
0.5379638671875000,0.6157722473144531
0.5379638671875000,0.6157722473144531
0.5299844741821289,0.6176736831665038
0.5299844741821289,0.6176736831665038
0.5328672409057617,0.6116861343383789
0.5328672409057617,0.6116861343383789
0.5373767852783203,0.6202817916870117
0.5373767852783203,0.6202817916870117
0.5282941818237304,0.6121559143066406
0.5282941818237304,0.6121559143066406
0.5385446548461914,0.6173418045043945
0.5385446548461914,0.6173418045043945
0.5314430236816406,0.6204082489013671
0.5314430236816406,0.6204082489013671
0.5349208831787109,0.6163135528564453
0.5349208831787109,0.6163135528564453
0.5405284881591796,0.6269714355468750
0.5405284881591796,0.6269714355468750
0.5323671340942383,0.6215240478515625
0.5323671340942383,0.6215240478515625
0.5435886383056641,0.6282920837402344
0.5435886383056641,0.6282920837402344
0.5372245788574218,0.6332405090332031
0.5372245788574218,0.6332405090332031
0.5470848083496094,0.6339517593383789
0.5459764480590820,0.6350973129272460
0.5459764480590820,0.6350973129272460
0.5456508636474610,0.6439859390258789
0.5456508636474610,0.6439859390258789
0.5428007125854492,0.6358594894409180
0.5428007125854492,0.6358594894409180
0.5518684387207031,0.6469705581665038
0.5518684387207031,0.6469705581665038
0.5432785034179687,0.6456275939941406
0.5432785034179687,0.6456275939941406
0.5512407302856445,0.6462421417236328
0.5512407302856445,0.6462421417236328
0.5509397506713867,0.6546318054199218
0.5509397506713867,0.6546318054199218
0.5479780197143554,0.6471605300903320
0.5479780197143554,0.6471605300903320
0.5569347381591797,0.6578081130981445
0.5569347381591797,0.6578081130981445
0.5479087829589844,0.6558774948120117
0.5479087829589844,0.6558774948120117
0.5558675765991211,0.6554363250732421
0.5558675765991211,0.6554363250732421
0.5552032470703124,0.6640737533569335
0.5552032470703124,0.6640737533569335
0.5518209457397460,0.6555936813354492
0.5518209457397460,0.6555936813354492
0.5604858398437500,0.6655420303344727
0.5604858398437500,0.6655420303344727
0.5516693115234375,0.6630575180053710
0.5516693115234375,0.6630575180053710
0.5594598770141601,0.6633029937744140
0.5594598770141601,0.6633029937744140
0.5584819793701171,0.6710649490356445
0.5584819793701171,0.6710649490356445
0.5543352127075195,0.6605066299438477
0.5543352127075195,0.6605066299438477
0.5615295410156250,0.6659500122070312
0.5615295410156250,0.6659500122070312
0.5492185592651367,0.6564308166503906
0.5492185592651367,0.6564308166503906
0.5525339126586913,0.6462158203125000
0.5525339126586913,0.6462158203125000
0.5460771560668946,0.6433542251586913
0.5460771560668946,0.6433542251586913
0.5382431030273437,0.6246442794799805
0.5382431030273437,0.6246442794799805
0.5433322906494140,0.6279882431030274
0.5433322906494140,0.6279882431030274
0.5310401916503906,0.6193176269531250
0.5310401916503906,0.6193176269531250
0.5368726730346679,0.6147554397583007
0.5368726730346679,0.6147554397583007
0.5340362548828125,0.6186641693115235
0.5340362548828125,0.6186641693115235
0.5293516159057617,0.6071170806884766
0.5293516159057617,0.6071170806884766
0.5369956970214843,0.6152435302734375
0.5369956970214843,0.6152435302734375
0.5268545150756836,0.6107162475585938
0.5268545150756836,0.6107162475585938
0.5343297958374024,0.6090070724487304
0.5343297958374024,0.6090070724487304
0.5326789855957031,0.6163536071777344
0.5326789855957031,0.6163536071777344
0.5291971206665039,0.6068973541259766
0.5291971206665039,0.6068973541259766
0.5377418518066406,0.6167438507080077
0.5377418518066406,0.6167438507080077
0.5285173416137695,0.6136081695556640
0.5285173416137695,0.6136081695556640
0.5365224838256836,0.6141077041625976
0.5365224838256836,0.6141077041625976
0.5354061126708984,0.6220361709594726
0.5354061126708984,0.6220361709594726
0.5323488235473632,0.6133993148803710
0.5323488235473632,0.6133993148803710
0.5410577774047851,0.6234724044799804
0.5410577774047851,0.6234724044799804
0.5322120666503906,0.6216836929321289
0.5322120666503906,0.6216836929321289
0.5402458190917968,0.6222158432006836
0.5402458190917968,0.6222158432006836
0.5392702102661132,0.6302982330322265
0.5392702102661132,0.6302982330322265
0.5366678237915039,0.6219291687011719
0.5366678237915039,0.6219291687011719
0.5451650619506836,0.6330699920654297
0.5451650619506836,0.6330699920654297
0.5369596481323242,0.6315982818603515
0.5369596481323242,0.6315982818603515
0.5448715209960937,0.6323982238769531
0.5448715209960937,0.6323982238769531
0.5441362380981445,0.6402391433715821
0.5441362380981445,0.6402391433715821
0.5414686203002930,0.6327089309692383
0.5414686203002930,0.6327089309692383
0.5498170852661133,0.6431076049804687
0.5498170852661133,0.6431076049804687
0.5413278579711914,0.6408170700073242
0.5413278579711914,0.6408170700073242
0.5491052627563476,0.6408411026000976
0.5491052627563476,0.6408411026000976
0.5479351043701172,0.6489463806152344
0.5479351043701172,0.6489463806152344
0.5452697753906249,0.6406230926513672
0.5452697753906249,0.6406230926513672
0.5533372879028320,0.6504421234130859
0.5533372879028320,0.6504421234130859
0.5446346282958984,0.6473814010620117
0.5446346282958984,0.6473814010620117
0.5521333694458007,0.6477550506591797
0.5521333694458007,0.6477550506591797
0.5506645202636719,0.6541837692260742
0.5506645202636719,0.6541837692260742
0.5466899871826172,0.6430103302001953
0.5466899871826172,0.6430103302001953
0.5523262023925781,0.6466999053955078
0.5523262023925781,0.6466999053955078
0.5402904510498047,0.6368179321289062
0.5402904510498047,0.6368179321289062
0.5436298370361328,0.6284276962280273
0.5436298370361328,0.6284276962280273
0.5384199142456054,0.6277439117431640
0.5384199142456054,0.6277439117431640
0.5324020385742188,0.6124042510986328
0.5324020385742188,0.6124042510986328
0.5377676010131835,0.6171821594238281
0.5377676010131835,0.6171821594238281
0.5273878097534179,0.6105875015258789
0.5273878097534179,0.6105875015258789
0.5330423355102539,0.6070226669311524
0.5330423355102539,0.6070226669311524
0.5304285049438476,0.6111059188842773
0.5304285049438476,0.6111059188842773
0.5262931823730469,0.6005281448364258
0.5262931823730469,0.6005281448364258
0.5335710525512695,0.6083284378051758
0.5335710525512695,0.6083284378051758
0.5240489959716796,0.6042228698730469
0.5240489959716796,0.6042228698730469
0.5313600540161133,0.6028890609741211
0.5313600540161133,0.6028890609741211
0.5299283981323242,0.6103740692138672
0.5299283981323242,0.6103740692138672
0.5268499374389648,0.6017801284790039
0.5268499374389648,0.6017801284790039
0.5353569030761719,0.6122274398803711
0.5353569030761719,0.6122274398803711
0.5268447875976562,0.6098390579223633
0.5268447875976562,0.6098390579223633
0.5352252960205078,0.6113262176513672
0.5352252960205078,0.6113262176513672
0.5342731475830078,0.6199012756347656
0.5342731475830078,0.6199012756347656
0.5316862106323242,0.6118864059448242
0.5316862106323242,0.6118864059448242
0.5405290603637695,0.6222433090209961
0.5405290603637695,0.6222433090209961
0.5315952301025391,0.6200912475585937
0.5315952301025391,0.6200912475585937
0.5396650314331054,0.6201828002929687
0.5396650314331054,0.6201828002929687
0.5380365371704101,0.6276254653930664
0.5380365371704101,0.6276254653930664
0.5347440719604492,0.6175849914550781
0.5347440719604492,0.6175849914550781
0.5430679321289062,0.6276987075805663
0.5430679321289062,0.6276987075805663
0.5336997985839843,0.6243261337280274
0.5336997985839843,0.6243261337280274
0.5413146972656250,0.6238214492797851
0.5413146972656250,0.6238214492797851
0.5397285461425781,0.6306844711303711
0.5397285461425781,0.6306844711303711
0.5366529464721680,0.6216779708862304
0.5366529464721680,0.6216779708862304
0.5449390411376953,0.6318752288818359
0.5449390411376953,0.6318752288818359
0.5358341217041015,0.6290147781372070
0.5358341217041015,0.6290147781372070
0.5364589691162109,0.6285930633544922
0.5364589691162109,0.6285930633544922
0.5428258895874023,0.6351860046386718
0.5398870468139648,0.6351860046386718
0.5398406982421875,0.6383743286132812
0.5398406982421875,0.6383743286132812
0.5438587188720703,0.6345010757446289
0.5438587188720703,0.6345010757446289
0.5489953994750977,0.6451263427734375
0.5489953994750977,0.6451263427734375
0.5409788131713867,0.6382575988769531
0.5409788131713867,0.6382575988769531
0.5509906768798828,0.6431865692138672
0.5509906768798828,0.6431865692138672
0.5428401947021484,0.6437473297119141
0.5428401947021484,0.6437473297119141
0.5442821502685546,0.6341354370117187
0.5442821502685546,0.6341354370117187
0.5459455490112305,0.6371767044067382
0.5459455490112305,0.6371767044067382
0.5340877532958984,0.6220865249633789
0.5340877532958984,0.6220865249633789
0.5406795501708984,0.6207515716552734
0.5406795501708984,0.6207515716552734
0.5306659698486328,0.6178075790405273
0.5371261596679687,0.6178075790405273
0.5319396972656250,0.6092136383056640
0.5319396972656250,0.6092136383056640
0.5349540710449219,0.6150072097778320
0.5349540710449219,0.6150072097778320
0.5255750656127930,0.6049959182739257
0.5255750656127930,0.6049959182739257
0.5342531204223633,0.6080623626708984
0.5342531204223633,0.6080623626708984
0.5264127731323242,0.6092851638793945
0.5264127731323242,0.6092851638793945
0.5292778015136719,0.6035047531127929
0.5292778015136719,0.6035047531127929
0.5336345672607422,0.6121501922607422
0.5336345672607422,0.6121501922607422
0.5255928039550781,0.6049163818359374
0.5255928039550781,0.6049163818359374
0.5355920791625977,0.6111288070678711
0.5355920791625977,0.6111288070678711
0.5289939880371094,0.6146947860717773
0.5289939880371094,0.6146947860717773
0.5333358764648437,0.6122566223144531
0.5333358764648437,0.6122566223144531
0.5388164520263672,0.6238998413085938
0.5388164520263672,0.6238998413085938
0.5322406768798827,0.6195842742919921
0.5322406768798827,0.6195842742919921
0.5431715011596679,0.6276535034179688
0.5431715011596679,0.6276535034179688
0.5372051239013672,0.6328285217285156
0.5372051239013672,0.6328285217285156
0.5418554306030273,0.6305585861206054
0.5418554306030273,0.6305585861206054
0.5472061157226562,0.6418544769287109
0.5472061157226562,0.6418544769287109
0.5401748657226563,0.6360706329345703
0.5401748657226563,0.6360706329345703
0.5503995895385742,0.6428707122802734
0.5503995895385742,0.6428707122802734
0.5440343856811524,0.6466798782348633
0.5440343856811524,0.6466798782348633
0.5479442596435546,0.6434749603271485
0.5479442596435546,0.6434749603271485
0.5527359008789062,0.6532081604003906
0.5527359008789062,0.6532081604003906
0.5451587677001953,0.6464681625366211
0.5451587677001953,0.6464681625366211
0.5547431945800781,0.6520648956298828
0.5547431945800781,0.6520648956298828
0.5478378295898437,0.6552652359008789
0.5478378295898437,0.6552652359008789
0.5513528823852539,0.6506761550903321
0.5513528823852539,0.6506761550903321
0.5559442520141601,0.6599950790405273
0.5559442520141601,0.6599950790405273
0.5478509902954102,0.6523698806762696
0.5478509902954102,0.6523698806762696
0.5576042175292969,0.6580381393432617
0.5576042175292969,0.6580381393432617
0.5501483917236328,0.6602153778076172
0.5501483917236328,0.6602153778076172
0.5538385391235351,0.6553487777709961
0.5538385391235351,0.6553487777709961
0.5583732604980468,0.6650247573852539
0.5583732604980468,0.6650247573852539
0.5499464035034179,0.6569704055786133
0.5499464035034179,0.6569704055786133
0.5596584320068360,0.6616807937622070
0.5596584320068360,0.6616807937622070
0.5509374618530273,0.6614891052246094
0.5509374618530273,0.6614891052246094
0.5527845382690429,0.6518411636352539
0.5527845382690429,0.6518411636352539
0.5541263580322265,0.6548229217529297
0.5541263580322265,0.6548229217529297
0.5418159484863281,0.6381528854370117
0.5418159484863281,0.6381528854370117
0.5482440948486328,0.6361936569213867
0.5482440948486328,0.6361936569213867
0.5369310379028320,0.6313722610473632
0.5369310379028320,0.6313722610473632
0.5381235122680664,0.6212419509887696
0.5381235122680664,0.6212419509887696
0.5404924392700196,0.6268581390380860
0.5404924392700196,0.6268581390380860
0.5307460784912109,0.6155279159545898
0.5307460784912109,0.6155279159545898
0.5398046493530273,0.6192804336547851
0.5398046493530273,0.6192804336547851
0.5312524795532226,0.6201862335205078
0.5312524795532226,0.6201862335205078
0.5344207763671874,0.6139875411987304
0.5344207763671874,0.6139875411987304
0.5386030197143554,0.6228801727294921
0.5386030197143554,0.6228801727294921
0.5302236557006835,0.6146959304809571
0.5302236557006835,0.6146959304809571
0.5403785705566406,0.6209386825561524
0.5403785705566406,0.6209386825561524
0.5331836700439453,0.6238620758056640
0.5411493301391601,0.6238620758056640
0.5372428894042969,0.6200420379638671
0.5372428894042969,0.6200420379638671
0.5422754287719727,0.6308418273925781
0.5422754287719727,0.6308418273925781
0.5347160339355469,0.6243564605712890
0.5347160339355469,0.6243564605712890
0.5451255798339844,0.6311576843261718
0.5451255798339844,0.6311576843261718
0.5382717132568359,0.6347768783569335
0.5382717132568359,0.6347768783569335
0.5423229217529296,0.6308990478515625
0.5423229217529296,0.6308990478515625
0.5472822189331055,0.6415992736816406
0.5472822189331055,0.6415992736816406
0.5393995285034180,0.6341239929199218
0.5393995285034180,0.6341239929199218
0.5495103836059571,0.6401847839355469
0.5495103836059571,0.6401847839355469
0.5420906066894531,0.6426767349243164
0.5420906066894531,0.6426767349243164
0.5459901809692382,0.6382204055786133
0.5459901809692382,0.6382204055786133
0.5503131866455078,0.6477693557739258
0.5503131866455078,0.6477693557739258
0.5420682907104492,0.6392675399780273
0.5420682907104492,0.6392675399780273
0.5518037796020507,0.6447601318359375
0.5518037796020507,0.6447601318359375
0.5438724517822265,0.6466335296630860
0.5438724517822265,0.6466335296630860
0.5474899291992187,0.6415225982666015
0.5474899291992187,0.6415225982666015
0.5515645980834961,0.6508712768554688
0.5515645980834961,0.6508712768554688
0.5438312530517578,0.6428489685058594
0.5438312530517578,0.6428489685058594
0.5535959243774414,0.6494098663330078
0.5535959243774414,0.6494098663330078
0.5461933135986328,0.6515624999999999
0.5461933135986328,0.6515624999999999
0.5501907348632812,0.6475959777832031
0.5501907348632812,0.6475959777832031
0.5545000076293946,0.6575912475585938
0.5545000076293946,0.6575912475585938
0.5470899581909180,0.6501605987548827
0.5470899581909180,0.6501605987548827
0.5564844131469726,0.6551376342773437
0.5564844131469726,0.6551376342773437
0.5477931976318359,0.6541070938110352
0.5477931976318359,0.6541070938110352
0.5493318557739257,0.6440340042114258
0.5493318557739257,0.6440340042114258
0.5496923446655273,0.6458770751953125
0.5496923446655273,0.6458770751953125
0.5381818771362304,0.6291978836059570
0.5381818771362304,0.6291978836059570
0.5435794830322266,0.6270910263061523
0.5435794830322266,0.6270910263061523
0.5328220367431641,0.6221614837646484
0.5328220367431641,0.6221614837646484
0.5342668533325196,0.6130708694458008
0.5342668533325196,0.6130708694458008
0.5360944747924804,0.6180067062377930
0.5360944747924804,0.6180067062377930
0.5272018432617187,0.6070632934570312
0.5272018432617187,0.6070632934570312
0.5353975296020508,0.6109428405761719
0.5353975296020508,0.6109428405761719
0.5273197174072265,0.6115167617797851
0.5273197174072265,0.6115167617797851
0.5306110382080078,0.6059234619140624
0.5306110382080078,0.6059234619140624
0.5341547012329101,0.6142038345336914
0.5341547012329101,0.6142038345336914
0.5269014358520507,0.6063016891479492
0.5269014358520507,0.6063016891479492
0.5359359741210937,0.6122457504272460
0.5359359741210937,0.6122457504272460
0.5288841247558593,0.6142433166503906
0.5288841247558593,0.6142433166503906
0.5327939987182617,0.6102716445922851
0.5327939987182617,0.6102716445922851
0.5369556427001952,0.6199052810668945
0.5369556427001952,0.6199052810668945
0.5299798965454101,0.6128385543823242
0.5299798965454101,0.6128385543823242
0.5393131256103515,0.6190835952758789
0.5393131256103515,0.6190835952758789
0.5323219299316406,0.6215000152587891
0.5323219299316406,0.6215000152587891
0.5362638473510742,0.6175849914550781
0.5362638473510742,0.6175849914550781
0.5406303405761719,0.6274583816528320
0.5406303405761719,0.6274583816528320
0.5333696365356445,0.6197908401489257
0.5333696365356445,0.6197908401489257
0.5430330276489258,0.6263614654541015
0.5430330276489258,0.6263614654541015
0.5357494354248047,0.6289690017700195
0.5357494354248047,0.6289690017700195
0.5399196624755859,0.6254402160644531
0.5399196624755859,0.6254402160644531
0.5445877075195312,0.6356122970581054
0.5470836639404296,0.6356122970581054
0.5371828079223633,0.6281730651855468
0.5371828079223633,0.6281730651855468
0.5470230102539062,0.6350893020629883
0.5470230102539062,0.6350893020629883
0.5398544311523438,0.6379915237426758
0.5398544311523438,0.6379915237426758
0.5440183639526367,0.6337440490722656
0.5440183639526367,0.6337440490722656
0.5484334945678710,0.6436088562011718
0.5484334945678710,0.6436088562011718
0.5405422210693359,0.6350074768066406
0.5405422210693359,0.6350074768066406
0.5499927520751953,0.6409915924072266
0.5499927520751953,0.6409915924072266
0.5421707153320312,0.6422687530517578
0.5500539779663086,0.6422687530517578
0.5458963394165038,0.6371601104736327
0.5458963394165038,0.6371601104736327
0.5495693206787109,0.6461013793945313
0.5495693206787109,0.6461013793945313
0.5413427352905273,0.6360248565673828
0.5413427352905273,0.6360248565673828
0.5492895126342773,0.6384767532348633
0.5492895126342773,0.6384767532348633
0.5387512207031250,0.6341033935546875
0.5387512207031250,0.6341033935546875
0.5393463134765625,0.6220338821411132
0.5393463134765625,0.6220338821411132
0.5396083831787110,0.6244113922119140
0.5396083831787110,0.6244113922119140
0.5287296295166015,0.6091712951660156
0.5287296295166015,0.6091712951660156
0.5357196807861327,0.6103706359863281
0.5357196807861327,0.6103706359863281
0.5256557464599609,0.6075038909912109
0.5256557464599609,0.6075038909912109
0.5280406951904296,0.5997837066650390
0.5280406951904296,0.5997837066650390
0.5305973052978515,0.6063440322875976
0.5305973052978515,0.6063440322875976
0.5220348358154296,0.5956512451171875
0.5220348358154296,0.5956512451171875
0.5306007385253906,0.6005052566528321
0.5306007385253906,0.6005052566528321
0.5224290847778320,0.6011713027954101
0.5224290847778320,0.6011713027954101
0.5260768890380859,0.5956821441650391
0.5260768890380859,0.5956821441650391
0.5297807693481446,0.6046165466308594
0.5297807693481446,0.6046165466308594
0.5223489761352539,0.5965255737304688
0.5223489761352539,0.5965255737304688
0.5319969177246093,0.6036581039428711
0.5319969177246093,0.6036581039428711
0.5248558044433593,0.6058908462524414
0.5248558044433593,0.6058908462524414
0.5292428970336914,0.6025737762451172
0.5292428970336914,0.6025737762451172
0.5338331222534179,0.6133277893066406
0.5338331222534179,0.6133277893066406
0.5274364471435546,0.6075193405151367
0.5274364471435546,0.6075193405151367
0.5375329971313476,0.6156074523925781
0.5375329971313476,0.6156074523925781
0.5313812255859375,0.6195837020874023
0.5313812255859375,0.6195837020874023
0.5362781524658203,0.6178459167480469
0.5362781524658203,0.6178459167480469
0.5412889480590820,0.6297924041748046
0.5412889480590820,0.6297924041748046
0.5356435775756836,0.6243696212768555
0.5407052993774414,0.6325418472290039
0.5458213806152343,0.6332965850830078
0.5424219131469726,0.6332965850830078
0.5398309707641601,0.6374250411987304
0.5398309707641601,0.6374250411987304
0.5447267532348633,0.6360637664794921
0.5447267532348633,0.6360637664794921
0.5496099472045898,0.6471851348876952
0.5496099472045898,0.6471851348876952
0.5436189651489257,0.6415031433105468
0.5436189651489257,0.6415031433105468
0.5533721923828124,0.6496730804443359
0.5533721923828124,0.6496730804443359
0.5471855163574219,0.6533140182495117
0.5471855163574219,0.6533140182495117
0.5517620086669922,0.6507905960083008
0.5517620086669922,0.6507905960083008
0.5561983108520507,0.6613065719604492
0.5561983108520507,0.6613065719604492
0.5499280929565430,0.6548526763916015
0.5499280929565430,0.6548526763916015
0.5593254089355468,0.6625356674194336
0.5593254089355468,0.6625356674194336
0.5525876998901367,0.6648553848266602
0.5525876998901367,0.6648553848266602
0.5565759658813476,0.6613449096679688
0.5565759658813476,0.6613449096679688
0.5605728149414062,0.6708343505859374
0.5605728149414062,0.6708343505859374
0.5537509918212891,0.6631313323974609
0.5537509918212891,0.6631313323974609
0.5619918823242187,0.6674915313720703
0.5619918823242187,0.6674915313720703
0.5532995223999023,0.6652822494506836
0.5532995223999023,0.6652822494506836
0.5539249420166016,0.6540109634399414
0.5539249420166016,0.6540109634399414
0.5534225463867187,0.6535062789916992
0.5534225463867187,0.6535062789916992
0.5412059783935547,0.6347431182861328
0.5412059783935547,0.6347431182861328
0.5457395553588867,0.6319793701171875
0.5457395553588867,0.6319793701171875
0.5346920013427734,0.6260416030883789
0.5346920013427734,0.6260416030883789
0.5355611801147461,0.6162191390991211
0.5355611801147461,0.6162191390991211
0.5377086639404297,0.6221494674682617
0.5377086639404297,0.6221494674682617
0.5299449920654297,0.6122606277465820
0.5299449920654297,0.6122606277465820
0.5387449264526367,0.6181182861328125
0.5387449264526367,0.6181182861328125
0.5314052581787109,0.6199945449829102
0.5314052581787109,0.6199945449829102
0.5353591918945312,0.6156898498535156
0.5353591918945312,0.6156898498535156
0.5397119522094727,0.6258247375488281
0.5397119522094727,0.6258247375488281
0.5329547882080078,0.6182607650756836
0.5329547882080078,0.6182607650756836
0.5427463531494140,0.6264101028442383
0.5427463531494140,0.6264101028442383
0.5361946105957031,0.6296110153198242
0.5361946105957031,0.6296110153198242
0.5404518127441406,0.6270915985107421
0.5404518127441406,0.6270915985107421
0.5456909179687500,0.6387096405029297
0.5456909179687500,0.6387096405029297
0.5395614624023437,0.6328657150268554
0.5395614624023437,0.6328657150268554
0.5495470046997070,0.6409309387207031
0.5495470046997070,0.6409309387207031
0.5429672241210938,0.6438531875610352
0.5429672241210938,0.6438531875610352
0.5469606399536132,0.6403135299682617
0.5469606399536132,0.6403135299682617
0.5512796401977539,0.6507081985473633
0.5512796401977539,0.6507081985473633
0.5443256378173827,0.6418453216552734
0.5443256378173827,0.6418453216552734
0.5532703399658203,0.6480691909790038
0.5532703399658203,0.6480691909790038
0.5451141357421875,0.6482437133789062
0.5451141357421875,0.6482437133789062
0.5484941482543945,0.6429405212402344
0.5484941482543945,0.6429405212402344
0.5519399642944336,0.6513982772827148
0.5519399642944336,0.6513982772827148
0.5444875717163086,0.6421085357666015
0.5444875717163086,0.6421085357666015
0.5534626007080078,0.6484233856201171
0.5534626007080078,0.6484233856201171
0.5457372665405273,0.6496330261230469
0.5457372665405273,0.6496330261230469
0.5492929458618164,0.6447366714477539
0.5492929458618164,0.6447366714477539
0.5531055450439453,0.6544486999511718
0.5531055450439453,0.6544486999511718
0.5462791442871093,0.6460836410522460
0.5462791442871093,0.6460836410522460
0.5557645797729492,0.6538570404052734
0.5557645797729492,0.6538570404052734
0.5482778549194336,0.6555965423583984
0.5482778549194336,0.6555965423583984
0.5522666931152344,0.6516952514648438
0.5522666931152344,0.6516952514648438
0.5563373565673828,0.6616155624389648
0.5563373565673828,0.6616155624389648
0.5493799209594726,0.6526868820190429
0.5493799209594726,0.6526868820190429
0.5576854705810547,0.6567323684692382
0.5576854705810547,0.6567323684692382
0.5473188400268555,0.6516969680786132
0.5473188400268555,0.6516969680786132
0.5468564987182617,0.6381168365478516
0.5468564987182617,0.6381168365478516
0.5458637237548828,0.6381242752075195
0.5458637237548828,0.6381242752075195
0.5349077224731446,0.6207069396972656
0.5349077224731446,0.6207069396972656
0.5404088973999023,0.6208826065063476
0.5404088973999023,0.6208826065063476
0.5306259155273437,0.6171627044677734
0.5306259155273437,0.6171627044677734
0.5326280593872070,0.6097721099853516
0.5326280593872070,0.6097721099853516
0.5348991394042969,0.6161104202270508
0.5348991394042969,0.6161104202270508
0.5277276992797851,0.6062519073486328
0.5277276992797851,0.6062519073486328
0.5359067916870117,0.6119401931762695
0.5359067916870117,0.6119401931762695
0.5283496856689452,0.6127670288085937
0.5356275558471679,0.6127670288085937
0.5320770263671875,0.6084108352661133
0.5320770263671875,0.6084108352661133
0.5356006622314453,0.6178081512451171
0.5356006622314453,0.6178081512451171
0.5296216964721679,0.6102636337280273
0.5296216964721679,0.6102636337280273
0.5386819839477539,0.6178344726562500
0.5350261688232422,0.6178344726562500
0.5317846298217773,0.6196844100952148
0.5317846298217773,0.6196844100952148
0.5359422683715820,0.6166431427001953
0.5359422683715820,0.6166431427001953
0.5397497177124023,0.6264627456665038
0.5397497177124023,0.6264627456665038
0.5339910507202148,0.6195070266723632
0.5339910507202148,0.6195070266723632
0.5426971435546875,0.6263980865478516
0.5426971435546875,0.6263980865478516
0.5357316970825196,0.6276117324829101
0.5357316970825196,0.6276117324829101
0.5393028259277344,0.6235387802124023
0.5393028259277344,0.6235387802124023
0.5424596786499023,0.6320457458496094
0.5424596786499023,0.6320457458496094
0.5360652923583984,0.6230272293090821
0.5360652923583984,0.6230272293090821
0.5438232421875000,0.6282960891723632
0.5438232421875000,0.6282960891723632
0.5361579895019531,0.6280340194702149
0.5361579895019531,0.6280340194702149
0.5391294479370117,0.6230821609497070
0.5391294479370117,0.6230821609497070
0.5420070648193359,0.6308658599853515
0.5420070648193359,0.6308658599853515
0.5355079650878906,0.6219371795654297
0.5355079650878906,0.6219371795654297
0.5439462661743164,0.6283842086791992
0.5439462661743164,0.6283842086791992
0.5364675521850586,0.6293243408203125
0.5364675521850586,0.6293243408203125
0.5401227951049804,0.6247838973999024
0.5401227951049804,0.6247838973999024
0.5435480117797852,0.6338624954223633
0.5435480117797852,0.6338624954223633
0.5371902465820312,0.6255243301391601
0.5371902465820312,0.6255243301391601
0.5460016250610351,0.6330224990844726
0.5460016250610351,0.6330224990844726
0.5389005661010742,0.6344696044921875
0.5389005661010742,0.6344696044921875
0.5429855346679687,0.6312583923339844
0.5429855346679687,0.6312583923339844
0.5469137191772461,0.6413314819335937
0.5469137191772461,0.6413314819335937
0.5406143188476562,0.6331575393676757
0.5406143188476562,0.6331575393676757
0.5489267349243164,0.6383102416992187
0.5489267349243164,0.6383102416992187
0.5400094985961914,0.6355373382568359
0.5400094985961914,0.6355373382568359
0.5411453247070312,0.6260553359985351
0.5411453247070312,0.6260553359985351
0.5418336868286132,0.6296802520751953
0.5418336868286132,0.6296802520751953
0.5327018737792969,0.6154586791992187
0.5327018737792969,0.6154586791992187
0.5390018463134766,0.6172805786132812
0.5390018463134766,0.6172805786132812
0.5293424606323242,0.6136316299438477
0.5293424606323242,0.6136316299438477
0.5312873840332031,0.6060018539428711
0.5312873840332031,0.6060018539428711
0.5331441879272460,0.6118572235107421
0.5331441879272460,0.6118572235107421
0.5255023956298828,0.6008560180664062
0.5255023956298828,0.6008560180664062
0.5335681915283202,0.6060762405395508
0.5335681915283202,0.6060762405395508
0.5249902725219726,0.6054496765136719
0.5249902725219726,0.6054496765136719
0.5283737182617188,0.6000526428222656
0.5283737182617188,0.6000526428222656
0.5315299987792969,0.6086975097656250
0.5339790344238281,0.6086975097656250
0.5249736785888671,0.5999908447265625
0.5249736785888671,0.5999908447265625
0.5341455459594726,0.6078758239746094
0.5341455459594726,0.6078758239746094
0.5269804000854492,0.6090528488159179
0.5269804000854492,0.6090528488159179
0.5312227249145508,0.6060361862182617
0.5312227249145508,0.6060361862182617
0.5350404739379883,0.6164875030517578
0.5350404739379883,0.6164875030517578
0.5294528961181640,0.6095643997192383
0.5294528961181640,0.6095643997192383
0.5388364791870117,0.6177806854248047
0.5388364791870117,0.6177806854248047
0.5319974899291992,0.6199745178222656
0.5397537231445312,0.6199745178222656
0.5365528106689453,0.6177537918090820
0.5365528106689453,0.6177537918090820
0.5407098770141602,0.6290920257568359
0.5407098770141602,0.6290920257568359
0.5354169845581055,0.6221866607666016
0.5354169845581055,0.6221866607666016
0.5450815200805664,0.6310277938842773
0.5450815200805664,0.6310277938842773
0.5383323669433594,0.6332822799682617
0.5383323669433594,0.6332822799682617
0.5428007125854492,0.6312051773071289
0.5428007125854492,0.6312051773071289
0.5468421936035156,0.6414779663085938
0.5468421936035156,0.6414779663085938
0.5413129806518554,0.6343900680541992
0.5413129806518554,0.6343900680541992
0.5504127502441406,0.6426326751708984
0.5504127502441406,0.6426326751708984
0.5437574386596680,0.6446033477783203
0.5437574386596680,0.6446033477783203
0.5477468490600585,0.6415586471557617
0.5477468490600585,0.6415586471557617
0.5514387130737305,0.6516145706176758
0.5514387130737305,0.6516145706176758
0.5461292266845703,0.6448225021362305
0.5461292266845703,0.6448225021362305
0.5553377151489257,0.6536413192749023
0.5553377151489257,0.6536413192749023
0.5490674972534180,0.6558797836303710
0.5490674972534180,0.6558797836303710
0.5534162521362305,0.6542158126831055
0.5534162521362305,0.6542158126831055
0.5574726104736328,0.6647346496582031
0.5574726104736328,0.6647346496582031
0.5523525238037109,0.6581960678100586
0.5523525238037109,0.6581960678100586
0.5608148574829102,0.6646030426025390
0.5608148574829102,0.6646030426025390
0.5529029846191406,0.6629528045654297
0.5529029846191406,0.6629528045654297
0.5540805816650390,0.6539022445678710
0.5540805816650390,0.6539022445678710
0.5535049438476562,0.6545619964599609
0.5535049438476562,0.6545619964599609
0.5431016921997071,0.6364665985107422
0.5431016921997071,0.6364665985107422
0.5470235824584960,0.6344146728515625
0.5470235824584960,0.6344146728515625
0.5363113403320312,0.6277576446533203
0.5363113403320312,0.6277576446533203
0.5369384765624999,0.6186864852905273
0.5369384765624999,0.6186864852905273
0.5380073547363281,0.6228246688842773
0.5380073547363281,0.6228246688842773
0.5307672500610351,0.6119041442871094
0.5307672500610351,0.6119041442871094
0.5380714416503906,0.6167404174804687
0.5380714416503906,0.6167404174804687
0.5301704406738281,0.6159341812133788
0.5301704406738281,0.6159341812133788
0.5333507537841796,0.6111865997314453
0.5333507537841796,0.6111865997314453
0.5361968994140625,0.6192724227905273
0.5361968994140625,0.6192724227905273
0.5340517044067382,0.6171930313110351
0.5340517044067382,0.6198263168334961
0.5340517044067382,0.6198263168334961
0.5323545455932617,0.6119848251342773
0.5323545455932617,0.6119848251342773
0.5396753311157226,0.6232337951660156
0.5396753311157226,0.6232337951660156
0.5311632156372070,0.6179695129394531
0.5311632156372070,0.6179695129394531
0.5400867462158203,0.6224327087402344
0.5400867462158203,0.6224327087402344
0.5386505126953125,0.6303251266479492
0.5386505126953125,0.6303251266479492
0.5375753402709961,0.6233808517456054
0.5375753402709961,0.6233808517456054
0.5459203720092773,0.6362285614013672
0.5459203720092773,0.6362285614013672
0.5378671646118164,0.6329332351684570
0.5378671646118164,0.6329332351684570
0.5478057861328125,0.6388624191284179
0.5478057861328125,0.6388624191284179
0.5466917037963867,0.6479627609252929
0.5466917037963867,0.6479627609252929
0.5463832855224610,0.6415323257446289
0.5463832855224610,0.6415323257446289
0.5550750732421875,0.6561098098754883
0.5550750732421875,0.6561098098754883
0.5470996856689453,0.6528236389160156
0.5470996856689453,0.6528236389160156
0.5569868087768555,0.6585777282714843
0.5569868087768555,0.6585777282714843
0.5557743072509765,0.6665657043457031
0.5557743072509765,0.6665657043457031
0.5548313140869140,0.6597873687744140
0.5548313140869140,0.6597873687744140
0.5628364562988281,0.6725727081298828
0.5628364562988281,0.6725727081298828
0.5538242340087890,0.6670978546142577
0.5538242340087890,0.6670978546142577
0.5630481719970702,0.6704269409179687
0.5577615737915039,0.6704269409179687
0.5608331680297851,0.6777585983276367
0.5608331680297851,0.6777585983276367
0.5593351364135742,0.6691400527954101
0.5555545806884765,0.6691400527954101
0.5665071487426757,0.6803369522094727
0.5665071487426757,0.6803369522094727
0.5569353103637695,0.6729326248168945
0.5569353103637695,0.6729326248168945
0.5652671813964844,0.6753118515014648
0.5652671813964844,0.6753118515014648
0.5614889144897460,0.6784126281738281
0.5614889144897460,0.6784126281738281
0.5572849273681640,0.6636829376220703
0.5572849273681640,0.6636829376220703
0.5604921340942383,0.6649755477905274
0.5604921340942383,0.6649755477905274
0.5458654403686524,0.6474649429321289
0.5458654403686524,0.6474649429321289
0.5487819671630859,0.6389493942260742
0.5487819671630859,0.6389493942260742
0.5417741775512696,0.6356769561767578
0.5417741775512696,0.6356769561767578
0.5363903045654297,0.6193273544311523
0.5363903045654297,0.6193273544311523
0.5408506393432617,0.6254138946533203
0.5408506393432617,0.6254138946533203
0.5297716140747070,0.6155570983886719
0.5297716140747070,0.6155570983886719
0.5370471954345702,0.6160417556762695
0.5370471954345702,0.6160417556762695
0.5339498519897461,0.6200323104858398
0.5339498519897461,0.6200323104858398
0.5318647384643554,0.6106424331665039
0.5318647384643554,0.6106424331665039
0.5386625289916992,0.6209810256958007
0.5386625289916992,0.6209810256958007
0.5289276123046874,0.6139657974243163
0.5289276123046874,0.6139657974243163
0.5377664566040039,0.6167203903198242
0.5377664566040039,0.6167203903198242
0.5352510452270508,0.6234655380249023
0.5352510452270508,0.6234655380249023
0.5341981887817383,0.6156412124633789
0.5341981887817383,0.6156412124633789
0.5416093826293945,0.6275997161865234
0.5416093826293945,0.6275997161865234
0.5329336166381836,0.6219503402709960
0.5329336166381836,0.6219503402709960
0.5422445297241211,0.6271110534667969
0.5422445297241211,0.6271110534667969
0.5403585433959961,0.6344490051269531
0.5403585433959961,0.6344490051269531
0.5396221160888671,0.6274578094482421
0.5396221160888671,0.6274578094482421
0.5470962524414062,0.6388074874877929
0.5470962524414062,0.6388074874877929
0.5381589889526367,0.6334115982055664
0.5381589889526367,0.6334115982055664
0.5470035552978515,0.6370616912841797
0.5470035552978515,0.6370616912841797
0.5442094802856445,0.6422727584838867
0.5442094802856445,0.6422727584838867
0.5428041458129883,0.6330688476562499
0.5428041458129883,0.6330688476562499
0.5491910934448242,0.6432477951049804
0.5491910934448242,0.6432477951049804
0.5396381378173828,0.6357753753662109
0.5396381378173828,0.6357753753662109
0.5477308273315430,0.6382226943969727
0.5477308273315430,0.6382226943969727
0.5445825576782226,0.6424575805664062
0.5445825576782226,0.6424575805664062
0.5430850982666016,0.6342887878417969
0.5430850982666016,0.6342887878417969
0.5496070861816406,0.6441982269287109
0.5496070861816406,0.6441982269287109
0.5403339385986328,0.6375246047973633
0.5403339385986328,0.6375246047973633
0.5487075805664062,0.6403060913085937
0.5487075805664062,0.6403060913085937
0.5459833145141602,0.6460590362548828
0.5459833145141602,0.6460590362548828
0.5447399139404296,0.6379051208496094
0.5447399139404296,0.6379051208496094
0.5513328552246094,0.6481801986694335
0.5513328552246094,0.6481801986694335
0.5421878814697265,0.6409194946289062
0.5421878814697265,0.6409194946289062
0.5497718811035156,0.6424758911132812
0.5497718811035156,0.6424758911132812
0.5453172683715820,0.6434377670288086
0.5453172683715820,0.6434377670288086
0.5407230377197265,0.6284116744995117
0.5407230377197265,0.6284116744995117
0.5439250946044921,0.6311147689819335
0.5439250946044921,0.6311147689819335
0.5317068099975586,0.6186578750610351
0.5317068099975586,0.6186578750610351
0.5375484466552735,0.6164628982543945
0.5314247131347656,0.6164628982543945
0.5327642440795898,0.6180284500122070
0.5327642440795898,0.6180284500122070
0.5299192428588867,0.6060934066772461
0.5299192428588867,0.6060934066772461
0.5357620239257812,0.6147125244140624
0.5357620239257812,0.6147125244140624
0.5253433227539063,0.6062570571899414
0.5253433227539063,0.6062570571899414
0.5335321426391602,0.6080492019653320
0.5335321426391602,0.6080492019653320
0.5302167892456054,0.6122858047485351
0.5302167892456054,0.6122858047485351
0.5285356521606445,0.6034360885620117
0.5285356521606445,0.6034360885620117
0.5351526260375976,0.6132831573486328
0.5351526260375976,0.6132831573486328
0.5251041412353515,0.6053432464599610
0.5251041412353515,0.6053432464599610
0.5335836410522461,0.6073322296142578
0.5335836410522461,0.6073322296142578
0.5301973342895507,0.6124185562133789
0.5301973342895507,0.6124185562133789
0.5286649703979492,0.6034858703613281
0.5286649703979492,0.6034858703613281
0.5355257034301758,0.6139234542846680
0.5355257034301758,0.6139234542846680
0.5259704589843750,0.6067623138427735
0.5259704589843750,0.6067623138427735
0.5350954055786132,0.6110172271728516
0.5350954055786132,0.6110172271728516
0.5322916030883789,0.6170185089111327
0.5322916030883789,0.6170185089111327
0.5313726425170898,0.6092960357666015
0.5313726425170898,0.6092960357666015
0.5387071609497071,0.6204557418823242
0.5387071609497071,0.6204557418823242
0.5295341491699218,0.6147108078002930
0.5295341491699218,0.6147108078002930
0.5389492034912109,0.6192718505859375
0.5389492034912109,0.6192718505859375
0.5360212326049805,0.6253910064697266
0.5360212326049805,0.6253910064697266
0.5355382919311523,0.6176399230957031
0.5355382919311523,0.6176399230957031
0.5427629470825195,0.6295022964477539
0.5427629470825195,0.6295022964477539
0.5336483001708984,0.6232904434204102
0.5336483001708984,0.6232904434204102
0.5428539276123047,0.6276815414428710
0.5428539276123047,0.6276815414428710
0.5400856018066406,0.6334276199340820
0.5400856018066406,0.6334276199340820
0.5394527435302734,0.6265056610107421
0.5394527435302734,0.6265056610107421
0.5467117309570312,0.6379823684692383
0.5467117309570312,0.6379823684692383
0.5375335693359374,0.6318340301513672
0.5375335693359374,0.6318340301513672
0.5469451904296875,0.6361753463745117
0.5469451904296875,0.6361753463745117
0.5442020416259765,0.6428998947143555
0.5442020416259765,0.6428998947143555
0.5438518524169922,0.6358943939208984
0.5438518524169922,0.6358943939208984
0.5509494781494141,0.6472314834594727
0.5509494781494141,0.6472314834594727
0.5418966293334960,0.6405595779418946
0.5418966293334960,0.6405595779418946
0.5508905410766601,0.6446119308471679
0.5508905410766601,0.6446119308471679
0.5465967178344726,0.6478202819824218
0.5465967178344726,0.6478202819824218
0.5439268112182617,0.6349531173706054
0.5439268112182617,0.6349531173706054
0.5473039627075195,0.6372425079345703
0.5473039627075195,0.6372425079345703
0.5339155197143555,0.6225408554077149
0.5339155197143555,0.6225408554077149
0.5391660690307617,0.6187288284301757
0.5391660690307617,0.6187288284301757
0.5327396392822266,0.6179729461669922
0.5327396392822266,0.6179729461669922
0.5298322677612305,0.6055212020874023
0.5298322677612305,0.6055212020874023
0.5349300384521484,0.6129970550537109
0.5349300384521484,0.6129970550537109
0.5247522354125976,0.6043195724487305
0.5247522354125976,0.6043195724487305
0.5328575134277344,0.6066421508789063
0.5328575134277344,0.6066421508789063
0.5291210174560547,0.6105875015258789
0.5291210174560547,0.6105875015258789
0.5285928726196288,0.6037462234497070
0.5285928726196288,0.6037462234497070
0.5353700637817382,0.6142919540405273
0.5353700637817382,0.6142919540405273
0.5267166137695313,0.6087415695190429
0.5267166137695313,0.6087415695190429
0.5362506866455078,0.6136957168579101
0.5362506866455078,0.6136957168579101
0.5336151123046875,0.6207984924316406
0.5336151123046875,0.6207984924316406
0.5338651657104492,0.6155050277709960
0.5414033889770508,0.6275339126586914
0.5414033889770508,0.6275339126586914
0.5333049774169921,0.6227949142456054
0.5333049774169921,0.6227949142456054
0.5432744979858398,0.6293483734130859
0.5432744979858398,0.6293483734130859
0.5408535003662109,0.6366937637329101
0.5408535003662109,0.6366937637329101
0.5413387298583984,0.6316320419311523
0.5413387298583984,0.6316320419311523
0.5488414764404297,0.6429084777832031
0.5488414764404297,0.6429084777832031
0.5403081893920898,0.6381357192993163
0.5403081893920898,0.6381357192993163
0.5499813079833984,0.6432094573974609
0.5499813079833984,0.6432094573974609
0.5466464996337891,0.6493017196655273
0.5466464996337891,0.6493017196655273
0.5467231750488281,0.6426298141479492
0.5467231750488281,0.6426298141479492
0.5537784576416015,0.6537025451660156
0.5539152145385742,0.6537025451660156
0.5446512222290039,0.6473831176757813
0.5446512222290039,0.6473831176757813
0.5540943145751953,0.6518068313598633
0.5540943145751953,0.6518068313598633
0.5503583908081054,0.6569932937622071
0.5503583908081054,0.6569932937622071
0.5503532409667968,0.6505388259887696
0.5503532409667968,0.6505388259887696
0.5577558517456055,0.6621070861816406
0.5577558517456055,0.6621070861816406
0.5482583999633789,0.6560045242309570
0.5482583999633789,0.6560045242309570
0.5586673736572265,0.6611200332641601
0.5586673736572265,0.6611200332641601
0.5551969528198242,0.6683572769165039
0.5551969528198242,0.6683572769165039
0.5558149337768554,0.6626403808593749
0.5558149337768554,0.6626403808593749
0.5636564254760742,0.6750675201416015
0.5636564254760742,0.6750675201416015
0.5545492172241211,0.6692584991455078
0.5545492172241211,0.6692584991455078
0.5648345947265625,0.6745531082153320
0.5648345947265625,0.6745531082153320
0.5605630874633789,0.6795427322387695
0.5605630874633789,0.6795427322387695
0.5596452713012695,0.6704338073730468
0.5596452713012695,0.6704338073730468
0.5654880523681640,0.6771778106689453
0.5654880523681640,0.6771778106689453
0.5533424377441406,0.6658550262451172
0.5533424377441406,0.6658550262451172
0.5600406646728515,0.6628572463989257
0.5600406646728515,0.6628572463989257
0.5565496444702148,0.6538524627685547
0.5508522033691406,0.6538524627685547
0.5438501358032226,0.6439212799072266
0.5438501358032226,0.6439212799072266
0.5450643539428711,0.6333932876586914
0.5450643539428711,0.6333932876586914
0.5435731887817382,0.6349645614624023
0.5435731887817382,0.6349645614624023
0.5357574462890625,0.6219909667968749
0.5357574462890625,0.6219909667968749
0.5431869506835937,0.6270624160766601
0.5431869506835937,0.6270624160766601
0.5337438583374023,0.6244903564453125
0.5337438583374023,0.6244903564453125
0.5389326095581054,0.6210594177246094
0.5389326095581054,0.6210594177246094
0.5404174804687499,0.6292716979980468
0.5404174804687499,0.6292716979980468
0.5353626251220703,0.6216104507446288
0.5353626251220703,0.6216104507446288
0.5448801040649414,0.6310764312744140
0.5448801040649414,0.6310764312744140
0.5369865417480468,0.6313241958618164
0.5369865417480468,0.6313241958618164
0.5433305740356446,0.6305826187133788
0.5433305740356446,0.6305826187133788
0.5456880569458008,0.6409372329711914
0.5456880569458008,0.6409372329711914
0.5415716171264648,0.6352581024169922
0.5415716171264648,0.6352581024169922
0.5516435623168945,0.6452997207641601
0.5516435623168945,0.6452997207641601
0.5440538406372070,0.6462862014770507
0.5440538406372070,0.6462862014770507
0.5502536773681640,0.6454244613647461
0.5502536773681640,0.6454244613647461
0.5523965835571288,0.6552383422851562
0.5523965835571288,0.6552383422851562
0.5476415634155273,0.6477848052978515
0.5476415634155273,0.6477848052978515
0.5570520401000977,0.6570356369018554
0.5570520401000977,0.6570356369018554
0.5488700866699219,0.6567323684692382
0.5488700866699219,0.6567323684692382
0.5548816680908203,0.6553951263427734
0.5497558593749999,0.6553951263427734
0.5565319061279297,0.6641241073608398
0.5565319061279297,0.6641241073608398
0.5516326904296874,0.6565847396850586
0.5516326904296874,0.6565847396850586
0.5608594894409179,0.6653354644775390
0.5608594894409179,0.6653354644775390
0.5524360656738281,0.6643684387207031
0.5524360656738281,0.6643684387207031
0.5584888458251953,0.6631559371948242
0.5584888458251953,0.6631559371948242
0.5598443984985352,0.6714305877685547
0.5598443984985352,0.6714305877685547
0.5549777984619141,0.6636611938476562
0.5549777984619141,0.6636611938476562
0.5637428283691406,0.6720005035400390
0.5637428283691406,0.6720005035400390
0.5552501678466797,0.6704618453979492
0.5552501678466797,0.6704618453979492
0.5607896804809570,0.6680711746215821
0.5554327011108399,0.6680711746215821
0.5616485595703125,0.6749731063842773
0.5616485595703125,0.6749731063842773
0.5558961868286133,0.6649166107177734
0.5558961868286133,0.6649166107177734
0.5620021820068359,0.6667654037475585
0.5620021820068359,0.6667654037475585
0.5500974655151367,0.6571586608886718
0.5500974655151367,0.6571586608886718
0.5503973007202149,0.6440265655517577
0.5503973007202149,0.6440265655517577
0.5464920043945313,0.6411437988281250
0.5464920043945313,0.6411437988281250
0.5370746612548828,0.6242374420166016
0.5370746612548828,0.6242374420166016
0.5418090820312500,0.6246448516845703
0.5418090820312500,0.6246448516845703
0.5313428878784180,0.6187963485717773
0.5313428878784180,0.6187963485717773
0.5347669601440429,0.6129787445068359
0.5347669601440429,0.6129787445068359
0.5346982955932617,0.6173051834106446
0.5346982955932617,0.6173051834106446
0.5285808563232421,0.6073745727539063
0.5285808563232421,0.6073745727539063
0.5362701416015625,0.6132379531860351
0.5362701416015625,0.6132379531860351
0.5273952484130859,0.6111871719360351
0.5273952484130859,0.6111871719360351
0.5327293395996093,0.6076755523681641
0.5327293395996093,0.6076755523681641
0.5332815170288085,0.6145168304443359
0.5332815170288085,0.6145168304443359
0.5279222488403320,0.6055852890014648
0.5279222488403320,0.6055852890014648
0.5364549636840820,0.6132293701171875
0.5364549636840820,0.6132293701171875
0.5277168273925781,0.6117307662963867
0.5277168273925781,0.6117307662963867
0.5339870452880859,0.6099328994750977
0.5339870452880859,0.6099328994750977
0.5351560592651367,0.6187191009521484
0.5351560592651367,0.6187191009521484
0.5308427810668945,0.6120037078857422
0.5308427810668945,0.6120037078857422
0.5404380798339844,0.6216396331787110
0.5404380798339844,0.6216396331787110
0.5324724197387695,0.6219783782958984
0.5324724197387695,0.6219783782958984
0.5392307281494141,0.6215028762817383
0.5392307281494141,0.6215028762817383
0.5409318923950195,0.6311056137084960
0.5409318923950195,0.6311056137084960
0.5366706848144531,0.6239891052246094
0.5366706848144531,0.6239891052246094
0.5462024688720702,0.6335746765136718
0.5462024688720702,0.6335746765136718
0.5379581451416016,0.6338098526000976
0.5379581451416016,0.6338098526000976
0.5447622299194336,0.6332319259643554
0.5447622299194336,0.6332319259643554
0.5462825775146484,0.6422241210937499
0.5462825775146484,0.6422241210937499
0.5418485641479492,0.6351957321166992
0.5418485641479492,0.6351957321166992
0.5511589050292969,0.6441387176513672
0.5511589050292969,0.6441387176513672
0.5428396224975586,0.6438474655151367
0.5428396224975586,0.6438474655151367
0.5490062713623046,0.6415580749511719
0.5490062713623046,0.6415580749511719
0.5502182006835937,0.6505502700805664
0.5502182006835937,0.6505502700805664
0.5455524444580078,0.6429548263549805
0.5455524444580078,0.6429548263549805
0.5546957015991211,0.6517616271972656
0.5546957015991211,0.6517616271972656
0.5462059020996094,0.6510915756225586
0.5462059020996094,0.6510915756225586
0.5524623870849609,0.6495866775512695
0.5524623870849609,0.6495866775512695
0.5533184051513672,0.6573171615600586
0.5533184051513672,0.6573171615600586
0.5480415344238281,0.6476881027221679
0.5457950592041015,0.6476881027221679
0.5548765182495117,0.6507345199584961
0.5548765182495117,0.6507345199584961
0.5425712585449218,0.6417400360107421
0.5425712585449218,0.6417400360107421
0.5442237854003906,0.6302484512329102
0.5442237854003906,0.6302484512329102
0.5406389236450195,0.6293203353881835
0.5406389236450195,0.6293203353881835
0.5321525573730469,0.6135269165039062
0.5321525573730469,0.6135269165039062
0.5378889083862305,0.6161201477050781
0.5378889083862305,0.6161201477050781
0.5272453308105468,0.6108633041381836
0.5272453308105468,0.6108633041381836
0.5320764541625976,0.6062376022338867
0.5320764541625976,0.6062376022338867
0.5316404342651367,0.6115568161010742
0.5316404342651367,0.6115568161010742
0.5259704589843750,0.6011135101318359
0.5259704589843750,0.6011135101318359
0.5339132308959961,0.6081104278564453
0.5339132308959961,0.6081104278564453
0.5249399185180664,0.6063829421997070
0.5249399185180664,0.6063829421997070
0.5310905456542968,0.6039630889892578
0.5310905456542968,0.6039630889892578
0.5316747665405274,0.6117839813232422
0.5316747665405274,0.6117839813232422
0.5270839691162109,0.6039127349853516
0.5270839691162109,0.6039127349853516
0.5361082077026367,0.6129873275756835
0.5361082077026367,0.6129873275756835
0.5281293869018554,0.6126234054565429
0.5281293869018554,0.6126234054565429
0.5349500656127929,0.6124483108520508
0.5349500656127929,0.6124483108520508
0.5363376617431640,0.6221471786499023
0.5363376617431640,0.6221471786499023
0.5332300186157226,0.6173738479614258
0.5332300186157226,0.6173738479614258
0.5431400299072265,0.6285232543945313
0.5431400299072265,0.6285232543945313
0.5365396499633789,0.6309579849243164
0.5365396499633789,0.6309579849243164
0.5443027496337890,0.6330808639526367
0.5443027496337890,0.6330808639526367
0.5464530944824219,0.6444540023803711
0.5464530944824219,0.6444540023803711
0.5438713073730469,0.6400348663330078
0.5438713073730469,0.6400348663330078
0.5536462783813476,0.6509456634521484
0.5536462783813476,0.6509456634521484
0.5465532302856445,0.6522085189819335
0.5465532302856445,0.6522085189819335
0.5537349700927734,0.6529392242431641
0.5537349700927734,0.6529392242431641
0.5549297332763672,0.6619022369384765
0.5549297332763672,0.6619022369384765
0.5511405944824218,0.6552898406982421
0.5511405944824218,0.6552898406982421
0.5599079132080078,0.6642082214355468
0.5599079132080078,0.6642082214355468
0.5519102096557617,0.6638122558593750
0.5519102096557617,0.6638122558593750
0.5584161758422851,0.6625413894653320
0.5584161758422851,0.6625413894653320
0.5588802337646485,0.6702484130859375
0.5588802337646485,0.6702484130859375
0.5546945571899414,0.6626443862915039
0.5546945571899414,0.6626443862915039
0.5631660461425781,0.6714139938354492
0.5631660461425781,0.6714139938354492
0.5545274734497070,0.6699777603149414
0.5545274734497070,0.6699777603149414
0.5611358642578125,0.6682571411132813
0.5611358642578125,0.6682571411132813
0.5608903884887695,0.6749816894531250
0.5608903884887695,0.6749816894531250
0.5555088043212890,0.6640874862670898
0.5555088043212890,0.6640874862670898
0.5620376586914062,0.6671808242797851
0.5620376586914062,0.6671808242797851
0.5495086669921875,0.6574699401855468
0.5495086669921875,0.6574699401855468
0.5513992309570312,0.6453002929687500
0.5513992309570312,0.6453002929687500
0.5465446472167969,0.6430973052978516
0.5465446472167969,0.6430973052978516
0.5376966476440429,0.6254940032958984
0.5376966476440429,0.6254940032958984
0.5432647705078125,0.6273994445800781
0.5432647705078125,0.6273994445800781
0.5316278457641601,0.6212888717651367
0.5316278457641601,0.6212888717651367
0.5374368667602539,0.6174116134643555
0.5374368667602539,0.6174116134643555
0.5367256164550781,0.6238494873046875
0.5367256164550781,0.6238494873046875
0.5319894790649414,0.6144458770751953
0.5319894790649414,0.6144458770751953
0.5408460617065429,0.6228137969970703
0.5408460617065429,0.6228137969970703
0.5317474365234375,0.6214931488037109
0.5317474365234375,0.6214931488037109
0.5386991500854492,0.6198303222656250
0.5386991500854492,0.6198303222656250
0.5389961242675781,0.6279527664184570
0.5389961242675781,0.6279527664184570
0.5345890045166015,0.6196277618408202
0.5345890045166015,0.6196277618408202
0.5437854766845703,0.6293478012084961
0.5437854766845703,0.6293478012084961
0.5352664947509765,0.6286577224731446
0.5352664947509765,0.6286577224731446
0.5424259185791015,0.6280094146728515
0.5424259185791015,0.6280094146728515
0.5429311752319336,0.6366823196411132
0.5429311752319336,0.6366823196411132
0.5390396118164062,0.6291938781738281
0.5390396118164062,0.6291938781738281
0.5480644226074218,0.6384349822998047
0.5480644226074218,0.6384349822998047
0.5395248413085937,0.6376230239868164
0.5395248413085937,0.6376230239868164
0.5464393615722656,0.6362062454223633
0.5464393615722656,0.6362062454223633
0.5465978622436524,0.6441324234008788
0.5465978622436524,0.6441324234008788
0.5418497085571289,0.6348077774047851
0.5418497085571289,0.6348077774047851
0.5503749847412109,0.6429124832153320
0.5503749847412109,0.6429124832153320
0.5411258697509765,0.6405693054199219
0.5411258697509765,0.6405693054199219
0.5476369857788086,0.6389350891113281
0.5476369857788086,0.6389350891113281
0.5474744796752929,0.6461694717407226
0.5474744796752929,0.6461694717407226
0.5430833816528320,0.6374004364013671
0.5430833816528320,0.6374004364013671
0.5519502639770507,0.6466243743896484
0.5519502639770507,0.6466243743896484
0.5432533264160156,0.6456882476806640
0.5432533264160156,0.6456882476806640
0.5503778457641602,0.6445375442504883
0.5503778457641602,0.6445375442504883
0.5502702713012695,0.6527349472045898
0.5502702713012695,0.6527349472045898
0.5468130111694336,0.6530158996582031
0.5468130111694336,0.6530158996582031
0.5449796676635742,0.6475770950317382
0.5449796676635742,0.6475770950317382
0.5548913955688476,0.6571746826171875
0.5548913955688476,0.6571746826171875
0.5452548980712890,0.6487615585327148
0.5452548980712890,0.6487615585327148
0.5552438735961914,0.6521633148193359
0.5552438735961914,0.6521633148193359
0.5467941284179687,0.6519819259643554
0.5467941284179687,0.6519819259643554
0.5466505050659179,0.6407243728637695
0.5466505050659179,0.6407243728637695
0.5488386154174805,0.6430057525634766
0.5483837127685547,0.6430057525634766
0.5361865997314453,0.6287612915039062
0.5361865997314453,0.6287612915039062
0.5433174133300781,0.6265657424926757
0.5433174133300781,0.6265657424926757
0.5335887908935547,0.6244771957397460
0.5335887908935547,0.6244771957397460
0.5341341018676757,0.6146427154541015
0.5341341018676757,0.6146427154541015
0.5379821777343750,0.6213958740234374
0.5379821777343750,0.6213958740234374
0.5277105331420898,0.6115940093994140
0.5277105331420898,0.6115940093994140
0.5369871139526367,0.6142118453979492
0.5369871139526367,0.6142118453979492
0.5294981002807617,0.6153345108032227
0.5294981002807617,0.6153345108032227
0.5314098358154297,0.6094882965087890
0.5314098358154297,0.6094882965087890
0.5363725662231446,0.6180976867675781
0.5363725662231446,0.6180976867675781
0.5273283004760742,0.6104719161987304
0.5273283004760742,0.6104719161987304
0.5372526168823242,0.6143383026123047
0.5372526168823242,0.6143383026123047
0.5304147720336914,0.6180639266967773
0.5304147720336914,0.6180639266967773
0.5332477569580077,0.6134382247924804
0.5332477569580077,0.6134382247924804
0.5387495040893554,0.6229047775268555
0.5387495040893554,0.6229047775268555
0.5303564071655273,0.6164583206176758
0.5303564071655273,0.6164583206176758
0.5405925750732422,0.6221580505371094
0.5405925750732422,0.6221580505371094
0.5344190597534180,0.6263648986816406
0.5344190597534180,0.6263648986816406
0.5373167037963867,0.6222644805908203
0.5373167037963867,0.6222644805908203
0.5429237365722656,0.6318414688110351
0.5429237365722656,0.6318414688110351
0.5345867156982421,0.6257520675659179
0.5372343063354492,0.6257520675659179
0.5446128845214844,0.6304035186767578
0.5446128845214844,0.6304035186767578
0.5378683090209960,0.6334476470947266
0.5378683090209960,0.6334476470947266
0.5404478073120117,0.6277404785156250
0.5404478073120117,0.6277404785156250
0.5455415725708007,0.6372882843017578
0.5455415725708007,0.6372882843017578
0.5364950180053710,0.6295440673828124
0.5364950180053710,0.6295440673828124
0.5466224670410156,0.6339803695678711
0.5466224670410156,0.6339803695678711
0.5392759323120117,0.6362440109252929
0.5392759323120117,0.6362440109252929
0.5419115066528321,0.6312990188598633
0.5419115066528321,0.6312990188598633
0.5472467422485351,0.6411294937133789
0.5472467422485351,0.6411294937133789
0.5384805679321288,0.6342046737670898
0.5384805679321288,0.6342046737670898
0.5489873886108398,0.6392623901367187
0.5489873886108398,0.6392623901367187
0.5421981811523438,0.6439075469970703
0.5421981811523438,0.6439075469970703
0.5456216812133788,0.6398162841796875
0.5456216812133788,0.6398162841796875
0.5515954971313476,0.6507728576660156
0.5515954971313476,0.6507728576660156
0.5431617736816406,0.6438657760620117
0.5431617736816406,0.6438657760620117
0.5534620285034180,0.6489303588867187
0.5534620285034180,0.6489303588867187
0.5455678939819336,0.6498521804809571
0.5455678939819336,0.6498521804809571
0.5462757110595703,0.6396652221679687
0.5462757110595703,0.6396652221679687
0.5482892990112305,0.6416719436645507
0.5482892990112305,0.6416719436645507
0.5356779098510742,0.6268478393554687
0.5356779098510742,0.6268478393554687
0.5423103332519531,0.6243404388427735
