REDsignal,IRsignal
0.4571880340576172,0.3442171096801758
0.4709913253784179,0.3598154067993164
0.4589321136474609,0.3598154067993164
0.4527025222778320,0.3527011871337891
0.4713850021362305,0.3527011871337891
0.4655324935913085,0.3487043380737305
0.4533737182617187,0.3487043380737305
0.4661693572998047,0.3646974563598633
0.4708568572998046,0.3646974563598633
0.4556739807128906,0.3473236083984375
0.4597864151000977,0.3473236083984375
0.4732749938964844,0.3632263183593750
0.4612495422363281,0.3632263183593750
0.4553215026855468,0.3559198379516602
0.4741413116455078,0.3559198379516602
0.4676959991455078,0.3524265289306641
0.4556322097778320,0.3524265289306641
0.4682836532592773,0.3670675277709961
0.4721597671508789,0.3670675277709961
0.4562444686889648,0.3476337432861328
0.4595489501953125,0.3476337432861328
0.4720584869384765,0.3599304199218750
0.4584589004516602,0.3599304199218750
0.4514677047729492,0.3501399993896484
0.4688146591186523,0.3501399993896484
0.4612792968750000,0.3424913406372070
0.4479486465454102,0.3424913406372070
0.4598333358764648,0.3545230865478515
0.4627355575561523,0.3545230865478515
0.4465610504150391,0.3331438064575195
0.4498300552368164,0.3331438064575195
0.4623023986816406,0.3468841552734375
0.4491559982299805,0.3468841552734375
0.4429515838623047,0.3380069732666016
0.4608959197998047,0.3380069732666016
0.4535928726196289,0.3321086883544922
0.4411434173583984,0.3321086883544922
0.4541084289550781,0.3462289810180664
0.4578357696533203,0.3462289810180664
0.4423707962036132,0.3281141281127929
0.4468585968017578,0.3281141281127929
0.4599369049072266,0.3435539245605468
0.4473255157470703,0.3435539245605468
0.4420743942260742,0.3368373870849609
0.4606161117553711,0.3368373870849609
0.4540054321289062,0.3320915222167969
0.4423610687255859,0.3320915222167969
0.4558914184570312,0.3489046096801758
0.4597709655761719,0.3489046096801758
0.4450155258178711,0.3314477920532227
0.4502363204956055,0.3314477920532227
0.4631996154785156,0.3482431411743164
0.4511415481567382,0.3482431411743164
0.4464025497436523,0.3422487258911133
0.4651216506958007,0.3422487258911133
0.4582992553710937,0.3389236450195313
0.4470960617065430,0.3389236450195313
0.4608192443847656,0.3558362960815429
0.4645019531250000,0.3558362960815429
0.4496452331542969,0.3383640289306640
0.4550262451171875,0.3383640289306640
0.4680307388305664,0.3542192459106445
0.4554988861083984,0.3542192459106445
0.4507015228271484,0.3485132217407226
0.4691997528076172,0.3485132217407226
0.4615997314453125,0.3433696746826172
0.4498809814453125,0.3433696746826172
0.4632453918457031,0.3587865829467773
0.4661161422729492,0.3587865829467773
0.4544036865234375,0.3380962371826172
0.4544036865234375,0.3380962371826172
0.4485706329345703,0.3465843200683594
0.4472282409667969,0.3376836776733398
0.4472282409667969,0.3376836776733398
0.4467624664306640,0.3444900512695312
0.4467624664306640,0.3444900512695312
0.4526390075683593,0.3505971908569336
0.4526390075683593,0.3505971908569336
0.4512531280517578,0.3341119766235351
0.4512531280517578,0.3341119766235351
0.4637660980224609,0.3519481658935547
0.4637660980224609,0.3519481658935547
0.4456890106201172,0.3356088638305664
0.4456890106201172,0.3356088638305664
0.4617336273193359,0.3436203002929688
0.4617336273193359,0.3436203002929688
0.4528478622436523,0.3504404067993164
0.4528478622436523,0.3504404067993164
0.4520507812500000,0.3352489471435547
0.4520507812500000,0.3352489471435547
0.4653150558471679,0.3541637420654297
0.4653150558471679,0.3541637420654297
0.4478067398071289,0.3390071868896484
0.4478067398071289,0.3390071868896484
0.4641340255737305,0.3468721389770508
0.4641340255737305,0.3468721389770508
0.4560407638549804,0.3548950195312500
0.4560407638549804,0.3548950195312500
0.4552734375000000,0.3397705078125000
0.4552734375000000,0.3397705078125000
0.4688106536865234,0.3593416213989258
0.4688106536865234,0.3593416213989258
0.4514883041381836,0.3440929412841797
0.4514883041381836,0.3440929412841797
0.4678258895874023,0.3520763397216797
0.4678258895874023,0.3520763397216797
0.4598642349243164,0.3602376937866211
0.4598642349243164,0.3602376937866211
0.4588325500488281,0.3452934265136718
0.4588325500488281,0.3452934265136718
0.4724201202392578,0.3642620086669922
0.4724201202392578,0.3642620086669922
0.4549844741821289,0.3492828369140625
0.4549844741821289,0.3492828369140625
0.4711109161376953,0.3567867279052734
0.4711109161376953,0.3567867279052734
0.4632139205932617,0.3652198791503906
0.4632139205932617,0.3652198791503906
0.4619024276733398,0.3495426177978516
0.4619024276733398,0.3495426177978516
0.4754384994506836,0.3685134887695312
0.4754384994506836,0.3685134887695312
0.4576297760009765,0.3530050277709961
0.4576297760009765,0.3530050277709961
0.4730644226074219,0.3591711044311524
0.4730644226074219,0.3591711044311524
0.4640510559082031,0.3655557632446289
0.4640510559082031,0.3655557632446289
0.4604003906250000,0.3466444015502930
0.4604003906250000,0.3466444015502930
0.4714107513427734,0.3617832183837891
0.4714107513427734,0.3617832183837891
0.4509922027587890,0.3431116104125976
0.4509922027587890,0.3431116104125976
0.4641220092773437,0.3456573486328125
0.4476573944091797,0.3456573486328125
0.4540964126586914,0.3510698318481445
0.4647171020507812,0.3510698318481445
0.4501533508300781,0.3321716308593750
0.4501533508300781,0.3321716308593750
0.4622348785400390,0.3493200302124023
0.4622348785400390,0.3493200302124023
0.4436216354370117,0.3327598571777344
0.4436216354370117,0.3327598571777344
0.4582746505737305,0.3376865386962891
0.4582746505737305,0.3376865386962891
0.4502145767211914,0.3458925247192383
0.4502145767211914,0.3458925247192383
0.4478382110595703,0.3295263290405273
0.4478382110595703,0.3295263290405273
0.4616300582885742,0.3481704711914063
0.4616300582885742,0.3481704711914063
0.4441469192504883,0.3336421966552734
0.4441469192504883,0.3336421966552734
0.4599168777465820,0.3396474838256836
0.4599168777465820,0.3396474838256836
0.4526664733886718,0.3495466232299805
0.4526664733886718,0.3495466232299805
0.4510202407836914,0.3336965560913086
0.4510202407836914,0.3336965560913086
0.4653408050537109,0.3532230377197266
0.4653408050537109,0.3532230377197266
0.4483417510986328,0.3396028518676757
0.4625020980834961,0.3396028518676757
0.4641706466674804,0.3456007003784179
0.4641706466674804,0.3456007003784179
0.4570055007934570,0.3552675247192383
0.4684633255004882,0.3552675247192383
0.4547527313232422,0.3390380859375000
0.4547527313232422,0.3390380859375000
0.4686830520629883,0.3577051162719727
0.4686830520629883,0.3577051162719727
0.4511375427246094,0.3436111450195312
0.4511375427246094,0.3436111450195312
0.4662689208984375,0.3478425979614257
0.4662689208984375,0.3478425979614257
0.4584623336791992,0.3570196151733399
0.4584623336791992,0.3570196151733399
0.4554822921752930,0.3399032592773437
0.4554822921752930,0.3399032592773437
0.4690252304077148,0.3581691741943359
0.4690252304077148,0.3581691741943359
0.4512708663940430,0.3436294555664062
0.4512708663940430,0.3436294555664062
0.4662843704223633,0.3475130081176758
0.4662843704223633,0.3475130081176758
0.4585950851440430,0.3573062896728516
0.4585950851440430,0.3573062896728516
0.4555709838867187,0.3406024932861328
0.4555709838867187,0.3406024932861328
0.4697055816650391,0.3586835861206055
0.4697055816650391,0.3586835861206055
0.4520839691162109,0.3450078964233398
0.4520839691162109,0.3450078964233398
0.4673521041870117,0.3489360809326172
0.4673521041870117,0.3489360809326172
0.4599958419799804,0.3596105575561523
0.4599958419799804,0.3596105575561523
0.4570152282714843,0.3425651550292969
0.4536117553710937,0.3425651550292969
0.4713163375854492,0.3609952926635742
0.4713163375854492,0.3609952926635742
0.4540563583374023,0.3475765228271484
0.4540563583374023,0.3475765228271484
0.4692380905151367,0.3513759613037109
0.4692380905151367,0.3513759613037109
0.4617988586425781,0.3618467330932617
0.4617988586425781,0.3618467330932617
0.4584823608398437,0.3448242187500000
0.4584823608398437,0.3448242187500000
0.4728755950927734,0.3628320693969727
0.4728755950927734,0.3628320693969727
0.4554599761962890,0.3500341415405273
0.4554599761962890,0.3500341415405273
0.4704849243164062,0.3528104782104492
0.4704849243164062,0.3528104782104492
0.4630565643310547,0.3638671875000000
0.4630565643310547,0.3638671875000000
0.4599191665649414,0.3467691421508789
0.4599191665649414,0.3467691421508789
0.4744852066040039,0.3653869628906250
0.4744852066040039,0.3653869628906250
0.4573476791381836,0.3528385162353516
0.4573476791381836,0.3528385162353516
0.4726959228515625,0.3558460235595703
0.4726959228515625,0.3558460235595703
0.4656423568725586,0.3676300048828125
0.4656423568725586,0.3676300048828125
0.4624809265136718,0.3512426376342773
0.4624809265136718,0.3512426376342773
0.4776552200317383,0.3697946548461914
0.4776552200317383,0.3697946548461914
0.4608123779296875,0.3584037780761719
0.4608123779296875,0.3584037780761719
0.4763717651367188,0.3611881256103516
0.4763717651367188,0.3611881256103516
0.4692140579223633,0.3729772567749023
0.4692140579223633,0.3729772567749023
0.4652320861816406,0.3547611236572266
0.4617822647094726,0.3547611236572266
0.4789541244506836,0.3707611083984375
0.4697513580322266,0.3707611083984375
0.4594934463500976,0.3556840896606445
0.4594934463500976,0.3556840896606445
0.4721025466918945,0.3540086746215820
0.4721025466918945,0.3540086746215820
0.4622509002685546,0.3618759155273437
0.4622509002685546,0.3618759155273437
0.4559131622314453,0.3411540985107422
0.4559131622314453,0.3411540985107422
0.4688415527343750,0.3559467315673828
0.4688415527343750,0.3559467315673828
0.4495708465576172,0.3424409866333007
0.4495708465576172,0.3424409866333007
0.4636396408081054,0.3421142578125000
0.4636396408081054,0.3421142578125000
0.4556293487548828,0.3527801513671875
0.4556293487548828,0.3527801513671875
0.4510551452636719,0.3346218109130859
0.4510551452636719,0.3346218109130859
0.4658214569091796,0.3522468566894531
0.4658214569091796,0.3522468566894531
0.4483074188232422,0.3408004760742188
0.4483074188232422,0.3408004760742188
0.4638038635253906,0.3421949386596679
0.4638038635253906,0.3421949386596679
0.4571926116943359,0.3548641204833984
0.4571926116943359,0.3548641204833984
0.4533582687377929,0.3383840560913086
0.4533582687377929,0.3383840560913086
0.4692329406738281,0.3566287994384765
0.4692329406738281,0.3566287994384765
0.4521165847778320,0.3467611312866211
0.4521165847778320,0.3467611312866211
0.4682825088500976,0.3485389709472656
0.4682825088500976,0.3485389709472656
0.4621507644653320,0.3622306823730468
0.4621507644653320,0.3622306823730468
0.4584182739257812,0.3455429077148438
0.4584182739257812,0.3455429077148438
0.4743501663208007,0.3637550354003906
0.4743501663208007,0.3637550354003906
0.4570878982543945,0.3539731979370117
0.4570878982543945,0.3539731979370117
0.4730220794677734,0.3554746627807617
0.4730220794677734,0.3554746627807617
0.4761663436889648,0.3626157760620117
0.4761663436889648,0.3626157760620117
0.4761663436889648,0.3627033233642578
0.4600988388061523,0.3640033721923828
0.4779430389404297,0.3640033721923828
0.4687591552734375,0.3529695510864257
0.4587856292724609,0.3529695510864257
0.4746625900268555,0.3708017349243164
0.4746648788452148,0.3708017349243164
0.4594642639160156,0.3525741577148437
0.4679563522338867,0.3525741577148437
0.4773216247558594,0.3632526397705078
0.4626594543457031,0.3632526397705078
0.4606870651245117,0.3650310516357422
0.4782211303710937,0.3650310516357422
0.4688180923461914,0.3530427932739258
0.4586706161499023,0.3530427932739258
0.4745304107666015,0.3703079223632812
0.4742094039916992,0.3703079223632812
0.4589481353759766,0.3517993927001953
0.4589481353759766,0.3517993927001953
0.4768936157226562,0.3629224777221680
0.4768936157226562,0.3629224777221680
0.4602687835693359,0.3646030426025391
0.4779333114624023,0.3646030426025391
0.4684690475463867,0.3524848937988281
0.4684690475463867,0.3524848937988281
0.4745578765869141,0.3696126937866211
0.4740846633911133,0.3696126937866211
0.4590763092041015,0.3523492813110352
0.4679231643676758,0.3523492813110352
0.4771842956542969,0.3631782531738281
0.4623613357543945,0.3631782531738281
0.4606910705566406,0.3650184631347656
0.4606910705566406,0.3650184631347656
0.4686944961547851,0.3526542663574219
0.4588142395019531,0.3526542663574219
0.4751420974731445,0.3708080291748047
0.4751420974731445,0.3708080291748047
0.4597412109375000,0.3536630630493164
0.4597412109375000,0.3536630630493164
0.4779945373535156,0.3641275405883789
0.4779945373535156,0.3641275405883789
0.4619636535644531,0.3660873413085937
0.4619636535644531,0.3660873413085937
0.4697422027587890,0.3546077728271484
0.4599477767944335,0.3546077728271484
0.4767683029174805,0.3729457855224609
0.4767683029174805,0.3729457855224609
0.4612878799438476,0.3560314178466797
0.4612878799438476,0.3560314178466797
0.4799085617065429,0.3662624359130859
0.4799085617065429,0.3662624359130859
0.4641340255737305,0.3697551727294922
0.4814226150512695,0.3697551727294922
0.4719057083129883,0.3581274032592773
0.4719057083129883,0.3581274032592773
0.4792127609252930,0.3763727188110351
0.4792127609252930,0.3763727188110351
0.4635875701904297,0.3590646743774414
0.4635875701904297,0.3590646743774414
0.4816818237304688,0.3692424774169922
0.4816818237304688,0.3692424774169922
0.4649814605712890,0.3702810287475586
0.4649814605712890,0.3702810287475586
0.4703865051269531,0.3553178787231445
0.4703865051269531,0.3553178787231445
0.4752742767333984,0.3694433212280273
0.4752742767333984,0.3694433212280273
0.4569265365600585,0.3492685317993164
0.4569265365600585,0.3492685317993164
0.4729385375976562,0.3560165405273437
0.4729385375976562,0.3560165405273437
0.4550754547119140,0.3557779312133789
0.4550754547119140,0.3557779312133789
0.4600004196166992,0.3403535842895508
0.4600004196166992,0.3403535842895508
0.4661384582519531,0.3567409515380859
0.4661384582519531,0.3567409515380859
0.4489276885986328,0.3384298324584961
0.4489276885986328,0.3384298324584961
0.4667049407958984,0.3470890045166016
0.4667049407958984,0.3470890045166016
0.4507101058959961,0.3490053176879883
0.4507101058959961,0.3490053176879883
0.4569763183593750,0.3367704391479492
0.4569763183593750,0.3367704391479492
0.4650260925292968,0.3550180435180664
0.4650260925292968,0.3550180435180664
0.4489505767822266,0.3385162353515625
0.4489505767822266,0.3385162353515625
0.4678430557250977,0.3484468460083008
0.4678430557250977,0.3484468460083008
0.4531734466552734,0.3528968811035156
0.4531734466552734,0.3528968811035156
0.4600404739379882,0.3412021636962890
0.4600404739379882,0.3412021636962890
0.4689514160156250,0.3604505538940430
0.4689514160156250,0.3604505538940430
0.4533433914184570,0.3445283889770508
0.4533433914184570,0.3445283889770508
0.4729505538940429,0.3558843612670898
0.4729505538940429,0.3558843612670898
0.4585973739624023,0.3605455398559570
0.4585973739624023,0.3605455398559570
0.4651433944702148,0.3488262176513672
0.4651433944702148,0.3488262176513672
0.4743169784545898,0.3673976898193359
0.4743169784545898,0.3673976898193359
0.4582912445068359,0.3519195556640625
0.4582912445068359,0.3519195556640625
0.4772283554077148,0.3618896484375000
0.4772283554077148,0.3618896484375000
0.4624855041503906,0.3657823562622070
0.4624855041503906,0.3657823562622070
0.4680273056030273,0.3527097702026367
0.4680273056030273,0.3527097702026367
0.4767860412597656,0.3710220336914062
0.4767860412597656,0.3710220336914062
0.4601497650146484,0.3543359756469727
0.4601497650146484,0.3543359756469727
0.4783143997192383,0.3634145736694336
0.4783143997192383,0.3634145736694336
0.4633672714233398,0.3661977767944336
0.4633672714233398,0.3661977767944336
0.4681800842285156,0.3533231735229492
0.4681800842285156,0.3533231735229492
0.4769651412963867,0.3710340499877929
0.4769651412963867,0.3710340499877929
0.4599901199340820,0.3540138244628906
0.4599901199340820,0.3540138244628906
0.4782108306884765,0.3627410888671875
0.4782108306884765,0.3627410888671875
0.4635057449340820,0.3667545318603516
0.4635057449340820,0.3667545318603516
0.4680181503295898,0.3535097122192383
0.4680181503295898,0.3535097122192383
0.4772747039794922,0.3713876724243164
0.4772747039794922,0.3713876724243164
0.4603523254394531,0.3542020797729492
0.4603523254394531,0.3542020797729492
0.4787200927734375,0.3640995025634766
0.4787200927734375,0.3640995025634766
0.4644859313964844,0.3678148269653320
0.4644859313964844,0.3678148269653320
0.4686252593994140,0.3547611236572266
0.4686252593994140,0.3547611236572266
0.4784219741821289,0.3722225189208984
0.4784219741821289,0.3722225189208984
0.4613634109497070,0.3560731887817383
0.4613634109497070,0.3560731887817383
0.4798742294311523,0.3657663345336914
0.4798742294311523,0.3657663345336914
0.4660411834716797,0.3698736190795898
0.4660411834716797,0.3698736190795898
0.4697553634643554,0.3561103820800781
0.4697553634643554,0.3561103820800781
0.4798822402954102,0.3748289108276367
0.4759288787841797,0.3748289108276367
0.4629758834838867,0.3584243774414063
0.4629758834838867,0.3584243774414063
0.4813282012939453,0.3679882049560547
0.4813282012939453,0.3679882049560547
0.4680244445800781,0.3721612930297851
0.4680244445800781,0.3721612930297851
0.4713489532470703,0.3593421936035156
0.4713489532470703,0.3593421936035156
0.4819627761840820,0.3776332855224609
0.4819627761840820,0.3776332855224609
0.4645883560180664,0.3608459472656250
0.4645883560180664,0.3608459472656250
0.4822895050048828,0.3685398101806641
0.4822895050048828,0.3685398101806641
0.4675317764282226,0.3713716506958007
0.4675317764282226,0.3713716506958007
0.4683248519897460,0.3544338226318359
0.4683248519897460,0.3544338226318359
0.4764724731445312,0.3686113357543945
0.4764724731445312,0.3686113357543945
0.4563589096069336,0.3478557586669922
0.4563589096069336,0.3478557586669922
0.4719978332519531,0.3539606094360351
0.4719978332519531,0.3539606094360351
0.4568716049194336,0.3556440353393555
0.4568716049194336,0.3556440353393555
0.4573980331420898,0.3391931533813476
0.4573980331420898,0.3391931533813476
0.4668542861938476,0.3546747207641601
0.4668542861938476,0.3546747207641601
0.4483812332153320,0.3370164871215820
0.4483812332153320,0.3370164871215820
0.4655765533447265,0.3452659606933594
0.4655765533447265,0.3452659606933594
0.4525022506713867,0.3493944168090820
0.4525022506713867,0.3493944168090820
0.4542709350585937,0.3347608566284180
0.4542709350585937,0.3347608566284180
0.4657527923583984,0.3533649444580078
0.4657527923583984,0.3533649444580078
0.4483108520507812,0.3372465133666992
0.4483108520507812,0.3372465133666992
0.4667003631591797,0.3467548370361328
0.4667003631591797,0.3467548370361328
0.4548625946044922,0.3520963668823242
0.4548625946044922,0.3520963668823242
0.4570587158203125,0.3390604019165039
0.4570587158203125,0.3390604019165039
0.4693782806396484,0.3581914901733398
0.4693782806396484,0.3581914901733398
0.4523757934570312,0.3427202224731445
0.4523757934570312,0.3427202224731445
0.4709300994873047,0.3524122238159180
0.4709300994873047,0.3524122238159180
0.4596994400024414,0.3592323303222656
0.4596994400024414,0.3592323303222656
0.4616764068603516,0.3458421707153320
0.4616764068603516,0.3458421707153320
0.4741184234619140,0.3646923065185547
0.4741184234619140,0.3646923065185547
0.4566078186035156,0.3483901977539062
0.4566078186035156,0.3483901977539062
0.4747901916503906,0.3581972122192383
0.4747901916503906,0.3581972122192383
0.4632562637329101,0.3640010833740234
0.4632562637329101,0.3640010833740234
0.4642930984497070,0.3494979858398438
0.4642930984497070,0.3494979858398438
0.4760387420654297,0.3670961380004883
0.4760387420654297,0.3670961380004883
0.4581836700439453,0.3508804321289062
0.4581836700439453,0.3508804321289062
0.4755191802978516,0.3595310211181640
0.4755191802978516,0.3595310211181640
0.4640012741088867,0.3647495269775390
0.4640012741088867,0.3647495269775390
0.4643589019775390,0.3493257522583008
0.4643589019775390,0.3493257522583008
0.4762647628784180,0.3675052642822266
0.4762647628784180,0.3675052642822266
0.4581705093383789,0.3508083343505859
0.4581705093383789,0.3508083343505859
0.4753097534179687,0.3593107223510742
0.4753097534179687,0.3593107223510742
0.4640710830688476,0.3646711349487304
0.4640710830688476,0.3646711349487304
0.4644945144653320,0.3499105453491211
0.4644945144653320,0.3499105453491211
0.4766675949096679,0.3680425643920898
0.4766675949096679,0.3680425643920898
0.4586500167846679,0.3515161514282226
0.4586500167846679,0.3515161514282226
0.4757789611816406,0.3597364425659180
0.4757789611816406,0.3597364425659180
0.4650970458984375,0.3662996292114258
0.4650970458984375,0.3662996292114258
0.4652978897094726,0.3513055801391601
0.4652978897094726,0.3513055801391601
0.4776987075805664,0.3696939468383789
0.4776987075805664,0.3696939468383789
0.4599071502685547,0.3529254913330078
0.4599071502685547,0.3529254913330078
0.4769571304321289,0.3619977951049805
0.4769571304321289,0.3619977951049805
0.4668325424194336,0.3686445236206055
0.4668325424194336,0.3686445236206055
0.4668165206909179,0.3536241531372070
0.4668165206909179,0.3536241531372070
0.4795938491821289,0.3717264175415039
0.4795938491821289,0.3717264175415039
0.4618074417114257,0.3562042236328125
0.4618074417114257,0.3562042236328125
0.4788677215576171,0.3648239135742187
0.4788677215576171,0.3648239135742187
0.4691505432128906,0.3717372894287109
0.4691505432128906,0.3717372894287109
0.4688123703002929,0.3560554504394531
0.4688123703002929,0.3560554504394531
0.4813007354736328,0.3747631072998047
0.4813007354736328,0.3747631072998047
0.4627183914184570,0.3572708129882812
0.4627183914184570,0.3572708129882812
0.4776517868041992,0.3629173278808593
0.4776517868041992,0.3629173278808593
0.4659599304199218,0.3658143997192383
0.4659599304199218,0.3658143997192383
0.4625873565673828,0.3470008850097656
0.4625873565673828,0.3470008850097656
0.4729665756225586,0.3619789123535156
0.4729665756225586,0.3619789123535156
0.4523820877075195,0.3422269821166992
0.4523820877075195,0.3422269821166992
0.4667215347290039,0.3467451095581054
0.4667215347290039,0.3467451095581054
0.4554307937622070,0.3515419006347656
0.4554307937622070,0.3515419006347656
0.4530349731445312,0.3337497711181641
0.4530349731445312,0.3337497711181641
0.4647783279418945,0.3505989074707031
0.4576045989990234,0.3505989074707031
0.4592714309692383,0.3496461868286133
0.4592714309692383,0.3496461868286133
0.4592714309692383,0.3500822067260742
0.4465278625488281,0.3308452606201172
0.4520444869995117,0.3308452606201172
0.4641883850097656,0.3457860946655273
0.4641883850097656,0.3457860946655273
0.4470205307006836,0.3404399871826172
0.4470205307006836,0.3404399871826172
0.4572395324707031,0.3345016479492187
0.4572395324707031,0.3345016479492187
0.4602252960205078,0.3515407562255859
0.4631778717041015,0.3515407562255859
0.4482524871826172,0.3331209182739258
0.4482524871826172,0.3331209182739258
0.4667295455932617,0.3491701126098632
0.4541027069091796,0.3491701126098632
0.4502592086791992,0.3449621200561523
0.4502592086791992,0.3449621200561523
0.4608489990234375,0.3397956848144531
0.4500881195068359,0.3397956848144531
0.4643852233886718,0.3571569442749024
0.4643852233886718,0.3571569442749024
0.4524198532104492,0.3388830184936523
0.4524198532104492,0.3388830184936523
0.4711086273193359,0.3550895690917968
0.4711086273193359,0.3550895690917968
0.4545421600341797,0.3513959884643554
0.4545421600341797,0.3513959884643554
0.4648023605346679,0.3451314926147461
0.4538171768188476,0.3451314926147461
0.4679906845092773,0.3622976303100586
0.4679906845092773,0.3622976303100586
0.4555223464965820,0.3432117462158203
0.4616930007934570,0.3432117462158203
0.4735902786254882,0.3589159011840820
0.4735902786254882,0.3589159011840820
0.4566987991333007,0.3543457031250000
0.4566987991333007,0.3543457031250000
0.4662408828735352,0.3472795486450195
0.4662408828735352,0.3472795486450195
0.4692300796508789,0.3637304306030273
0.4692300796508789,0.3637304306030273
0.4563159942626953,0.3443944931030273
0.4563159942626953,0.3443944931030273
0.4741149902343750,0.3592163085937500
0.4609479904174805,0.3592163085937500
0.4571748733520508,0.3550884246826172
0.4750791549682617,0.3550884246826172
0.4666025161743164,0.3475902557373047
0.4666025161743164,0.3475902557373047
0.4696065902709960,0.3644016265869141
0.4696065902709960,0.3644016265869141
0.4567268371582031,0.3451091766357422
0.4567268371582031,0.3451091766357422
0.4747369766235351,0.3600002288818359
0.4747369766235351,0.3600002288818359
0.4579101562500000,0.3565080642700195
0.4579101562500000,0.3565080642700195
0.4673755645751953,0.3491403579711914
0.4673755645751953,0.3491403579711914
0.4708190917968750,0.3659832000732422
0.4708190917968750,0.3659832000732422
0.4580234527587890,0.3466564178466797
0.4758607864379882,0.3612642288208008
0.4758607864379882,0.3618673324584961
0.4593280792236328,0.3589141845703125
0.4773027420043945,0.3589141845703125
0.4689422607421875,0.3510566711425781
0.4583759307861328,0.3510566711425781
0.4725402832031250,0.3684036254882813
0.4743427276611328,0.3684036254882813
0.4596387863159179,0.3492845535278320
0.4664348602294922,0.3492845535278320
0.4777502059936523,0.3646928787231445
0.4777502059936523,0.3646928787231445
0.4612243652343750,0.3619085311889648
0.4612243652343750,0.3619085311889648
0.4709878921508789,0.3539812088012695
0.4709878921508789,0.3539812088012695
0.4747158050537109,0.3714265823364258
0.4747158050537109,0.3714265823364258
0.4618297576904297,0.3527137756347656
0.4618297576904297,0.3527137756347656
0.4799623489379883,0.3671625137329101
0.4799623489379883,0.3671625137329101
0.4630914688110351,0.3644708633422851
0.4630914688110351,0.3644708633422851
0.4715984344482422,0.3547588348388672
0.4715984344482422,0.3547588348388672
0.4738180160522460,0.3695365905761719
0.4743587493896484,0.3695365905761719
0.4583192825317383,0.3467147827148437
0.4638931274414062,0.3467147827148437
0.4735765457153320,0.3573680877685547
0.4586334228515625,0.3573680877685547
0.4541158676147461,0.3515985488891601
0.4708059310913086,0.3515985488891601
0.4609783172607422,0.3393419265747070
0.4609783172607422,0.3393419265747070
0.4627470016479492,0.3533208847045898
0.4627470016479492,0.3533208847045898
0.4473609924316406,0.3315462112426757
0.4473609924316406,0.3315462112426757
0.4637746810913086,0.3437667846679687
0.4637746810913086,0.3437667846679687
0.4459613800048828,0.3409515380859375
0.4459613800048828,0.3409515380859375
0.4544443130493164,0.3301340103149414
0.4544443130493164,0.3301340103149414
0.4581178665161132,0.3469121932983398
0.4593996047973632,0.3469121932983398
0.4442871093750000,0.3274446487426758
0.4514196395874023,0.3274446487426758
0.4621707916259765,0.3415758132934570
0.4485391616821289,0.3415758132934570
0.4457433700561523,0.3403861999511719
0.4457433700561523,0.3403861999511719
0.4551624298095703,0.3311719894409180
0.4450149536132812,0.3311719894409180
0.4600467681884766,0.3492811203002930
0.4615814208984375,0.3492811203002930
0.4467304229736328,0.3310037612915039
0.4544614791870117,0.3310037612915039
0.4652921676635742,0.3456470489501953
0.4652921676635742,0.3456470489501953
0.4491165161132812,0.3458393096923828
0.4676628112792969,0.3458393096923828
0.4591318130493164,0.3366640090942383
0.4492504119873047,0.3366640090942383
0.4643131256103515,0.3553453445434570
0.4643131256103515,0.3553453445434570
0.4510774612426758,0.3370988845825195
0.4589303970336914,0.3370988845825195
0.4695590972900390,0.3515247344970703
0.4695590972900390,0.3515247344970703
0.4531820297241211,0.3515836715698242
0.4713157653808593,0.3515836715698242
0.4627332687377930,0.3418888092041015
0.4627332687377930,0.3418888092041015
0.4675718307495117,0.3594314575195313
0.4675718307495117,0.3594314575195313
0.4536506652832031,0.3407466888427734
0.4611545562744140,0.3407466888427734
0.4713094711303711,0.3536973953247070
0.4713094711303711,0.3536973953247070
0.4544597625732422,0.3536911010742188
0.4724441528320312,0.3536911010742188
0.4633226394653320,0.3425451278686523
0.4532032012939453,0.3425451278686523
0.4679306030273437,0.3598382949829101
0.4679306030273437,0.3598382949829101
0.4534034729003906,0.3406785964965820
0.4610818862915039,0.3406785964965820
0.4711080551147461,0.3535125732421875
0.4711080551147461,0.3535125732421875
0.4542320251464844,0.3532602310180664
0.4720979690551758,0.3532602310180664
0.4630016326904297,0.3422670364379883
0.4630016326904297,0.3422670364379883
0.4680084228515625,0.3594446182250977
0.4680084228515625,0.3594446182250977
0.4533782958984375,0.3410385131835937
0.4612855911254883,0.3410385131835937
0.4711858749389648,0.3534370422363281
0.4569751739501953,0.3534370422363281
0.4543962478637695,0.3539131164550781
0.4724126815795898,0.3539131164550781
0.4632854461669922,0.3428318023681641
0.4533313751220703,0.3428318023681641
0.4686595916748046,0.3607709884643555
0.4693027496337890,0.3607709884643555
0.4540706634521484,0.3420890808105468
0.4623916625976562,0.3420890808105468
0.4721054077148437,0.3544950485229492
0.4578048706054687,0.3544950485229492
0.4554662704467773,0.3554815292358398
0.4554662704467773,0.3554815292358398
0.4644996643066406,0.3446891784667969
0.4644996643066406,0.3446891784667969
0.4702611923217773,0.3625745773315430
0.4702611923217773,0.3625745773315430
0.4555555343627929,0.3443996429443359
0.4639680862426758,0.3443996429443359
0.4737562179565429,0.3568176269531250
0.4737562179565429,0.3568176269531250
0.4573991775512695,0.3585382461547851
0.4573991775512695,0.3585382461547851
0.4664554595947266,0.3473876953125000
0.4566438674926758,0.3473876953125000
0.4723777770996094,0.3655254364013672
0.4727989196777344,0.3655254364013672
0.4576572418212890,0.3476480484008789
0.4662111282348633,0.3476480484008789
0.4756456375122070,0.3593994140625000
0.4608444213867187,0.3593994140625000
0.4584943771362304,0.3595132827758789
0.4584943771362304,0.3595132827758789
0.4655702590942383,0.3455846786499023
0.4545049667358398,0.3455846786499023
0.4693817138671875,0.3603292465209961
0.4681045532226562,0.3603292465209961
0.4517480850219726,0.3390724182128906
0.4517480850219726,0.3390724182128906
0.4672645568847656,0.3466215133666992
0.4512891769409180,0.3466215133666992
0.4484207153320313,0.3450330734252929
0.4650409698486328,0.3450330734252929
0.4545347213745117,0.3301666259765625
0.4435924530029297,0.3301666259765625
0.4590093612670898,0.3459016799926758
0.4578191757202148,0.3459016799926758
0.4421052932739258,0.3257102966308594
0.4502214431762695,0.3257102966308594
0.4590682983398438,0.3352695465087890
0.4437721252441406,0.3352695465087890
0.4417877197265625,0.3359945297241211
0.4591684341430664,0.3359945297241211
0.4494014739990234,0.3234518051147461
0.4393043518066406,0.3234518051147461
0.4555898666381836,0.3408439636230469
0.4555898666381836,0.3408439636230469
0.4400304794311523,0.3230901718139648
0.4489557266235352,0.3230901718139648
0.4583181381225586,0.3339569091796875
0.4435913085937500,0.3339569091796875
0.4423398971557617,0.3365598678588867
0.4601131439208984,0.3365598678588867
0.4506042480468750,0.3248170852661132
0.4409528732299804,0.3248170852661132
0.4577093124389648,0.3435161590576172
0.4572423934936523,0.3435161590576172
0.4424772262573242,0.3268461227416992
0.4519626617431640,0.3268461227416992
0.4616472244262695,0.3384332656860352
0.4470331192016602,0.3384332656860352
0.4460603713989258,0.3415821075439453
0.4639818191528320,0.3415821075439453
0.4543773651123046,0.3303754806518555
0.4449977874755859,0.3303754806518555
0.4619951248168945,0.3493148803710938
0.4615076065063476,0.3493148803710938
0.4468111038208007,0.3331335067749023
0.4468111038208007,0.3331335067749023
0.4657688140869141,0.3440683364868164
0.4510694503784179,0.3440683364868164
0.4502477645874023,0.3469797134399414
0.4675025939941406,0.3469797134399414
0.4578432083129882,0.3350572586059570
0.4478857040405274,0.3350572586059570
0.4651262283325195,0.3535125732421875
0.4639492034912109,0.3535125732421875
0.4491703033447266,0.3362360000610352
0.4587152481079101,0.3362360000610352
0.4675317764282226,0.3461940765380859
0.4522258758544921,0.3461940765380859
0.4514579772949219,0.3486871719360352
0.4683923721313477,0.3486871719360352
0.4582929611206055,0.3361370086669922
0.4484275817871093,0.3361370086669922
0.4654323577880859,0.3537506103515625
0.4654323577880859,0.3537506103515625
0.4491044998168945,0.3363893508911133
0.4587718963623046,0.3363893508911133
0.4675415039062500,0.3460796356201172
0.4522378921508789,0.3460796356201172
0.4516101837158203,0.3489767074584961
0.4683677673339843,0.3489767074584961
0.4582563400268554,0.3362405776977539
0.4486032485961914,0.3362405776977539
0.4658924102783203,0.3541809082031250
0.4641380310058594,0.3541809082031250
0.4495817184448242,0.3371252059936523
0.4595272064208984,0.3371252059936523
0.4682561874389648,0.3472063064575195
0.4530464172363281,0.3472063064575195
0.4526498794555664,0.3501045227050781
0.4693960189819336,0.3501045227050781
0.4590980529785156,0.3375995635986328
0.4495674133300781,0.3375995635986328
0.4671495437622070,0.3557510375976562
0.4652080535888672,0.3557510375976562
0.4509172439575195,0.3392366409301757
0.4611162185668945,0.3392366409301757
0.4696981430053710,0.3490980148315430
0.4545639038085937,0.3490980148315430
0.4541976928710937,0.3524219512939453
0.4541976928710937,0.3524219512939453
0.4606550216674805,0.3397476196289063
0.4512828826904297,0.3397476196289063
0.4690315246582031,0.3586194992065430
0.4672210693359375,0.3586194992065430
0.4526739120483398,0.3417778015136719
0.4631195068359375,0.3417778015136719
0.4716213226318359,0.3518108367919922
0.4564521789550781,0.3518108367919922
0.4564785003662109,0.3552572250366211
0.4727886199951172,0.3552572250366211
0.4626045227050781,0.3430480957031250
0.4533439636230469,0.3430480957031250
0.4690773010253906,0.3481681823730469
0.4690773010253906,0.3476566314697265
0.4649785995483398,0.3604688644409180
0.4649785995483398,0.3604688644409180
0.4562129974365234,0.3412479400634765
0.4562129974365234,0.3412479400634765
0.4714199066162109,0.3543931961059570
0.4714199066162109,0.3543931961059570
0.4496337890625000,0.3431751251220703
0.4496337890625000,0.3431751251220703
0.4620391845703125,0.3371252059936523
0.4620391845703125,0.3371252059936523
0.4562387466430664,0.3481018066406250
0.4562387466430664,0.3481018066406250
0.4458086013793945,0.3268392562866211
0.4458086013793945,0.3268392562866211
0.4607591629028320,0.3396955490112304
0.4607591629028320,0.3396955490112304
0.4395687103271484,0.3291709899902344
0.4395687103271484,0.3291709899902344
0.4530195236206054,0.3253480911254883
0.4530195236206054,0.3253480911254883
0.4490592956542969,0.3378427505493164
0.4490592956542969,0.3378427505493164
0.4398651123046875,0.3187671661376953
0.4398651123046875,0.3187671661376953
0.4564870834350586,0.3332759857177734
0.4564870834350586,0.3332759857177734
0.4366281509399414,0.3255935668945312
0.4366281509399414,0.3255935668945312
0.4512731552124023,0.3230529785156250
0.4512731552124023,0.3230529785156250
0.4488853454589843,0.3373260498046875
0.4488853454589843,0.3373260498046875
0.4403223037719726,0.3192552566528320
0.4403223037719726,0.3192552566528320
0.4578575134277343,0.3358240127563477
0.4578575134277343,0.3358240127563477
0.4389564514160156,0.3288597106933593
0.4389564514160156,0.3288597106933593
0.4540649414062500,0.3268924713134765
0.4540649414062500,0.3268924713134765
0.4526533126831054,0.3416604995727539
0.4526533126831054,0.3416604995727539
0.4442041397094726,0.3252119064331054
0.4442041397094726,0.3252119064331054
0.4621358871459961,0.3417680740356445
0.4621358871459961,0.3417680740356445
0.4435352325439453,0.3350481033325195
0.4435352325439453,0.3350481033325195
0.4583055496215820,0.3324159622192382
0.4583055496215820,0.3324159622192382
0.4570747375488281,0.3479169845581054
0.4570747375488281,0.3479169845581054
0.4479200363159180,0.3305625915527344
0.4479200363159180,0.3305625915527344
0.4656795501708984,0.3463691711425781
0.4543533325195312,0.3463691711425781
0.4463842391967773,0.3385585784912109
0.4463842391967773,0.3385585784912109
0.4604558944702148,0.3358961105346679
0.4604558944702148,0.3358961105346679
0.4591026306152344,0.3502687454223632
0.4591026306152344,0.3502687454223632
0.4491142272949218,0.3321624755859375
0.4491142272949218,0.3321624755859375
0.4663307189941406,0.3469934463500977
0.4663307189941406,0.3469934463500977
0.4469083786010742,0.3396154403686523
0.4469083786010742,0.3396154403686523
0.4605594635009765,0.3360609054565429
0.4605594635009765,0.3360609054565429
0.4594757080078125,0.3505451202392578
0.4594757080078125,0.3505451202392578
0.4490695953369140,0.3321481704711914
0.4490695953369140,0.3321481704711914
0.4667221069335937,0.3479112625122070
0.4667221069335937,0.3479112625122070
0.4472911834716797,0.3404811859130859
0.4472911834716797,0.3404811859130859
0.4610692977905273,0.3368974685668945
0.4480653762817383,0.3368974685668945
0.4603214263916016,0.3513793945312500
0.4603214263916016,0.3513793945312500
0.4500509262084961,0.3338951110839843
0.4500509262084961,0.3338951110839843
0.4679082870483398,0.3495420455932617
0.4679082870483398,0.3495420455932617
0.4487920761108398,0.3421857833862305
0.4487920761108398,0.3421857833862305
0.4622148513793945,0.3383823394775390
0.4622148513793945,0.3383823394775390
0.4620105743408203,0.3539371490478516
0.4620105743408203,0.3539371490478516
0.4514986038208008,0.3359659194946289
0.4514986038208008,0.3359659194946289
0.4694274902343750,0.3517227172851562
0.4694274902343750,0.3517227172851562
0.4504491806030273,0.3443092346191406
0.4504491806030273,0.3443092346191406
0.4637775421142578,0.3410579681396484
0.4637775421142578,0.3410579681396484
0.4641729354858398,0.3565778732299805
0.4641729354858398,0.3565778732299805
0.4534389495849609,0.3387571334838867
0.4534389495849609,0.3387571334838867
0.4715023040771484,0.3543479919433594
0.4715023040771484,0.3543479919433594
0.4528141021728516,0.3477413177490234
0.4528141021728516,0.3477413177490234
0.4657052993774414,0.3436477661132812
0.4657052993774414,0.3436477661132812
0.4657917022705078,0.3584970474243164
0.4657917022705078,0.3584970474243164
0.4535402297973632,0.3380561828613281
0.4535402297973632,0.3380561828613281
0.4698554992675781,0.3515951156616211
0.4698554992675781,0.3515951156616211
0.4485036849975586,0.3409973144531250
0.4485036849975586,0.3409973144531250
0.4584005355834961,0.3330797195434570
0.4584005355834961,0.3330797195434570
0.4565786361694336,0.3448184967041015
0.4565786361694336,0.3448184967041015
0.4428239822387695,0.3235324859619140
0.4428239822387695,0.3235324859619140
0.4589143753051758,0.3367784500122070
0.4589143753051758,0.3367784500122070
0.4384483337402343,0.3271516799926757
0.4384483337402343,0.3271516799926757
0.4494718551635742,0.3203750610351562
0.4494718551635742,0.3203750610351562
0.4492532730102539,0.3354166030883789
0.4537199020385742,0.3354166030883789
0.4371391296386719,0.3158266067504883
0.4371391296386719,0.3158266067504883
0.4550783157348632,0.3312498092651367
0.4550783157348632,0.3312498092651367
0.4361194610595703,0.3234609603881836
0.4361194610595703,0.3234609603881836
0.4481803894042969,0.3191511154174805
0.4481803894042969,0.3191511154174805
0.4494632720947265,0.3352083206176757
0.4494632720947265,0.3352083206176757
0.4380306243896484,0.3167821884155274
0.4380306243896484,0.3167821884155274
0.4567337036132812,0.3329738616943359
0.4567337036132812,0.3329738616943359
0.4387149810791016,0.3270944595336914
0.4387149810791016,0.3270944595336914
0.4511209487915039,0.3231531143188476
0.4511209487915039,0.3231531143188476
0.4531368255615234,0.3400823593139649
0.4531368255615234,0.3400823593139649
0.4418941497802734,0.3215606689453125
0.4418941497802734,0.3215606689453125
0.4607877731323242,0.3390958786010742
0.4607877731323242,0.3390958786010742
0.4430946350097656,0.3331048965454101
0.4430946350097656,0.3331048965454101
0.4550457000732422,0.3285736083984375
0.4550457000732422,0.3285736083984375
0.4570278167724609,0.3448745727539063
0.4570278167724609,0.3448745727539063
0.4452232360839843,0.3264455795288086
0.4452232360839843,0.3264455795288086
0.4637002944946289,0.3427980422973633
0.4637002944946289,0.3427980422973633
0.4456140518188477,0.3361925125122070
0.4456140518188477,0.3361925125122070
0.4566164016723633,0.3303073883056640
0.4566164016723633,0.3303073883056640
0.4583335876464844,0.3469207763671875
0.4583335876464844,0.3469207763671875
0.4459367752075195,0.3272432327270507
0.4503118515014648,0.3272432327270507
0.4640556335449219,0.3432403564453125
0.4640556335449219,0.3432403564453125
0.4458366394042969,0.3361696243286132
0.4458366394042969,0.3361696243286132
0.4565099716186523,0.3307868957519531
0.4565099716186523,0.3307868957519531
0.4585264205932617,0.3472429275512695
0.4585264205932617,0.3472429275512695
0.4461851119995117,0.3276414871215820
0.4461851119995117,0.3276414871215820
0.4646564483642578,0.3434949874877929
0.4646564483642578,0.3434949874877929
0.4466405868530273,0.3378410339355469
0.4466405868530273,0.3378410339355469
0.4573762893676758,0.3321189880371094
0.4573762893676758,0.3321189880371094
0.4597669601440429,0.3488348007202148
0.4597669601440429,0.3488348007202148
0.4473878860473633,0.3290725708007812
0.4473878860473633,0.3290725708007812
0.4658523559570312,0.3457128524780274
0.4658523559570312,0.3457128524780274
0.4481981277465820,0.3400634765625000
0.4481981277465820,0.3400634765625000
0.4588777542114257,0.3339563369750976
0.4588777542114257,0.3339563369750976
0.4613880157470703,0.3507637023925781
0.4613880157470703,0.3507637023925781
0.4490226745605468,0.3315027236938476
0.4490226745605468,0.3315027236938476
0.4677824020385742,0.3479804992675781
0.4677824020385742,0.3479804992675781
0.4501859664916992,0.3426189422607422
0.4501859664916992,0.3426189422607422
0.4607116699218750,0.3361450195312500
0.4607116699218750,0.3361450195312500
0.4635274887084961,0.3538181304931641
0.4635274887084961,0.3538181304931641
0.4509458541870117,0.3345199584960937
0.4509458541870117,0.3345199584960937
0.4699298858642578,0.3507379531860351
0.4699298858642578,0.3507379531860351
0.4523580551147461,0.3454999923706055
0.4523580551147461,0.3454999923706055
0.4625375747680664,0.3390993118286132
0.4625375747680664,0.3390993118286132
0.4650169372558594,0.3556228637695312
0.4650169372558594,0.3556228637695312
0.4512193679809570,0.3339912414550781
0.4512193679809570,0.3339912414550781
0.4680507659912109,0.3470254898071289
0.4680507659912109,0.3470254898071289
0.4479154586791992,0.3392932891845703
0.4479154586791992,0.3392932891845703
0.4553586959838867,0.3285724639892578
0.4553586959838867,0.3285724639892578
0.4557020187377929,0.3421365737915039
0.4557020187377929,0.3421365737915039
0.4403011322021484,0.3185680389404297
0.4403011322021484,0.3185680389404297
0.4567903518676757,0.3319038391113281
0.4567903518676757,0.3319038391113281
0.4375585556030273,0.3252468109130859
0.4375585556030273,0.3252468109130859
0.4460494995117187,0.3159015655517578
0.4460494995117187,0.3159015655517578
0.4480573654174805,0.3314867019653320
0.4480573654174805,0.3314867019653320
0.4341705322265625,0.3107448577880859
0.4341705322265625,0.3107448577880859
0.4524793624877930,0.3260427474975586
0.4524793624877930,0.3260427474975586
0.4347364425659180,0.3215126037597656
0.4347364425659180,0.3215126037597656
0.4444032669067383,0.3133638381958008
0.4444032669067383,0.3133638381958008
0.4478450775146484,0.3312915802001953
0.4478450775146484,0.3312915802001953
0.4348880767822266,0.3118034362792969
0.4348880767822266,0.3118034362792969
0.4538864135742187,0.3278079986572265
0.4538864135742187,0.3278079986572265
0.4369634628295898,0.3243043899536133
0.4369634628295898,0.3243043899536133
0.4472648620605469,0.3174900054931640
0.4472648620605469,0.3174900054931640
0.4513612747192383,0.3358846664428711
0.4513612747192383,0.3358846664428711
0.4387870788574219,0.3167032241821289
0.4387870788574219,0.3167032241821289
0.4580234527587890,0.3328359603881836
0.4580234527587890,0.3328359603881836
0.4413402557373047,0.3308115005493164
0.4413402557373047,0.3308115005493164
0.4515495300292969,0.3234157562255859
0.4515495300292969,0.3234157562255859
0.4556236267089844,0.3415117263793945
0.4556236267089844,0.3415117263793945
0.4426580429077148,0.3216796875000000
0.4489076614379883,0.3216796875000000
0.4613908767700195,0.3376459121704101
0.4613908767700195,0.3376459121704101
0.4442316055297851,0.3349079132080078
0.4442316055297851,0.3349079132080078
0.4540494918823242,0.3262475967407226
0.4540494918823242,0.3262475967407226
0.4575119018554688,0.3433874130249023
0.4575119018554688,0.3433874130249023
0.4438413619995117,0.3236154556274414
0.4438413619995117,0.3236154556274414
0.4621994018554687,0.3385746002197266
0.4621994018554687,0.3385746002197266
0.4447128295898438,0.3357582092285156
0.4447128295898438,0.3357582092285156
0.4541198730468750,0.3261474609375000
0.4541198730468750,0.3261474609375000
0.4577997207641601,0.3440860748291015
0.4577997207641601,0.3440860748291015
0.4440868377685547,0.3241041183471680
0.4440868377685547,0.3241041183471680
0.4626131057739258,0.3390134811401367
0.4492418289184570,0.3390134811401367
0.4628923416137695,0.3439533233642578
0.4628923416137695,0.3439533233642578
0.4445978164672851,0.3298461914062500
0.4587175369262695,0.3298461914062500
0.4606664657592773,0.3336416244506836
0.4451551437377930,0.3336416244506836
0.4529680252075195,0.3444351196289062
0.4647537231445312,0.3444351196289062
0.4499948501586914,0.3266859054565430
0.4455110549926758,0.3266859054565430
0.4646347045898437,0.3463233947753906
0.4576206207275391,0.3463233947753906
0.4464265823364258,0.3320983886718750
0.4607482910156250,0.3320983886718750
0.4625215530395508,0.3360139846801758
0.4469329833984375,0.3360139846801758
0.4548768997192383,0.3470220565795898
0.4666522979736328,0.3470220565795898
0.4518974304199219,0.3295469284057617
0.4477294921875000,0.3295469284057617
0.4667490005493164,0.3489400863647461
0.4596771240234375,0.3489400863647461
0.4485225677490234,0.3352741241455078
0.4629833221435546,0.3352741241455078
0.4647651672363281,0.3387130737304687
0.4492218017578125,0.3387130737304687
0.4572441101074218,0.3503820419311524
0.4689994812011719,0.3503820419311524
0.4540872573852539,0.3325401306152344
0.4501235961914062,0.3325401306152344
0.4692180633544922,0.3520511627197265
0.4618761062622070,0.3520511627197265
0.4509716033935547,0.3385482788085937
0.4654214859008789,0.3385482788085937
0.4669658660888671,0.3417245864868164
0.4511312484741211,0.3417245864868164
0.4588188171386718,0.3523412704467773
0.4700048446655273,0.3523412704467773
0.4542291641235351,0.3322397232055664
0.4491399765014648,0.3322397232055664
0.4673624038696289,0.3485698699951172
0.4585550308227539,0.3485698699951172
0.4464305877685547,0.3319290161132812
0.4594860076904297,0.3319290161132812
0.4597503662109375,0.3306106567382812
0.4426872253417969,0.3306106567382812
0.4493391036987305,0.3388063430786133
0.4595043182373046,0.3388063430786133
0.4431770324707031,0.3171483993530274
0.4380729675292969,0.3171483993530274
0.4563709259033203,0.3336771011352539
0.4477615356445312,0.3336771011352539
0.4360857009887695,0.3180347442626953
0.4500766754150390,0.3180347442626953
0.4506248474121093,0.3184541702270507
0.4341745376586914,0.3184541702270507
0.4419033050537109,0.3287841796875000
0.4528827667236328,0.3287841796875000
0.4372558593750000,0.3096570968627930
0.4332017898559570,0.3096570968627930
0.4521635055541992,0.3277078628540039
0.4443998336791992,0.3277078628540039
0.4334077835083008,0.3146833419799804
0.4482084274291992,0.3146833419799804
0.4491897583007812,0.3165201187133789
0.4333511352539062,0.3165201187133789
0.4419485092163086,0.3288757324218750
0.4532106399536133,0.3288757324218750
0.4380586624145508,0.3104598999023437
0.4346511840820312,0.3104598999023437
0.4539916992187500,0.3298662185668945
0.4463350296020508,0.3298662185668945
0.4358934402465820,0.3180152893066406
0.4511295318603515,0.3180152893066406
0.4524324417114258,0.3206714630126953
0.4369995117187500,0.3206714630126953
0.4457628250122070,0.3337057113647461
0.4573453903198242,0.3337057113647461
0.4421653747558594,0.3161218643188476
0.4390319824218750,0.3161218643188476
0.4584915161132812,0.3359304428100586
0.4508920669555664,0.3359304428100586
0.4405448913574219,0.3249492645263672
0.4562387466430664,0.3249492645263672
0.4573408126831054,0.3269222259521484
0.4416955947875976,0.3269222259521484
0.4505487442016601,0.3400457382202148
0.4617490768432617,0.3400457382202148
0.4465541839599609,0.3219366073608398
0.4432954788208008,0.3219366073608398
0.4625461578369141,0.3412090301513672
0.4546251296997070,0.3412090301513672
0.4439414978027343,0.3294988632202148
0.4595014572143554,0.3294988632202148
0.4600324630737305,0.3305116653442383
0.4441852569580078,0.3305116653442383
0.4527935028076172,0.3429988861083984
0.4635869979858398,0.3429988861083984
0.4480344772338867,0.3243415832519531
0.4447546005249023,0.3243415832519531
0.4637969970703125,0.3423328399658203
0.4554405212402344,0.3423328399658203
0.4446996688842773,0.3306301116943359
0.4601177215576172,0.3306301116943359
0.4605949401855469,0.3310054779052734
0.4444793701171875,0.3310054779052734
0.4531951904296875,0.3437404632568359
0.4639045715332031,0.3437404632568359
0.4482725143432617,0.3245807647705078
0.4452152252197266,0.3245807647705078
0.4642135620117187,0.3429153442382812
0.4559240341186523,0.3429153442382812
0.4453187942504883,0.3319364547729492
0.4609909057617188,0.3319364547729492
0.4614624023437500,0.3324697494506836
0.4457651138305664,0.3324697494506836
0.4545381546020508,0.3451698303222656
0.4652429580688476,0.3451698303222656
0.4496881484985352,0.3265857696533203
0.4468706130981445,0.3265857696533203
0.4659610748291015,0.3448585510253906
0.4575376510620117,0.3448585510253906
0.4469284057617187,0.3344993591308594
0.4630096435546875,0.3344993591308594
0.4633810043334960,0.3347763061523437
0.4476127624511719,0.3347763061523437
0.4566501617431640,0.3479518890380859
0.4670597076416015,0.3479518890380859
0.4515661239624023,0.3292974472045898
0.4489746093750000,0.3292974472045898
0.4680862426757812,0.3477115631103516
0.4595821380615234,0.3477115631103516
0.4489786148071289,0.3373672485351563
0.4653287887573242,0.3373672485351563
0.4652772903442383,0.3375858306884765
0.4497676849365234,0.3375858306884765
0.4589664459228515,0.3509954452514648
0.4692506790161133,0.3509954452514648
0.4538383483886719,0.3325332641601562
0.4515895843505859,0.3325332641601562
0.4704145431518554,0.3505971908569336
0.4618841171264648,0.3505971908569336
0.4514322280883789,0.3408943176269531
0.4677125930786132,0.3408943176269531
0.4678092956542969,0.3408542633056640
0.4522018432617188,0.3408542633056640
0.4615493774414062,0.3546426773071289
0.4717546463012695,0.3546426773071289
0.4561832427978516,0.3359470367431641
0.4541799545288085,0.3359470367431641
0.4728807449340820,0.3537025451660156
0.4638977050781250,0.3537025451660156
0.4531276702880859,0.3431104660034179
0.4690698623657226,0.3431104660034179
0.4682201385498047,0.3411769866943359
0.4518722534179687,0.3411769866943359
0.4600639343261719,0.3516334533691406
0.4687900543212891,0.3516334533691406
0.4516422271728515,0.3292699813842773
0.4481740951538086,0.3292699813842773
0.4655359268188476,0.3429204940795899
0.4550966262817382,0.3429204940795899
0.4432931900024414,0.3297700881958008
0.4584474563598633,0.3297700881958008
0.4567800521850586,0.3254024505615234
0.4401460647583008,0.3254024505615234
0.4485774993896484,0.3358451843261719
0.4571966171264648,0.3358451843261719
0.4407165527343750,0.3144996643066406
0.4382165908813476,0.3144996643066406
0.4560539245605468,0.3301139831542969
0.4463172912597656,0.3301139831542969
0.4353172302246094,0.3192163467407226
0.4517240524291992,0.3192163467407226
0.4506906509399414,0.3172834396362305
0.4350282669067383,0.3172834396362305
0.4444387435913086,0.3301271438598632
0.4538383483886719,0.3301271438598632
0.4379116058349609,0.3112318038940430
0.4364467620849609,0.3112318038940430
0.4547367095947266,0.3282571792602539
0.4456455230712891,0.3282571792602539
0.4351158142089844,0.3193450927734375
0.4523185729980468,0.3193450927734375
0.4515804290771484,0.3184856414794922
0.4366676330566406,0.3184856414794922
0.4465427398681641,0.3328891754150390
0.4561929702758789,0.3328891754150390
0.4407228469848632,0.3147954940795898
0.4397701263427734,0.3147954940795898
0.4581338882446289,0.3326225280761719
0.4491079330444336,0.3326225280761719
0.4391727447509766,0.3245641708374024
0.4565826416015625,0.3245641708374024
0.4557792663574218,0.3246711730957031
0.4413602828979492,0.3246711730957031
0.4513412475585937,0.3389591217041015
0.4607946395874023,0.3389591217041015
0.4454790115356445,0.3213655471801758
0.4450492858886719,0.3213655471801758
0.4627395629882812,0.3387914657592773
0.4536191940307617,0.3387914657592773
0.4435489654541016,0.3310306549072266
0.4609840393066406,0.3310306549072266
0.4598470687866211,0.3297712326049805
0.4452014923095703,0.3297712326049805
0.4550783157348632,0.3435894012451172
0.4639623641967773,0.3435894012451172
0.4482204437255859,0.3248159408569336
0.4474845886230469,0.3248159408569336
0.4651376724243164,0.3417783737182617
0.4555406570434570,0.3417783737182617
0.4450979232788086,0.3328365325927734
0.4624139785766601,0.3328365325927734
0.4606945037841796,0.3309402465820312
0.4457056045532227,0.3309402465820312
0.4558359146118164,0.3443246841430664
0.4647268295288086,0.3443246841430664
0.4482719421386719,0.3253652572631836
0.4473306655883789,0.3253652572631836
0.4653722763061523,0.3418407440185547
0.4556905746459960,0.3418407440185547
0.4451276779174805,0.3330562591552734
0.4624843597412109,0.3330562591552734
0.4605028152465820,0.3310598373413086
0.4458772659301758,0.3310598373413086
0.4563142776489257,0.3453855514526367
0.4652732849121093,0.3453855514526367
0.4488876342773437,0.3261589050292968
0.4485363006591797,0.3261589050292968
0.4660858154296875,0.3428833007812500
0.4564498901367187,0.3428833007812500
0.4461072921752929,0.3347494125366211
0.4639022827148437,0.3347494125366211
0.4619424819946289,0.3329721450805664
0.4471801757812500,0.3329721450805664
0.4581007003784179,0.3470443725585937
0.4669080734252929,0.3470443725585937
0.4502300262451172,0.3281507492065430
0.4499782562255859,0.3281507492065430
0.4678544998168945,0.3450897216796875
0.4579502105712890,0.3450897216796875
0.4478633880615234,0.3373598098754882
0.4656269073486328,0.3373598098754882
0.4635480880737304,0.3350715637207031
0.4491130828857422,0.3350715637207031
0.4600044250488281,0.3495048522949218
0.4684587478637695,0.3495048522949218
0.4519872665405273,0.3306335449218750
0.4521526336669922,0.3306335449218750
0.4697336196899414,0.3476915359497070
0.4596748352050781,0.3476915359497070
0.4497110366821289,0.3397024154663086
0.4677743911743164,0.3397024154663086
0.4652057647705078,0.3376573562622070
0.4509040832519531,0.3376573562622070
0.4621536254882812,0.3521598815917968
0.4704414367675781,0.3521598815917968
0.4539739608764648,0.3337663650512695
0.4544048309326172,0.3337663650512695
0.4716688156127929,0.3505193710327149
0.4617279052734375,0.3505193710327149
0.4519735336303711,0.3428506851196289
0.4700534820556641,0.3428506851196289
0.4672971725463867,0.3406122207641601
0.4532449722290039,0.3406122207641601
0.4647359848022461,0.3555393218994141
0.4728006362915039,0.3555393218994141
0.4561128616333008,0.3368997573852539
0.4567749023437500,0.3368997573852539
0.4737035751342773,0.3527704238891601
0.4629404067993164,0.3527704238891601
0.4528392791748047,0.3436317443847656
0.4700506210327148,0.3436317443847656
0.4661396026611328,0.3385625839233398
0.4507776260375976,0.3385625839233398
0.4610996246337891,0.3495368957519531
0.4675088882446289,0.3495368957519531
0.4492990493774414,0.3270166397094726
0.4484533309936523,0.3270166397094726
0.4643051147460937,0.3394540786743164
0.4523300170898437,0.3394540786743164
0.4415170669555664,0.3283927917480469
0.4584577560424805,0.3283927917480469
0.4541713714599609,0.3222787857055664
0.4391510009765625,0.3222787857055664
0.4499336242675781,0.3343299865722656
0.4566387176513672,0.3343299865722656
0.4391515731811523,0.3136688232421875
0.4394245147705078,0.3136688232421875
0.4558399200439453,0.3286245346069336
0.4446321487426758,0.3286245346069336
0.4349275588989258,0.3195144653320313
0.4529817581176758,0.3195144653320313
0.4493734359741211,0.3158014297485351
0.4351930618286133,0.3158014297485351
0.4469490051269531,0.3300144195556641
0.4541656494140625,0.3300144195556641
0.4373302459716797,0.3115201950073242
0.4385255813598632,0.3115201950073242
0.4344434738159180,0.3123956680297851
0.4344434738159180,0.3123956680297851
0.4541353225708007,0.3311090469360352
0.4541353225708007,0.3311090469360352
0.4363918304443359,0.3148469924926758
0.4363918304443359,0.3148469924926758
0.4564121246337891,0.3251094818115234
0.4564121246337891,0.3251094818115234
0.4426031112670898,0.3304533004760742
0.4426031112670898,0.3304533004760742
0.4467544555664062,0.3169401168823242
0.4467544555664062,0.3169401168823242
0.4583667755126953,0.3370262145996094
0.4583667755126953,0.3370262145996094
0.4408996582031250,0.3208637237548828
0.4408996582031250,0.3208637237548828
0.4610006332397460,0.3313894271850586
0.4610006332397460,0.3313894271850586
0.4474811553955078,0.3364591598510742
0.4474811553955078,0.3364591598510742
0.4511438369750976,0.3232463836669922
0.4511438369750976,0.3232463836669922
0.4626457214355468,0.3426057815551758
0.4626457214355468,0.3426057815551758
0.4446767807006836,0.3256055831909180
0.4446767807006836,0.3256055831909180
0.4639543533325195,0.3349067687988281
0.4639543533325195,0.3349067687988281
0.4500497817993164,0.3401390075683594
0.4500497817993164,0.3401390075683594
0.4529485702514648,0.3256164550781250
0.4529485702514648,0.3256164550781250
0.4642015457153320,0.3440866470336914
0.4642015457153320,0.3440866470336914
0.4451894760131836,0.3261840820312500
0.4451894760131836,0.3261840820312500
0.4643228530883789,0.3358348846435547
0.4643228530883789,0.3358348846435547
0.4505573272705078,0.3406454086303711
0.4505573272705078,0.3406454086303711
0.4529314041137695,0.3259580612182617
0.4529314041137695,0.3259580612182617
0.4643943786621094,0.3442153930664062
0.4643943786621094,0.3442153930664062
0.4458034515380859,0.3273136138916016
0.4458034515380859,0.3273136138916016
0.4650621414184570,0.3369192123413086
0.4650621414184570,0.3369192123413086
0.4517601013183594,0.3420787811279297
0.4517601013183594,0.3420787811279297
0.4541193008422851,0.3273839950561523
0.4541193008422851,0.3273839950561523
0.4659965515136719,0.3468034744262695
0.4659965515136719,0.3468034744262695
0.4474582672119141,0.3297248840332031
0.4474582672119141,0.3297248840332031
0.4668039321899414,0.3394906997680664
0.4668039321899414,0.3394906997680664
0.4539379119873047,0.3446079254150390
0.4539379119873047,0.3446079254150390
0.4561906814575195,0.3305133819580078
0.4561906814575195,0.3305133819580078
0.4683128356933594,0.3496976852416992
0.4683128356933594,0.3496976852416992
0.4499668121337890,0.3328994750976562
0.4499668121337890,0.3328994750976562
0.4689594268798828,0.3420782089233398
0.4689594268798828,0.3420782089233398
0.4563755035400390,0.3481504440307617
0.4563755035400390,0.3481504440307617
0.4583890914916992,0.3336233139038086
0.4583890914916992,0.3336233139038086
0.4707538604736328,0.3528293609619140
0.4707538604736328,0.3528293609619140
0.4521280288696289,0.3356122970581055
0.4521280288696289,0.3356122970581055
0.4711578369140625,0.3455875396728516
0.4711578369140625,0.3455875396728516
0.4589275360107422,0.3515750885009766
0.4589275360107422,0.3515750885009766
0.4606441497802734,0.3368659973144531
0.4606441497802734,0.3368659973144531
0.4729974746704101,0.3557825088500977
0.4729974746704101,0.3557825088500977
0.4545616149902343,0.3392148971557617
0.4545616149902343,0.3392148971557617
0.4734546661376953,0.3489246368408203
0.4575702667236328,0.3489246368408203
0.4614206314086914,0.3548189163208008
0.4614206314086914,0.3548189163208008
0.4624340057373046,0.3388978958129883
0.4624340057373046,0.3388978958129883
0.4737928390502930,0.3568382263183594
0.4737928390502930,0.3568382263183594
0.4532690048217773,0.3370325088500977
0.4532690048217773,0.3370325088500977
0.4695230484008789,0.3427488327026367
0.4695230484008789,0.3427488327026367
0.4546154022216797,0.3443595886230469
0.4546154022216797,0.3443595886230469
0.4526687622070312,0.3256181716918945
0.4526687622070312,0.3256181716918945
0.4625043869018555,0.3409509658813477
0.4625043869018555,0.3409509658813477
0.4411931991577148,0.3206428527832031
0.4411931991577148,0.3206428527832031
0.4577178955078125,0.3267522811889648
0.4577178955078125,0.3267522811889648
0.4445245742797851,0.3310197830200195
0.4445245742797851,0.3310197830200195
0.4439580917358398,0.3140264511108398
0.4439580917358398,0.3140264511108398
0.4556968688964844,0.3318386077880859
0.4556968688964844,0.3318386077880859
0.4359924316406250,0.3134851455688477
0.4359924316406250,0.3134851455688477
0.4541816711425781,0.3224561691284180
0.4541816711425781,0.3224561691284180
0.4427341461181640,0.3286170959472656
0.4427341461181640,0.3286170959472656
0.4432474136352539,0.3129615783691406
0.4432474136352539,0.3129615783691406
0.4562461853027344,0.3320560455322266
0.4562461853027344,0.3320560455322266
0.4375934600830078,0.3158174514770508
0.4375934600830078,0.3158174514770508
0.4562381744384765,0.3252965927124024
0.4562381744384765,0.3252965927124024
0.4458892822265625,0.3324892044067383
0.4458892822265625,0.3324892044067383
0.4467470169067383,0.3173051834106445
0.4467470169067383,0.3173051834106445
0.4604467391967773,0.3378101348876953
0.4604467391967773,0.3378101348876953
0.4421556472778320,0.3220149993896484
0.4421556472778320,0.3220149993896484
0.4610332489013672,0.3318334579467773
0.4610332489013672,0.3318334579467773
0.4509847640991211,0.3387771606445312
0.4509847640991211,0.3387771606445312
0.4517629623413086,0.3245716094970703
0.4517629623413086,0.3245716094970703
0.4650455474853515,0.3439664840698242
0.4650455474853515,0.3439664840698242
0.4472059249877929,0.3280643463134765
0.4472059249877929,0.3280643463134765
0.4644287109375000,0.3364734649658203
0.4644287109375000,0.3364734649658203
0.4548866271972656,0.3436546325683594
0.4548866271972656,0.3436546325683594
0.4544082641601562,0.3282051086425781
0.4544082641601562,0.3282051086425781
0.4672473907470703,0.3467004776000976
0.4672473907470703,0.3467004776000976
0.4488418579101562,0.3298559188842773
0.4488418579101562,0.3298559188842773
0.4658752441406250,0.3383914947509766
0.4658752441406250,0.3383914947509766
0.4553226470947265,0.3446634292602539
0.4553226470947265,0.3446634292602539
0.4549404144287109,0.3288871765136719
0.4549404144287109,0.3288871765136719
0.4676753997802734,0.3469591140747070
0.4676753997802734,0.3469591140747070
0.4494089126586914,0.3312263488769531
0.4494089126586914,0.3312263488769531
0.4660554885864258,0.3391193389892578
0.4660554885864258,0.3391193389892578
0.4567371368408203,0.3461523056030273
0.4567371368408203,0.3461523056030273
0.4558891296386718,0.3299709320068359
0.4558891296386718,0.3299709320068359
0.4689411163330078,0.3492113113403320
0.4689411163330078,0.3492113113403320
0.4510848999023437,0.3333749771118164
0.4510848999023437,0.3333749771118164
0.4677057266235352,0.3412010192871094
0.4677057266235352,0.3412010192871094
0.4587163925170898,0.3483404159545898
0.4587163925170898,0.3483404159545898
0.4577579498291016,0.3331111907958984
0.4577579498291016,0.3331111907958984
0.4711194992065429,0.3522359848022461
0.4711194992065429,0.3522359848022461
0.4531625747680664,0.3363950729370117
0.4531625747680664,0.3363950729370117
0.4696998596191406,0.3438085556030273
0.4696998596191406,0.3438085556030273
0.4610801696777344,0.3519292831420898
0.4610801696777344,0.3519292831420898
0.4600696563720703,0.3362348556518555
0.4666980743408203,0.3552881240844726
0.4554800033569336,0.3393894195556640
0.4554800033569336,0.3393894195556640
0.4719818115234375,0.3473333358764648
0.4719818115234375,0.3473333358764648
0.4635246276855469,0.3554391860961914
0.4635246276855469,0.3554391860961914
0.4625101089477539,0.3395879745483398
0.4625101089477539,0.3395879745483398
0.4759037017822265,0.3584272384643555
0.4759037017822265,0.3584272384643555
0.4578626632690430,0.3434291839599609
0.4578626632690430,0.3434291839599609
0.4743976593017578,0.3507946014404297
0.4743976593017578,0.3507946014404297
0.4662734985351562,0.3591053009033203
0.4662734985351562,0.3591053009033203
0.4650123596191406,0.3428644180297851
0.4650123596191406,0.3428644180297851
0.4784214019775390,0.3622941970825195
0.4784214019775390,0.3622941970825195
0.4601709365844726,0.3464704513549804
0.4601709365844726,0.3464704513549804
0.4755477905273438,0.3517444610595703
0.4755477905273438,0.3517444610595703
0.4652664184570312,0.3567890167236328
0.4652664184570312,0.3567890167236328
0.4608272552490234,0.3370639801025391
0.4608272552490234,0.3370639801025391
0.4714033126831054,0.3517404556274414
0.4714033126831054,0.3517404556274414
0.4502071380615234,0.3321332931518555
0.4502071380615234,0.3321332931518555
0.4633243560791016,0.3343957901000976
0.4633243560791016,0.3343957901000976
0.4523803710937500,0.3397235870361328
0.4523803710937500,0.3397235870361328
0.4486965179443359,0.3206491470336914
0.4486965179443359,0.3206491470336914
0.4605531692504883,0.3372739791870117
0.4605531692504883,0.3372739791870117
0.4411548614501953,0.3197805404663086
0.4411548614501953,0.3197805404663086
0.4561809539794922,0.3253217697143554
0.4561809539794922,0.3253217697143554
0.4475017547607422,0.3329126358032227
0.4475017547607422,0.3329126358032227
0.4452970504760742,0.3159685134887695
0.4452970504760742,0.3159685134887695
0.4587507247924805,0.3343872070312500
0.4587507247924805,0.3343872070312500
0.4407852172851562,0.3196100234985351
0.4407852172851562,0.3196100234985351
0.4567434310913085,0.3259283065795898
0.4567434310913085,0.3259283065795898
0.4493036270141602,0.3350669860839844
0.4493036270141602,0.3350669860839844
0.4476270675659180,0.3187820434570313
0.4476270675659180,0.3187820434570313
0.4619682312011719,0.3388732910156250
0.4619682312011719,0.3388732910156250
0.4446235656738281,0.3248983383178711
0.4446235656738281,0.3248983383178711
0.4611968994140625,0.3315061569213867
0.4611968994140625,0.3315061569213867
0.4540077209472656,0.3412685394287109
0.4540077209472656,0.3412685394287109
0.4525737762451172,0.3259305953979492
0.4525737762451172,0.3259305953979492
0.4671627044677734,0.3458055496215820
0.4671627044677734,0.3458055496215820
0.4498603820800781,0.3317361831665039
0.4498603820800781,0.3317361831665039
0.4657287597656250,0.3372373580932617
0.4657287597656250,0.3372373580932617
0.4582202911376953,0.3472537994384766
0.4582202911376953,0.3472537994384766
0.4561529159545898,0.3306261062622070
0.4561529159545898,0.3306261062622070
0.4701667785644531,0.3495454788208008
0.4701667785644531,0.3495454788208008
0.4519912719726562,0.3343505859375000
0.4519912719726562,0.3343505859375000
0.4672004699707031,0.3394134521484375
0.4672004699707031,0.3394134521484375
0.4594419479370117,0.3486248016357422
0.4594419479370117,0.3486248016357422
0.4566495895385742,0.3313161849975586
0.4566495895385742,0.3313161849975586
0.4703704833984375,0.3494733810424804
0.4703704833984375,0.3494733810424804
0.4521577835083008,0.3349937438964843
0.4521577835083008,0.3349937438964843
0.4673309326171875,0.3394866943359375
0.4673309326171875,0.3394866943359375
0.4597640991210937,0.3489349365234375
0.4597640991210937,0.3489349365234375
0.4568458557128906,0.3315130233764648
0.4568458557128906,0.3315130233764648
0.4709026336669921,0.3505537033081055
0.4709026336669921,0.3505537033081055
0.4529560089111328,0.3362571716308594
0.4529560089111328,0.3362571716308594
0.4683654785156250,0.3406557083129882
0.4683654785156250,0.3406557083129882
0.4717214584350586,0.3474540710449219
0.4581659317016601,0.3474540710449219
0.4552127838134765,0.3457431793212891
0.4733619689941406,0.3457431793212891
0.4645889282226562,0.3369031906127929
0.4541936874389648,0.3369031906127929
0.4687808990478515,0.3544223785400391
0.4703664779663086,0.3544223785400391
0.4554079055786133,0.3352718353271484
0.4626583099365234,0.3352718353271484
0.4736183166503906,0.3502418518066406
0.4601388931274414,0.3502418518066406
0.4571245193481445,0.3485509872436524
0.4755266189575195,0.3485509872436524
0.4665355682373047,0.3396108627319336
0.4560934066772461,0.3396108627319336
0.4710554122924804,0.3572753906250000
0.4726083755493164,0.3572753906250000
0.4575187683105468,0.3384418487548828
0.4649471282958984,0.3384418487548828
0.4759157180786133,0.3530044555664062
0.4622434616088867,0.3530044555664062
0.4593000411987305,0.3518033981323242
0.4776105880737305,0.3518033981323242
0.4687934875488281,0.3427328109741211
0.4584657669067382,0.3427328109741211
0.4733493804931641,0.3608144760131836
0.4747678756713867,0.3608144760131836
0.4598070144653320,0.3417331695556641
0.4674848556518554,0.3417331695556641
0.4781473159790039,0.3563329696655274
0.4643520355224609,0.3563329696655274
0.4616884231567382,0.3554466247558594
0.4800928115844726,0.3554466247558594
0.4711915969848632,0.3463411331176758
0.4610252380371094,0.3463411331176758
0.4760244369506836,0.3641498565673828
0.4773691177368164,0.3641498565673828
0.4620529174804687,0.3450061798095703
0.4694744110107422,0.3450061798095703
0.4798667907714844,0.3582275390625000
0.4654741287231445,0.3582275390625000
0.4619155883789062,0.3558769226074219
0.4792047500610351,0.3558769226074219
0.4692077636718750,0.3425376892089844
0.4575611114501953,0.3425376892089844
0.4708013534545898,0.3562580108642578
0.4704729080200195,0.3562580108642578
0.4537782669067383,0.3328845977783203
0.4597858428955078,0.3328845977783203
0.4689496994018554,0.3428043365478515
0.4535905838012695,0.3428043365478515
0.4493677139282227,0.3383937835693359
0.4665040969848633,0.3383937835693359
0.4564344406127929,0.3250728607177734
0.4450349807739258,0.3250728607177734
0.4592079162597656,0.3403221130371094
0.4595335006713867,0.3403221130371094
0.4435792922973633,0.3194211959838867
0.4506368637084961,0.3194211959838867
0.4606630325317382,0.3313550949096680
0.4461656570434570,0.3313550949096680
0.4430534362792969,0.3299463272094726
0.4609445571899414,0.3299463272094726
0.4517206192016601,0.3187940597534180
0.4412595748901367,0.3187940597534180
0.4563034057617187,0.3363985061645507
0.4573047637939453,0.3363985061645507
0.4419198989868164,0.3171815872192383
0.4499473571777344,0.3171815872192383
0.4602561950683594,0.3306295394897461
0.4461387634277343,0.3306295394897461
0.4437435150146484,0.3309757232666016
0.4622537612915039,0.3309757232666016
0.4532758712768554,0.3210273742675781
0.4433349609375000,0.3210273742675781
0.4588319778442382,0.3393499374389649
0.4602584838867188,0.3393499374389649
0.4449760437011719,0.3212820053100586
0.4534074783325195,0.3212820053100586
0.4639080047607422,0.3352146148681641
0.4499004364013672,0.3352146148681641
0.4477832794189453,0.3367784500122070
0.4665006637573242,0.3367784500122070
0.4576732635498046,0.3269102096557617
0.4481569290161133,0.3269102096557617
0.4637065887451172,0.3458787918090820
0.4647708892822265,0.3458787918090820
0.4498243331909180,0.3280832290649414
0.4582546234130859,0.3280832290649414
0.4687030792236328,0.3420318603515625
0.4547098159790039,0.3420318603515625
0.4525262832641601,0.3429084777832031
0.4710748672485351,0.3429084777832031
0.4618732452392578,0.3324943542480469
0.4519271850585938,0.3324943542480469
0.4672966003417969,0.3504146575927734
0.4680313110351562,0.3504146575927734
0.4527877807617187,0.3321069717407226
0.4611299514770508,0.3321069717407226
0.4709106445312500,0.3444837570190429
0.4563835144042969,0.3444837570190429
0.4540151596069336,0.3449598312377929
0.4720842361450195,0.3449598312377929
0.4627017974853516,0.3335168838500976
0.4524375915527343,0.3335168838500976
0.4678367614746093,0.3511613845825195
0.4682167053222656,0.3511613845825195
0.4527208328247070,0.3320955276489257
0.4611419677734375,0.3320955276489257
0.4705804824829101,0.3440797805786133
0.4558685302734375,0.3440797805786133
0.4537462234497070,0.3445472717285156
0.4716361999511718,0.3445472717285156
0.4622480392456054,0.3333749771118164
0.4522579193115234,0.3333749771118164
0.4678281784057617,0.3508621215820312
0.4682579040527344,0.3508621215820312
0.4528827667236328,0.3325435638427734
0.4613548278808594,0.3325435638427734
0.4710411071777343,0.3444900512695312
0.4564470291137695,0.3444900512695312
0.4544191360473633,0.3460630416870117
0.4726587295532226,0.3460630416870117
0.4633243560791016,0.3345359802246093
0.4534784317016601,0.3345359802246093
0.4692598342895508,0.3528316497802734
0.4696191787719726,0.3528316497802734
0.4544935226440430,0.3347980499267578
0.4631612777709961,0.3347980499267578
0.4728092193603515,0.3473934173583984
0.4583770751953125,0.3473934173583984
0.4566106796264648,0.3488428115844727
0.4749029159545898,0.3488428115844727
0.4655399322509766,0.3376888275146484
0.4556819915771484,0.3376888275146484
0.4717374801635742,0.3560331344604492
0.4719491958618164,0.3560331344604492
0.4569763183593750,0.3386426925659179
0.4657739639282226,0.3386426925659179
0.4753326416015625,0.3505691528320312
0.4609342575073242,0.3505691528320312
0.4592193603515625,0.3525318145751953
0.4773519515991211,0.3525318145751953
0.4679929733276367,0.3412925720214844
0.4580961227416992,0.3412925720214844
0.4743186950683593,0.3598789215087890
0.4745275497436523,0.3598789215087890
0.4594608306884765,0.3422115325927734
0.4685256958007812,0.3422115325927734
0.4780517578125000,0.3539880752563476
0.4633403778076172,0.3539880752563476
0.4617513656616211,0.3560205459594726
0.4798479080200195,0.3560205459594726
0.4704059600830078,0.3449523925781250
0.4606235504150391,0.3449523925781250
0.4769159317016601,0.3630832672119140
0.4769079208374023,0.3630832672119140
0.4617273330688476,0.3455938339233398
0.4707939147949218,0.3455938339233398
0.4802513122558594,0.3571649551391601
0.4654872894287109,0.3571649551391601
0.4640739440917969,0.3595441818237304
0.4820886611938476,0.3595441818237304
0.4722358703613281,0.3473247528076172
0.4622159957885742,0.3473247528076172
0.4779539108276367,0.3639770507812500
0.4767751693725586,0.3639770507812500
0.4608421325683594,0.3435710906982422
0.4685457229614258,0.3435710906982422
0.4764650344848633,0.3512060165405274
0.4600982666015625,0.3512060165405274
0.4571250915527343,0.3488628387451172
0.4736148834228515,0.3488628387451172
0.4623258590698242,0.3329315185546875
0.4509035110473633,0.3329315185546875
0.4661338806152344,0.3471370697021484
0.4642530441284179,0.3471370697021484
0.4480710983276367,0.3264947891235351
0.4560590744018554,0.3264947891235351
0.4643503189086914,0.3344078063964844
0.4486072540283203,0.3344078063964844
0.4462972640991211,0.3343574523925781
0.4632900238037109,0.3343574523925781
0.4531671524047851,0.3204620361328125
0.4426156997680664,0.3204620361328125
0.4587518692016601,0.3375080108642578
0.4577802658081054,0.3375080108642578
0.4424732208251953,0.3189874649047851
0.4516811370849609,0.3189874649047851
0.4605068206787109,0.3289770126342773
0.4453422546386719,0.3289770126342773
0.4441131591796875,0.3309579849243164
0.4617588043212890,0.3309579849243164
0.4519878387451172,0.3191013336181641
0.4421516418457031,0.3191013336181641
0.4588531494140625,0.3373117446899414
0.4583742141723632,0.3373117446899414
0.4434522628784179,0.3202875137329101
0.4531082153320312,0.3202875137329101
0.4623687744140625,0.3312898635864258
0.4475189208984375,0.3312898635864258
0.4466480255126953,0.3345829010009765
0.4646158218383789,0.3345829010009765
0.4550519943237304,0.3230421066284180
0.4457181930541992,0.3230421066284180
0.4625673294067383,0.3420415878295898
0.4620346069335937,0.3420415878295898
0.4475011825561523,0.3256341934204102
0.4573900222778320,0.3256341934204102
0.4667072296142578,0.3372642517089844
0.4519735336303711,0.3372642517089844
0.4513097763061523,0.3406620025634766
0.4693571090698242,0.3406620025634766
0.4595466613769531,0.3293334960937500
0.4499393463134765,0.3293334960937500
0.4672451019287109,0.3480812072753906
0.4662300109863281,0.3480812072753906
0.4517412185668945,0.3316520690917968
0.4616100311279296,0.3316520690917968
0.4706142425537109,0.3422876358032226
0.4556819915771484,0.3422876358032226
0.4548139572143555,0.3452373504638672
0.4722290039062500,0.3452373504638672
0.4622016906738281,0.3328279495239257
0.4524742126464844,0.3328279495239257
0.4695602416992187,0.3513124465942383
0.4681806564331055,0.3513124465942383
0.4534915924072265,0.3337268829345703
0.4634084701538086,0.3337268829345703
0.4717924118041992,0.3436906814575195
0.4565340042114258,0.3436906814575195
0.4557163238525390,0.3462976455688476
0.4728366851806640,0.3462976455688476
0.4626766204833984,0.3338436126708984
0.4528146743774414,0.3338436126708984
0.4699310302734375,0.3516563415527343
0.4686138153076171,0.3516563415527343
0.4537960052490234,0.3343992233276367
0.4637941360473632,0.3343992233276367
0.4722072601318359,0.3443429946899414
0.4570083618164062,0.3443429946899414
0.4564624786376953,0.3473699569702148
0.4735902786254882,0.3473699569702148
0.4634599685668945,0.3349319458007812
0.4539264678955078,0.3349319458007812
0.4711229324340820,0.3532402038574219
0.4694211959838867,0.3532402038574219
0.4551383972167968,0.3363344192504883
0.4654037475585937,0.3363344192504883
0.4738729476928711,0.3466461181640625
0.4586277008056641,0.3466461181640625
0.4584606170654297,0.3497440338134766
0.4754728317260742,0.3497440338134766
0.4651788711547851,0.3374347686767578
0.4556613922119140,0.3374347686767578
0.4732521057128906,0.3558397293090820
0.4713237762451172,0.3558397293090820
0.4572006225585937,0.3393619537353516
0.4675821304321289,0.3393619537353516
0.4760707855224609,0.3494224548339844
0.4607889175415039,0.3494224548339844
0.4605966567993164,0.3528854370117188
0.4776838302612305,0.3528854370117188
0.4673395156860352,0.3404577255249023
0.4580537796020507,0.3404577255249023
0.4756216049194336,0.3592449188232422
0.4737413406372070,0.3592449188232422
0.4594551086425781,0.3424404144287109
0.4701725006103515,0.3424404144287109
0.4784065246582031,0.3525976181030273
0.4629507064819336,0.3525976181030273
0.4630725860595703,0.3561063766479492
0.4797637939453125,0.3561063766479492
0.4694332122802734,0.3440448760986328
0.4602693557739257,0.3440448760986328
0.4779190063476562,0.3623394012451172
0.4758287429809570,0.3623394012451172
0.4616775512695312,0.3457654953002929
0.4722478866577148,0.3457654953002929
0.4806163787841797,0.3557098388671875
0.4651451110839844,0.3557098388671875
0.4655645370483398,0.3597038269042969
0.4820600509643554,0.3597038269042969
0.4717226028442383,0.3472635269165039
0.4628276824951172,0.3472635269165039
0.4804653167724609,0.3659940719604492
0.4780689239501953,0.3659940719604492
0.4642518997192382,0.3494865417480469
0.4749750137329101,0.3494865417480469
0.4829938888549805,0.3593736648559570
0.4673686981201172,0.3593736648559570
0.4675054550170898,0.3620441436767578
0.4833343505859375,0.3620441436767578
0.4719400405883789,0.3471771240234375
0.4616849899291992,0.3471771240234375
0.4782497406005859,0.3618736267089844
0.4742328643798828,0.3618736267089844
0.4586975097656250,0.3409824371337891
0.4679208755493164,0.3409824371337891
0.4563806533813476,0.3337509155273438
0.4561225891113281,0.3337509155273438
0.4710548400878906,0.3452024459838867
0.4710548400878906,0.3452024459838867
0.4492612838745117,0.3345325469970703
0.4663324356079102,0.3345325469970703
0.4621965408325195,0.3295537948608399
0.4621965408325195,0.3295537948608399
0.4572870254516601,0.3412021636962890
0.4572870254516601,0.3412021636962890
0.4479034423828125,0.3210817337036133
0.4479034423828125,0.3210817337036133
0.4638353347778320,0.3358125686645508
0.4638353347778320,0.3358125686645508
0.4437652587890625,0.3271162033081055
0.4437652587890625,0.3271162033081055
0.4583724975585937,0.3242231369018554
0.4583724975585937,0.3242231369018554
0.4549873352050781,0.3376871109008789
0.4549873352050781,0.3376871109008789
0.4468700408935547,0.3200752258300781
0.4468700408935547,0.3200752258300781
0.4640161514282226,0.3358200073242187
0.4640161514282226,0.3358200073242187
0.4451293945312500,0.3288036346435547
0.4451293945312500,0.3288036346435547
0.4602252960205078,0.3264312744140625
0.4602252960205078,0.3264312744140625
0.4579181671142578,0.3417068481445312
0.4579181671142578,0.3417068481445312
0.4502031326293945,0.3247375488281250
0.4502031326293945,0.3247375488281250
0.4681251525878906,0.3411798477172852
0.4681251525878906,0.3411798477172852
0.4493299484252929,0.3342121124267578
0.4493299484252929,0.3342121124267578
0.4646249771118164,0.3331357955932617
0.4646249771118164,0.3331357955932617
0.4629232406616210,0.3483341217041016
0.4629232406616210,0.3483341217041016
0.4551155090332031,0.3313110351562500
0.4551155090332031,0.3313110351562500
0.4726455688476562,0.3471187591552734
0.4726455688476562,0.3471187591552734
0.4537691116333007,0.3406013488769531
0.4537691116333007,0.3406013488769531
0.4686069488525391,0.3384744644165039
0.4686069488525391,0.3384744644165039
0.4665681838989257,0.3529832839965820
0.4665681838989257,0.3529832839965820
0.4578741073608398,0.3347974777221679
0.4578741073608398,0.3347974777221679
0.4749235153198242,0.3505920410156250
0.4749235153198242,0.3505920410156250
0.4554634094238281,0.3430080413818359
0.4554634094238281,0.3430080413818359
0.4699230194091797,0.3399404525756836
0.4699230194091797,0.3399404525756836
0.4674053192138672,0.3536138534545898
0.4674053192138672,0.3536138534545898
0.4582620620727539,0.3360031127929687
0.4582620620727539,0.3360031127929687
0.4752353668212890,0.3511281967163086
0.4752353668212890,0.3511281967163086
0.4558364868164062,0.3434211730957031
0.4558364868164062,0.3434211730957031
0.4699728012084960,0.3401767730712891
0.4699728012084960,0.3401767730712891
0.4680278778076172,0.3547502517700195
0.4680278778076172,0.3547502517700195
0.4588045120239257,0.3370336532592773
0.4588045120239257,0.3370336532592773
0.4761560440063476,0.3524122238159180
0.4761560440063476,0.3524122238159180
0.4569345474243164,0.3446519851684570
0.4569345474243164,0.3446519851684570
0.4711532592773438,0.3424163818359375
0.4711532592773438,0.3424163818359375
0.4697719573974609,0.3571432113647461
0.4697719573974609,0.3571432113647461
0.4606086730957031,0.3396863937377930
0.4630199432373047,0.3396863937377930
0.4781204223632812,0.3549591064453125
0.4781204223632812,0.3549591064453125
0.4591529846191406,0.3481922149658203
0.4591529846191406,0.3481922149658203
0.4733179092407226,0.3454942703247070
0.4733179092407226,0.3454942703247070
0.4722713470458984,0.3604276657104492
0.4722713470458984,0.3604276657104492
0.4629112243652344,0.3426624298095703
0.4629112243652344,0.3426624298095703
0.4804470062255859,0.3586904525756836
0.4804470062255859,0.3586904525756836
0.4615253448486328,0.3516471862792969
0.4615253448486328,0.3516471862792969
0.4756456375122070,0.3488348007202148
0.4756456375122070,0.3488348007202148
0.4746688842773437,0.3635095596313476
0.4746688842773437,0.3635095596313476
0.4652383804321289,0.3464790344238281
0.4652383804321289,0.3464790344238281
0.4829452514648437,0.3622444152832031
0.4829452514648437,0.3622444152832031
0.4641849517822265,0.3552663803100586
0.4641849517822265,0.3552663803100586
0.4779447555541992,0.3520339965820312
0.4779447555541992,0.3520339965820312
0.4774217605590820,0.3675910949707031
0.4774217605590820,0.3675910949707031
0.4677709579467773,0.3503740310668945
0.4677709579467773,0.3503740310668945
0.4857370376586914,0.3660758972167968
0.4857370376586914,0.3660758972167968
0.4666997909545898,0.3588695526123047
0.4666997909545898,0.3588695526123047
0.4803920745849609,0.3559535980224609
0.4803920745849609,0.3559535980224609
0.4794725418090820,0.3702283859252929
0.4794725418090820,0.3702283859252929
0.4683374404907226,0.3504890441894531
0.4683374404907226,0.3504890441894531
0.4835065841674804,0.3619005203247070
0.4835065841674804,0.3619005203247070
0.4614383697509765,0.3506967544555664
0.4614383697509765,0.3506967544555664
0.4717741012573242,0.3429216384887695
0.4717741012573242,0.3429216384887695
0.4685302734375000,0.3538747787475586
0.4685302734375000,0.3538747787475586
0.4556007385253906,0.3321424484252929
0.4556007385253906,0.3321424484252929
0.4708013534545898,0.3448740005493164
0.4708013534545898,0.3448740005493164
0.4500194549560547,0.3350229263305664
0.4500194549560547,0.3350229263305664
0.4620386123657226,0.3295640945434570
0.4620386123657226,0.3295640945434570
0.4606687545776367,0.3426870346069336
0.4606687545776367,0.3426870346069336
0.4495679855346680,0.3243530273437500
0.4495679855346680,0.3243530273437500
0.4666975021362305,0.3391708374023437
0.4666975021362305,0.3391708374023437
0.4477306365966797,0.3314334869384766
0.4477306365966797,0.3314334869384766
0.4606698989868164,0.3273714065551758
0.4606698989868164,0.3273714065551758
0.4607757568359375,0.3430492401123047
0.4607757568359375,0.3430492401123047
0.4505435943603515,0.3256874084472656
0.4505435943603515,0.3256874084472656
0.4687780380249023,0.3416782379150390
0.4687780380249023,0.3416782379150390
0.4503782272338867,0.3348083496093750
0.4503782272338867,0.3348083496093750
0.4639137268066406,0.3323455810546875
0.4639137268066406,0.3323455810546875
0.4650043487548828,0.3485252380371094
0.4650043487548828,0.3485252380371094
0.4551515579223633,0.3318311691284180
0.4551515579223633,0.3318311691284180
0.4734781265258789,0.3479553222656250
0.4734781265258789,0.3479553222656250
0.4554971694946289,0.3421257019042969
0.4554971694946289,0.3421257019042969
0.4689331054687500,0.3391834259033203
0.4689331054687500,0.3391834259033203
0.4701364517211914,0.3553476333618164
0.4701364517211914,0.3553476333618164
0.4595958709716796,0.3376945495605468
0.4595958709716796,0.3376945495605468
0.4776203155517578,0.3540681838989257
0.4776203155517578,0.3540681838989257
0.4591667175292968,0.3473321914672852
0.4591667175292968,0.3473321914672852
0.4721557617187500,0.3433347702026367
0.4721557617187500,0.3433347702026367
0.4727165222167968,0.3583791732788086
0.4770727157592773,0.3583791732788086
0.4615459442138672,0.3406906127929688
0.4615459442138672,0.3406906127929688
0.4792184829711914,0.3560485839843750
0.4792184829711914,0.3560485839843750
0.4606052398681640,0.3486923217773437
0.4606052398681640,0.3486923217773437
0.4726352691650391,0.3439464569091797
0.4726352691650391,0.3439464569091797
0.4734060287475585,0.3596019744873047
0.4734060287475585,0.3596019744873047
0.4619384765625000,0.3413492202758789
0.4619384765625000,0.3413492202758789
0.4796733856201172,0.3567438125610352
0.4796733856201172,0.3567438125610352
0.4611803054809570,0.3492725372314453
0.4611803054809570,0.3492725372314453
0.4732137680053711,0.3452619552612304
0.4732137680053711,0.3452619552612304
0.4743976593017578,0.3609123229980469
0.4743976593017578,0.3609123229980469
0.4631961822509765,0.3429668426513672
0.4631961822509765,0.3429668426513672
0.4809946060180664,0.3584289550781250
0.4809946060180664,0.3584289550781250
0.4627882003784179,0.3519659042358398
0.4627882003784179,0.3519659042358398
0.4749092102050781,0.3478717803955078
0.4749092102050781,0.3478717803955078
0.4765949249267578,0.3637538909912109
0.4765949249267578,0.3637538909912109
0.4651536941528320,0.3454187393188476
0.4698291778564453,0.3454187393188476
0.4832725524902344,0.3618947982788086
0.4832725524902344,0.3618947982788086
0.4652435302734375,0.3553596496582031
0.4652435302734375,0.3553596496582031
0.4773262023925781,0.3511665344238281
0.4773262023925781,0.3511665344238281
0.4787401199340820,0.3667854309082031
0.4787401199340820,0.3667854309082031
0.4673704147338867,0.3492668151855469
0.4673704147338867,0.3492668151855469
0.4854990005493164,0.3653268814086914
0.4854990005493164,0.3653268814086914
0.4678447723388672,0.3587545394897461
0.4678447723388672,0.3587545394897461
0.4795177459716797,0.3540521621704101
0.4795177459716797,0.3540521621704101
0.4812973022460937,0.3707725524902344
0.4812973022460937,0.3707725524902344
0.4697364807128906,0.3527589797973633
0.4697364807128906,0.3527589797973633
0.4882558822631836,0.3689140319824218
0.4882558822631836,0.3689140319824218
0.4702451705932617,0.3622306823730468
0.4702451705932617,0.3622306823730468
0.4819135665893555,0.3582080841064453
0.4819135665893555,0.3582080841064453
0.4840467453002930,0.3749301910400391
0.4840467453002930,0.3749301910400391
0.4726472854614258,0.3567106246948242
0.4726472854614258,0.3567106246948242
0.4906597137451172,0.3721990585327148
0.4906597137451172,0.3721990585327148
0.4727193832397460,0.3657703399658203
0.4727193832397460,0.3657703399658203
0.4829114913940429,0.3593347549438476
0.4829114913940429,0.3593347549438476
0.4831895828247070,0.3723712921142578
0.4831895828247070,0.3723712921142578
0.4681417465209960,0.3490528106689453
0.4681417465209960,0.3490528106689453
0.4827632904052734,0.3603521347045898
0.4827632904052734,0.3603521347045898
0.4621295928955078,0.3497491836547851
0.4621295928955078,0.3497491836547851
0.4701507568359375,0.3407226562500000
0.4701507568359375,0.3407226562500000
0.4698926925659179,0.3533638000488281
0.4698926925659179,0.3533638000488281
0.4558387756347656,0.3322614669799804
0.4558387756347656,0.3322614669799804
0.4723617553710937,0.3460155487060547
0.4723617553710937,0.3460155487060547
0.4538269042968750,0.3383737564086914
0.4538269042968750,0.3383737564086914
0.4636756896972656,0.3316011428833008
0.4636756896972656,0.3316011428833008
0.4653974533081054,0.3476320266723633
0.4653974533081054,0.3476320266723633
0.4531299591064453,0.3285730361938476
0.4531299591064453,0.3285730361938476
0.4713289260864257,0.3442125320434570
0.4713289260864257,0.3442125320434570
0.4539001464843750,0.3380544662475586
0.4539001464843750,0.3380544662475586
0.4647966384887695,0.3334648132324219
0.4647966384887695,0.3334648132324219
0.4677257537841797,0.3504570007324219
0.4677257537841797,0.3504570007324219
0.4561866760253906,0.3326190948486328
0.4561866760253906,0.3326190948486328
0.4747993469238281,0.3488731384277344
0.4747993469238281,0.3488731384277344
0.4582019805908203,0.3445415496826172
0.4582019805908203,0.3445415496826172
0.4694395065307617,0.3401899337768555
0.4694395065307617,0.3401899337768555
0.4730489730834961,0.3579053878784180
0.4730489730834961,0.3579053878784180
0.4613903045654297,0.3397029876708984
0.4613903045654297,0.3397029876708984
0.4802135467529297,0.3567375183105468
0.4802135467529297,0.3567375183105468
0.4637380599975586,0.3521146774291992
0.4637380599975586,0.3521146774291992
0.4745767593383789,0.3469299316406250
0.4745767593383789,0.3469299316406250
0.4800458908081054,0.3543416976928711
0.4645397186279296,0.3543416976928711
0.4838596343994140,0.3621751785278320
0.4834442138671875,0.3621751785278320
0.4702548980712891,0.3462347030639648
0.4655456542968750,0.3462347030639648
0.4833263397216797,0.3648553848266601
0.4763711929321289,0.3648553848266601
0.4651079177856445,0.3485715866088867
0.4788196563720703,0.3485715866088867
0.4810392379760742,0.3559867858886719
0.4654546737670898,0.3559867858886719
0.4721746444702148,0.3631690979003906
0.4847585678100585,0.3631690979003906
0.4706394195556640,0.3467863082885742
0.4659015655517578,0.3467863082885742
0.4837903976440430,0.3653629302978516
0.4766778945922852,0.3653629302978516
0.4655714035034180,0.3496530532836914
0.4794004440307617,0.3496530532836914
0.4816131591796875,0.3563758850097656
0.4661075592041015,0.3563758850097656
0.4729024887084960,0.3641424179077148
0.4853376388549804,0.3641424179077148
0.4713867187500000,0.3480142593383789
0.4668067932128906,0.3480142593383789
0.4848781585693359,0.3671133041381836
0.4778961181640625,0.3671133041381836
0.4669006347656250,0.3515253067016602
0.4811662673950195,0.3515253067016602
0.4831214904785156,0.3586235046386719
0.4676433563232422,0.3586235046386719
0.4748680114746093,0.3667894363403320
0.4871795654296875,0.3667894363403320
0.4734798431396484,0.3510915756225586
0.4690555572509765,0.3510915756225586
0.4870428085327148,0.3701608657836914
0.4800973892211914,0.3701608657836914
0.4693193435668945,0.3550037384033203
0.4833669662475586,0.3550037384033203
0.4854286193847656,0.3618518829345703
0.4699682235717773,0.3618518829345703
0.4774148941040039,0.3707044601440430
0.4896863937377929,0.3707044601440430
0.4757966995239258,0.3546215057373047
0.4716762542724609,0.3546215057373047
0.4896268844604492,0.3737588882446289
0.4824663162231445,0.3737588882446289
0.4717752456665039,0.3587327957153320
0.4860431671142578,0.3587327957153320
0.4879199981689453,0.3657531738281250
0.4725088119506836,0.3657531738281250
0.4798765182495117,0.3744237899780273
0.4923334121704102,0.3744237899780273
0.4784214019775390,0.3586091995239258
0.4742883682250976,0.3586091995239258
0.4922241210937500,0.3776355743408203
0.4851556777954101,0.3776355743408203
0.4745841979980469,0.3630970001220703
0.4888320922851562,0.3630970001220703
0.4906219482421875,0.3696464538574218
0.4754167556762695,0.3696464538574218
0.4829498291015625,0.3786684036254883
0.4949455261230469,0.3786684036254883
0.4812103271484375,0.3628400802612304
0.4770629882812500,0.3628400802612304
0.4952104568481445,0.3823293685913086
0.4878965377807617,0.3823293685913086
0.4774555206298828,0.3673954010009766
0.4918607711791992,0.3673954010009766
0.4931779861450195,0.3731546401977539
0.4774446487426758,0.3731546401977539
0.4846796035766601,0.3808753967285156
0.4959594726562500,0.3808753967285156
0.4811468124389648,0.3621877670288086
0.4758579254150390,0.3621877670288086
0.4922950744628906,0.3768470764160156
0.4832284927368164,0.3768470764160156
0.4707515716552734,0.3565229415893554
0.4829200744628906,0.3565229415893554
0.4826414108276367,0.3567466735839844
0.4653722763061523,0.3567466735839844
0.4715314865112304,0.3614089965820312
0.4818529129028320,0.3614089965820312
0.4664388656616211,0.3409269332885742
0.4613273620605469,0.3409269332885742
0.4781673431396484,0.3568433761596679
0.4696300506591797,0.3568433761596679
0.4583822250366211,0.3394329071044922
0.4720333099365234,0.3394329071044922
0.4727977752685547,0.3432912826538086
0.4566192626953125,0.3432912826538086
0.4639812469482422,0.3512020111083984
0.4757297515869141,0.3512020111083984
0.4612861633300781,0.3336874008178711
0.4569522857666015,0.3336874008178711
0.4749887466430664,0.3524059295654297
0.4673463821411132,0.3524059295654297
0.4570072174072266,0.3377941131591797
0.4714948654174804,0.3377941131591797
0.4728326797485352,0.3430028915405273
0.4576601028442382,0.3430028915405273
0.4654260635375976,0.3529787063598633
0.4774835586547851,0.3529787063598633
0.4635406494140625,0.3367864608764649
0.4598974227905273,0.3367864608764649
0.4783681869506836,0.3568668365478516
0.4708585739135742,0.3568668365478516
0.4610538482666016,0.3431774139404297
0.4761749267578125,0.3431774139404297
0.4773456573486328,0.3493715286254883
0.4623613357543945,0.3493715286254883
0.4706680297851562,0.3603235244750976
0.4826683044433593,0.3603235244750976
0.4690235137939453,0.3449243545532226
0.4655279159545898,0.3449243545532226
0.4839460372924804,0.3648628234863281
0.4768072128295898,0.3648628234863281
0.4667593002319336,0.3514915466308594
0.4817018508911133,0.3514915466308594
0.4829298019409179,0.3569892883300781
0.4676290512084961,0.3569892883300781
0.4758258819580078,0.3678211212158203
0.4875675201416015,0.3678211212158203
0.4734769821166992,0.3511001586914063
0.4699178695678711,0.3511001586914063
0.4878644943237305,0.3702541351318359
0.4800098419189453,0.3702541351318359
0.4701175689697266,0.3560937881469726
0.4846687316894531,0.3560937881469726
0.4854360580444336,0.3604230880737305
0.4697725296020507,0.3604230880737305
0.4775751113891601,0.3701379776000976
0.4890169143676757,0.3701379776000976
0.4745950698852539,0.3526153564453125
0.4706399917602539,0.3526153564453125
0.4887056350708008,0.3708818435668945
0.4804979324340820,0.3708818435668945
0.4705192565917968,0.3567569732666016
0.4849594116210937,0.3567569732666016
0.4855075836181640,0.3601976394653320
0.4699710845947265,0.3601976394653320
0.4777599334716797,0.3703056335449219
0.4888675689697266,0.3703056335449219
0.4746431350708007,0.3528711318969727
0.4709501266479492,0.3528711318969727
0.4888303756713867,0.3715141296386719
0.4807485580444336,0.3715141296386719
0.4709329605102539,0.3574665069580078
0.4858245849609375,0.3574665069580078
0.4862485885620117,0.3610044479370117
0.4707183837890625,0.3610044479370117
0.4787195205688476,0.3715776443481445
0.4899307250976562,0.3715776443481445
0.4755609512329101,0.3545150756835938
0.4721174240112305,0.3545150756835938
0.4901945114135742,0.3730819702148437
0.4822259902954101,0.3730819702148437
0.4724853515625000,0.3599361419677734
0.4873260498046875,0.3599361419677734
0.4878049850463867,0.3633293151855468
0.4722009658813476,0.3633293151855468
0.4804687500000000,0.3744735717773438
0.4916410446166992,0.3744735717773438
0.4773439407348632,0.3571323394775390
0.4743638992309570,0.3571323394775390
0.4921005249023437,0.3760293960571289
0.4838418960571289,0.3760293960571289
0.4744485855102539,0.3627267837524414
0.4893493652343750,0.3627267837524414
0.4899255752563476,0.3663682937622070
0.4744091033935547,0.3663682937622070
0.4826574325561523,0.3774032592773438
0.4939435958862304,0.3774032592773438
0.4794748306274414,0.3603487014770508
0.4762441635131835,0.3603487014770508
0.4943166732788086,0.3792263031005859
0.4860975265502929,0.3792263031005859
0.4768066406250000,0.3666023254394531
0.4919128417968750,0.3666023254394531
0.4921640396118164,0.3696401596069336
0.4770092010498047,0.3696401596069336
0.4851064682006836,0.3812393188476562
0.4961431503295898,0.3812393188476562
0.4819335937500000,0.3641910552978516
0.4787693023681641,0.3641910552978516
0.4969064712524414,0.3832225799560547
0.4887943267822266,0.3832225799560547
0.4795852661132812,0.3707078933715820
0.4949180603027343,0.3707078933715820
0.4950439453125000,0.3736198425292969
0.4794902801513672,0.3736198425292969
0.4877523422241211,0.3850570678710937
0.4985818862915039,0.3850570678710937
0.4840559005737304,0.3672042846679687
0.4804441452026367,0.3672042846679687
0.4978740692138672,0.3837026596069336
0.4887926101684570,0.3837026596069336
0.4781684875488281,0.3678766250610351
0.4918750762939453,0.3678766250610351
0.4902626037597656,0.3652833938598632
0.4726724624633789,0.3652833938598632
0.4791715621948242,0.3717424392700195
0.4880104064941406,0.3717424392700195
0.4720905303955078,0.3489515304565430
0.4674087524414062,0.3489515304565430
0.4838773727416992,0.3630558013916015
0.4739341735839844,0.3630558013916015
0.4636762619018555,0.3471382141113281
0.4777805328369140,0.3471382141113281
0.4769943237304687,0.3467021942138672
0.4604759216308594,0.3467021942138672
0.4680788040161132,0.3560800552368164
0.4783235549926758,0.3560800552368164
0.4633449554443359,0.3371040344238281
0.4599288940429687,0.3371040344238281
0.4776494979858398,0.3541877746582031
0.4687843322753906,0.3541877746582031
0.4596210479736328,0.3417331695556641
0.4748273849487304,0.3417331695556641
0.4745470046997070,0.3431064605712891
0.4591300964355469,0.3431064605712891
0.4674304962158203,0.3550855636596680
0.4780517578125000,0.3550855636596680
0.4637071609497070,0.3377145767211914
0.4610664367675781,0.3377145767211914
0.4793071746826172,0.3566104888916016
0.4708717346191406,0.3566104888916016
0.4620941162109375,0.3452619552612304
0.4780088424682617,0.3452619552612304
0.4779138565063477,0.3477470397949219
0.4626096725463867,0.3477470397949219
0.4715824127197266,0.3607360839843750
0.4823432922363281,0.3607360839843750
0.4684598922729492,0.3444711685180664
0.4660772323608398,0.3444711685180664
0.4845245361328125,0.3636205673217773
0.4763660430908203,0.3636205673217773
0.4674802780151367,0.3531332015991211
0.4834550857543945,0.3531332015991211
0.4835088729858398,0.3554391860961914
0.4680782318115234,0.3554391860961914
0.4769714355468750,0.3688779830932617
0.4876596450805664,0.3688779830932617
0.4733528137207031,0.3516689300537109
0.4711801528930664,0.3516689300537109
0.4891525268554687,0.3699731826782227
0.4803794860839843,0.3699731826782227
0.4712356567382812,0.3585456848144531
0.4871057510375976,0.3585456848144531
0.4867109298706054,0.3599069595336914
0.4708465576171875,0.3599069595336914
0.4794261932373047,0.3718671798706055
0.4897630691528320,0.3718671798706055
0.4748142242431641,0.3536092758178711
0.4721946716308594,0.3536092758178711
0.4900651931762695,0.3711198806762695
0.4808229446411132,0.3711198806762695
0.4716321945190429,0.3594297409057617
0.4874101638793945,0.3594297409057617
0.4866937637329101,0.3597181320190430
0.4708808898925781,0.3597181320190430
0.4793025970458984,0.3717670440673828
0.4893802642822265,0.3717670440673828
0.4745939254760742,0.3532688140869141
0.4721242904663085,0.3532688140869141
0.4899444580078125,0.3709796905517578
0.4808040618896484,0.3709796905517578
0.4715887069702148,0.3595075607299805
0.4877952575683593,0.3595075607299805
0.4869701385498046,0.3601192474365234
0.4711767196655273,0.3601192474365234
0.4799863815307617,0.3725503921508789
0.4900331497192383,0.3725503921508789
0.4753698348999023,0.3547147750854492
0.4731313705444335,0.3547147750854492
0.4909721374511719,0.3721075057983398
0.4821178436279296,0.3721075057983398
0.4727136611938476,0.3614135742187500
0.4890661239624023,0.3614135742187500
0.4882066726684570,0.3619937896728516
0.4725791931152343,0.3619937896728516
0.4815994262695312,0.3749856948852539
0.4915695190429688,0.3749856948852539
0.4768701553344726,0.3569658279418945
0.4751890182495117,0.3569658279418945
0.4926246643066406,0.3746629714965820
0.4835243225097656,0.3746629714965820
0.4745063781738281,0.3642814636230469
0.4908811569213867,0.3642814636230469
0.4901235580444336,0.3647941589355468
0.4745252609252930,0.3647941589355468
0.4834321975708007,0.3776618957519531
0.4936689376831054,0.3776618957519531
0.4788087844848632,0.3599040985107422
0.4769359588623047,0.3599040985107422
0.4946662902832031,0.3774324417114258
0.4855865478515625,0.3774324417114258
0.4764352798461914,0.3677536010742187
0.4931533813476562,0.3677536010742187
0.4922109603881836,0.3678766250610351
0.4772094726562500,0.3624332427978516
0.4857547760009766,0.3811300277709961
0.4957517623901367,0.3811300277709961
0.4810169219970703,0.3635553359985351
0.4793209075927734,0.3635553359985351
0.4972251892089843,0.3812335968017578
0.4879228591918945,0.3812335968017578
0.4788688659667968,0.3714809417724609
0.4958335876464843,0.3714809417724609
0.4946222305297852,0.3717287063598633
0.4791126251220703,0.3717287063598633
0.4880744934082031,0.3843206405639648
0.4975753784179687,0.3843206405639648
0.4824605941772461,0.3655242919921875
0.4803228378295898,0.3655242919921875
0.4971662521362304,0.3800577163696289
0.4866090774536133,0.3800577163696289
0.4758762359619140,0.3664695739746094
0.4908279418945312,0.3664695739746094
0.4880739212036133,0.3608242034912109
0.4703790664672851,0.3608242034912109
0.4858560562133789,0.3687898635864258
0.4694589614868164,0.3461311340332031
0.4666992187500000,0.3461311340332031
0.4828920364379883,0.3591676712036133
0.4719915390014648,0.3591676712036133
0.4618389129638671,0.3462564468383789
0.4776506423950195,0.3462564468383789
0.4755134582519531,0.3434206008911133
0.4592136383056640,0.3434206008911133
0.4678115844726562,0.3542942047119140
0.4767053604125976,0.3542942047119140
0.4612123489379882,0.3347545623779297
0.4594636917114258,0.3347545623779297
0.4766292572021484,0.3504329681396484
0.4666889190673828,0.3504329681396484
0.4573156356811523,0.3405412673950195
0.4742631912231445,0.3405412673950195
0.4725248336791992,0.3394002914428711
0.4572996139526367,0.3394002914428711
0.4665607452392578,0.3523578643798828
0.4756891250610351,0.3523578643798828
0.4608936309814453,0.3342447280883789
0.4600364685058593,0.3342447280883789
0.4775075912475586,0.3514978408813477
0.4677846908569336,0.3514978408813477
0.4588851928710938,0.3426784515380859
0.4763563156127930,0.3426784515380859
0.4749143600463867,0.3424152374267578
0.4597434997558594,0.3424152374267578
0.4695859909057617,0.3563329696655274
0.4789518356323242,0.3563329696655274
0.4642845153808594,0.3394151687622070
0.4638284683227539,0.3394151687622070
0.4814672470092773,0.3566974639892578
0.4720905303955078,0.3566974639892578
0.4629243850708007,0.3488840103149414
0.4806043624877929,0.3488840103149414
0.4791046142578125,0.3486122131347656
0.4643188476562500,0.3486122131347656
0.4743827819824218,0.3631072998046875
0.4835729598999023,0.3631072998046875
0.4687843322753906,0.3456573486328125
0.4685474395751953,0.3456573486328125
0.4857055664062500,0.3626890182495117
0.4758722305297851,0.3626890182495117
0.4668788909912109,0.3544361114501953
0.4843460083007812,0.3544361114501953
0.4826053619384765,0.3537540435791016
0.4675180435180664,0.3537540435791016
0.4774766921997070,0.3670600891113281
0.4864746093750000,0.3670600891113281
0.4711429595947265,0.3490682601928711
0.4707080841064453,0.3490682601928711
0.4874897003173828,0.3650230407714843
0.4773164749145508,0.3650230407714843
0.4681131362915039,0.3563936233520508
0.4856357574462891,0.3563936233520508
0.4834207534790039,0.3548034667968750
0.4685108184814453,0.3548034667968750
0.4782039642333984,0.3678571701049805
0.4865364074707031,0.3678571701049805
0.4713626861572265,0.3496290206909179
0.4710817337036133,0.3496290206909179
0.4878730773925781,0.3655534744262695
0.4774892807006836,0.3655534744262695
0.4682733535766601,0.3569583892822266
0.4861467361450195,0.3569583892822266
0.4835941314697265,0.3553304672241211
0.4688535690307617,0.3553304672241211
0.4788757324218750,0.3687898635864258
0.4872093200683594,0.3687898635864258
0.4721248626708984,0.3509593963623047
0.4722564697265625,0.3509593963623047
0.4888481140136718,0.3670251846313476
0.4785947799682617,0.3670251846313476
0.4694658279418945,0.3587985992431640
0.4873111724853516,0.3587985992431640
0.4849004745483398,0.3573669433593750
0.4702709197998047,0.3573669433593750
0.4805540084838867,0.3712228775024414
0.4888217926025391,0.3712228775024414
0.4736000061035156,0.3531990051269531
0.4741436004638672,0.3531990051269531
0.4903329849243164,0.3693952560424805
0.4799303054809570,0.3693952560424805
0.4710285186767578,0.3612396240234375
0.4891656875610351,0.3612396240234375
0.4865976333618164,0.3599550247192383
0.4721048355102539,0.3599550247192383
0.4825521469116211,0.3738750457763672
0.4907409667968750,0.3738750457763672
0.4755512237548828,0.3561332702636719
0.4760679244995117,0.3561332702636719
0.4925497055053711,0.3723197937011719
0.4819959640502929,0.3723197937011719
0.4732990264892578,0.3647386550903320
0.4915306091308593,0.3647386550903320
0.4887125015258789,0.3632617950439453
0.4745796203613281,0.3632617950439453
0.4850572586059570,0.3774702072143555
0.4929393768310547,0.3774702072143555
0.4778686523437500,0.3598491668701172
0.4786914825439453,0.3598491668701172
0.4949758529663086,0.3763006210327148
0.4844930648803711,0.3763006210327148
0.4759386062622070,0.3687841415405274
0.4942468643188476,0.3687841415405274
0.4910413742065429,0.3666578292846679
0.4765708923339844,0.3666578292846679
0.4869564056396484,0.3797956466674804
0.4940237045288086,0.3797956466674804
0.4780517578125000,0.3599704742431640
0.4780099868774414,0.3599704742431640
0.4925960540771484,0.3717126846313477
0.4803760528564453,0.3717126846313477
0.4700117111206055,0.3591276168823242
0.4864019393920898,0.3591276168823242
0.4815679550170898,0.3523063659667969
0.4658283233642578,0.3523063659667969
0.4752811431884765,0.3622163772583007
0.4811811447143555,0.3622163772583007
0.4645362854003906,0.3404720306396484
0.4647422790527344,0.3404720306396484
0.4793535232543945,0.3529100418090820
0.4671781539916992,0.3529100418090820
0.4578804016113281,0.3425949096679687
0.4754116058349609,0.3425949096679687
0.4713146209716796,0.3383337020874023
0.4565597534179687,0.3383337020874023
0.4671718597412109,0.3507190704345703
0.4740612030029296,0.3507190704345703
0.4580572128295898,0.3316703796386719
0.4591054916381836,0.3316703796386719
0.4746007919311523,0.3462718963623047
0.4631778717041015,0.3462718963623047
0.4548528671264648,0.3382432937622070
0.4730735778808594,0.3382432937622070
0.4692008972167969,0.3355304718017578
0.4556865692138672,0.3355304718017578
0.4666231155395508,0.3496868133544922
0.4736177444458007,0.3496868133544922
0.4583644866943359,0.3320543289184570
0.4601291656494140,0.3320543289184570
0.4756044387817382,0.3479982376098633
0.4645345687866211,0.3479982376098633
0.4566375732421875,0.3408102035522461
0.4756381988525391,0.3408102035522461
0.4717449188232422,0.3389499664306641
0.4582637786865234,0.3389499664306641
0.4698102951049805,0.3538272857666016
0.4768140792846680,0.3538272857666016
0.4616987228393554,0.3372127532958984
0.4640773773193359,0.3372127532958984
0.4796396255493164,0.3533775329589844
0.4687854766845703,0.3533775329589844
0.4609153747558594,0.3467788696289062
0.4797821044921875,0.3467788696289062
0.4759397506713867,0.3448986053466797
0.4626468658447265,0.3448986053466797
0.4744337081909180,0.3602405548095703
0.4811016082763672,0.3602405548095703
0.4659255981445312,0.3430137634277344
0.4683443069458008,0.3430137634277344
0.4834888458251953,0.3588838577270508
0.4719921112060547,0.3588838577270508
0.4644824981689453,0.3516054153442383
0.4831735610961914,0.3516054153442383
0.4787555694580078,0.3492164611816406
0.4653522491455078,0.3492164611816406
0.4771883010864257,0.3636331558227539
0.4835186004638672,0.3636331558227539
0.4677755355834960,0.3457517623901367
0.4700059890747070,0.3457517623901367
0.4849937438964844,0.3609838485717773
0.4732120513916016,0.3609838485717773
0.4655914306640625,0.3533266067504883
0.4842132568359375,0.3533266067504883
0.4794885635375976,0.3500724792480469
0.4663982391357422,0.3500724792480469
0.4778835296630859,0.3643718719482422
0.4837629318237304,0.3643718719482422
0.4680856704711914,0.3462203979492187
0.4704980850219727,0.3462203979492187
0.4852403640747070,0.3617557525634765
0.4734386444091797,0.3617557525634765
0.4660686492919922,0.3539709091186523
0.4849937438964844,0.3539709091186523
0.4798393249511719,0.3508129119873047
0.4666952133178711,0.3508129119873047
0.4786748886108398,0.3655094146728515
0.4844770431518555,0.3655094146728515
0.4688261032104492,0.3479707717895508
0.4718021392822265,0.3479707717895508
0.4865329742431641,0.3632978439331054
0.4747529983520508,0.3632978439331054
0.4674356460571289,0.3560297012329102
0.4862903594970703,0.3560297012329102
0.4811897277832031,0.3528665542602539
0.4681200027465820,0.3528665542602539
0.4804275512695312,0.3680477142333984
0.4860712051391601,0.3680477142333984
0.4706125259399414,0.3504272460937500
0.4738918304443359,0.3504272460937500
0.4883050918579102,0.3659082412719726
0.4761829376220703,0.3659082412719726
0.4692729949951172,0.3587179183959961
0.4882192611694336,0.3587179183959961
0.4828628540039062,0.3557979583740234
0.4702388763427734,0.3557979583740234
0.4826276779174805,0.3709779739379883
0.4883073806762695,0.3709779739379883
0.4725030899047851,0.3536149978637695
0.4758459091186523,0.3536149978637695
0.4903226852416992,0.3691148757934570
0.4783075332641601,0.3691148757934570
0.4717220306396484,0.3624475479125976
0.4906946182250976,0.3624475479125976
0.4852226257324219,0.3592237472534179
0.4728590011596679,0.3592237472534179
0.4853221893310546,0.3748311996459961
0.4905269622802734,0.3748311996459961
0.4751323699951172,0.3575088500976563
0.4788328170776367,0.3575088500976563
0.4930263519287109,0.3734081268310547
0.4809488296508789,0.3734081268310547
0.4742465972900390,0.3659431457519531
0.4931888580322266,0.3659431457519531
0.4870084762573242,0.3614793777465820
0.4738437652587890,0.3614793777465820
0.4856529235839844,0.3743946075439453
0.4895227432250976,0.3743946075439453
0.4725883483886719,0.3531972885131836
0.4747072219848633,0.3531972885131836
0.4872888565063476,0.3640388488769531
0.4735719680786132,0.3640388488769531
0.4654809951782226,0.3523910522460937
0.4826585769653320,0.3523910522460937
0.4753423690795898,0.3446027755737305
0.4613759994506836,0.3446027755737305
0.4729969024658203,0.3563638687133789
0.4766000747680664,0.3563638687133789
0.4599803924560547,0.3354457855224609
0.4628580093383789,0.3354457855224609
0.4757698059082031,0.3481287002563476
0.4625850677490234,0.3481287002563476
0.4555852890014648,0.3388280868530273
0.4738775253295898,0.3388280868530273
0.4672428131103515,0.3335620880126953
0.4543401718139648,0.3335620880126953
0.4667821884155273,0.3476171493530273
0.4713266372680664,0.3476171493530273
0.4552225112915039,0.3290021896362305
0.4590185165405273,0.3290021896362305
0.4727874755859375,0.3439750671386719
0.4601594924926757,0.3439750671386719
0.4538709640502929,0.3366634368896484
0.4728149414062500,0.3366634368896484
0.4664937973022460,0.3325349807739258
0.4544248580932617,0.3325349807739258
0.4673824310302734,0.3482179641723633
0.4719869613647460,0.3482179641723633
0.4566518783569335,0.3307113647460938
0.4607997894287109,0.3307113647460938
0.4748754501342773,0.3469190597534180
0.4625015258789062,0.3469190597534180
0.4568761825561523,0.3403707504272461
0.4762310028076172,0.3403707504272461
0.4697267532348632,0.3370370864868164
0.4578763961791992,0.3370370864868164
0.4713415145874023,0.3536321640014649
0.4760009765625000,0.3536321640014649
0.4608158111572265,0.3367887496948242
0.4654792785644531,0.3367887496948242
0.4791635513305664,0.3530977249145508
0.4671873092651367,0.3530977249145508
0.4614692687988281,0.3468383789062500
0.4806312561035156,0.3468383789062500
0.4621582031250000,0.3410882949829102
0.4620563507080078,0.3413206100463867
0.4799177169799804,0.3509548187255859
0.4641838073730469,0.3509548187255859
0.4690595626831054,0.3571197509765625
0.4690595626831054,0.3571197509765625
0.4698743820190430,0.3420856475830078
0.4698743820190430,0.3420856475830078
0.4819221496582031,0.3608310699462891
0.4819221496582031,0.3608310699462891
0.4640499114990234,0.3441604614257812
0.4640499114990234,0.3441604614257812
0.4815547943115234,0.3527086257934570
0.4815547943115234,0.3527086257934570
0.4700517654418945,0.3582052230834961
0.4700517654418945,0.3582052230834961
0.4702829360961914,0.3430377960205078
0.4702829360961914,0.3430377960205078
0.4823312759399414,0.3612522125244140
0.4823312759399414,0.3612522125244140
0.4644184112548828,0.3444545745849609
0.4644184112548828,0.3444545745849609
0.4812349319458007,0.3527812957763672
0.4812349319458007,0.3527812957763672
0.4705123901367188,0.3590309143066406
0.4705123901367188,0.3590309143066406
0.4706600189208984,0.3439012527465820
0.4706600189208984,0.3439012527465820
0.4833526611328125,0.3622644424438476
0.4768941879272461,0.3622644424438476
0.4650833129882812,0.3453426361083984
0.4650833129882812,0.3453426361083984
0.4822402954101562,0.3545911788940430
0.4822402954101562,0.3545911788940430
0.4718461990356445,0.3608722686767578
0.4718461990356445,0.3608722686767578
0.4721300125122070,0.3457574844360352
0.4721300125122070,0.3457574844360352
0.4846469879150390,0.3640840530395508
0.4846469879150390,0.3640840530395508
0.4666963577270508,0.3480995178222656
0.4666963577270508,0.3480995178222656
0.4836673736572266,0.3569766998291016
0.4836673736572266,0.3569766998291016
0.4739805221557617,0.3636703491210938
0.4739805221557617,0.3636703491210938
0.4737327575683594,0.3480497360229492
0.4737327575683594,0.3480497360229492
0.4865587234497070,0.3673553466796875
0.4865587234497070,0.3673553466796875
0.4687391281127929,0.3512266159057617
0.4687391281127929,0.3512266159057617
0.4859029769897460,0.3600580215454102
0.4859029769897460,0.3600580215454102
0.4761480331420898,0.3667613983154297
0.4761480331420898,0.3667613983154297
0.4760971069335938,0.3518520355224609
0.4760971069335938,0.3518520355224609
0.4890529632568359,0.3711118698120117
0.4890529632568359,0.3711118698120117
0.4714244842529297,0.3550340652465820
0.4714244842529297,0.3550340652465820
0.4881059646606445,0.3634323120117187
0.4881059646606445,0.3634323120117187
0.4788402557373047,0.3706289291381836
0.4788402557373047,0.3706289291381836
0.4781135559082031,0.3546386718750000
0.4781135559082031,0.3546386718750000
0.4899147033691406,0.3717287063598633
0.4899147033691406,0.3717287063598633
0.4698795318603515,0.3518360137939453
0.4698795318603515,0.3518360137939453
0.4834802627563476,0.3562185287475586
0.4834802627563476,0.3562185287475586
0.4710548400878906,0.3588575363159179
0.4710548400878906,0.3588575363159179
0.4675065994262695,0.3389259338378906
0.4675065994262695,0.3389259338378906
0.4776197433471679,0.3536247253417968
0.4776197433471679,0.3536247253417968
0.4570095062255859,0.3344335556030273
0.4570095062255859,0.3344335556030273
0.4716173171997070,0.3397613525390625
0.4716173171997070,0.3397613525390625
0.4610744476318359,0.3446834564208984
0.4610744476318359,0.3446834564208984
0.4589475631713867,0.3270395278930664
0.4589475631713867,0.3270395278930664
0.4710462570190430,0.3449552536010742
0.4710462570190430,0.3449552536010742
0.4524284362792969,0.3280111312866211
0.4524284362792969,0.3280111312866211
0.4686183929443359,0.3353061676025391
0.4686183929443359,0.3353061676025391
0.4592084884643555,0.3421274185180664
0.4592084884643555,0.3421274185180664
0.4583747863769531,0.3265949249267578
0.4583747863769531,0.3265949249267578
0.4716138839721680,0.3456836700439453
0.4716138839721680,0.3456836700439453
0.4540895462036132,0.3300699234008789
0.4540895462036132,0.3300699234008789
0.4704889297485351,0.3379680633544922
0.4704889297485351,0.3379680633544922
0.4622600555419922,0.3466449737548828
0.4622600555419922,0.3466449737548828
0.4618549346923828,0.3315690994262695
0.4618549346923828,0.3315690994262695
0.4758213043212891,0.3513645172119140
0.4758213043212891,0.3513645172119140
0.4583427429199218,0.3360918045043945
0.4583427429199218,0.3360918045043945
0.4750865936279297,0.3445976257324219
0.4750865936279297,0.3445976257324219
0.4671495437622070,0.3531560897827148
0.4671495437622070,0.3531560897827148
0.4665824890136718,0.3378307342529297
0.4665824890136718,0.3378307342529297
0.4798559188842773,0.3570402145385742
0.4798559188842773,0.3570402145385742
0.4621896743774414,0.3416364669799805
0.4621896743774414,0.3416364669799805
0.4782897949218750,0.3489412307739257
0.4782897949218750,0.3489412307739257
0.4699401855468750,0.3567609786987305
0.4699401855468750,0.3567609786987305
0.4683076858520507,0.3400863647460937
0.4683076858520507,0.3400863647460937
0.4811811447143555,0.3590480804443359
0.4811811447143555,0.3590480804443359
0.4630182266235351,0.3428770065307617
0.4630182266235351,0.3428770065307617
0.4787504196166992,0.3491964340209961
0.4628322601318359,0.3491964340209961
0.4697696685791015,0.3567106246948242
0.4697696685791015,0.3567106246948242
0.4681394577026367,0.3402975082397461
0.4681394577026367,0.3402975082397461
0.4810930252075195,0.3589433670043945
0.4810930252075195,0.3589433670043945
0.4631275177001953,0.3429450988769531
0.4631275177001953,0.3429450988769531
0.4786663055419922,0.3489675521850586
0.4786663055419922,0.3489675521850586
0.4701713562011718,0.3575351715087891
0.4701713562011718,0.3575351715087891
0.4686452865600585,0.3411878585815429
0.4686452865600585,0.3411878585815429
0.4820297241210937,0.3600706100463867
0.4820297241210937,0.3600706100463867
0.4639377593994141,0.3442405700683593
0.4639377593994141,0.3442405700683593
0.4796442031860351,0.3507184982299805
0.4796442031860351,0.3507184982299805
0.4714410781860351,0.3594097137451172
0.4714410781860351,0.3594097137451172
0.4699224472045898,0.3429084777832031
0.4699224472045898,0.3429084777832031
0.4832107543945312,0.3615749359130859
0.4832107543945312,0.3615749359130859
0.4652446746826172,0.3466226577758789
0.4652446746826172,0.3466226577758789
0.4808921813964844,0.3527229309082031
0.4808921813964844,0.3527229309082031
0.4732578277587891,0.3617053985595703
0.4732578277587891,0.3617053985595703
0.4713684082031250,0.3450256347656250
0.4713684082031250,0.3450256347656250
0.4849588394165039,0.3644914627075195
0.4849588394165039,0.3644914627075195
0.4672634124755859,0.3496461868286133
0.4672634124755859,0.3496461868286133
0.4833377838134765,0.3555576324462891
0.4833377838134765,0.3555576324462891
0.4752044677734375,0.3645818710327148
0.4752044677734375,0.3645818710327148
0.4737030029296875,0.3487094879150390
0.4737030029296875,0.3487094879150390
0.4875566482543945,0.3681026458740234
0.4875566482543945,0.3681026458740234
0.4698394775390625,0.3532676696777344
