REDsignal,IRsignal
0.5635992050170898,0.6862644195556641
0.5553726196289063,0.6871730804443359
0.5553726196289063,0.6871730804443359
0.5596126556396485,0.6829771041870117
0.5596126556396485,0.6829771041870117
0.5617715835571289,0.6902784347534180
0.5617715835571289,0.6902784347534180
0.5559190750122071,0.6807918548583984
0.5559190750122071,0.6807918548583984
0.5637817382812500,0.6870214462280273
0.5637817382812500,0.6870214462280273
0.5552335739135742,0.6862432479858398
0.5552335739135742,0.6862432479858398
0.5593368530273437,0.6821886062622070
0.5593368530273437,0.6821886062622070
0.5620239257812499,0.6895757675170898
0.5620239257812499,0.6895757675170898
0.5554344177246093,0.6807895660400390
0.5554344177246093,0.6807895660400390
0.5638944625854492,0.6873733520507812
0.5638944625854492,0.6873733520507812
0.5554738998413086,0.6877080917358398
0.5554738998413086,0.6877080917358398
0.5607244491577148,0.6846244812011718
0.5607244491577148,0.6846244812011718
0.5629428863525391,0.6930089950561523
0.5629428863525391,0.6930089950561523
0.5570171356201171,0.6843217849731446
0.5570171356201171,0.6843217849731446
0.5597419738769531,0.6869619369506835
0.5597419738769531,0.6869619369506835
0.5664224624633789,0.6956617355346679
0.5664224624633789,0.6956617355346679
0.5570806503295899,0.6902486801147460
0.5570806503295899,0.6902486801147460
0.5639202117919921,0.6891145706176758
0.5639202117919921,0.6891145706176758
0.5588178634643555,0.6876148223876953
0.5588178634643555,0.6876148223876953
0.5538379669189453,0.6716915130615234
0.5538379669189453,0.6716915130615234
0.5560409545898437,0.6709001541137695
0.5560409545898437,0.6709001541137695
0.5427612304687500,0.6586246490478516
0.5427612304687500,0.6586246490478516
0.5496019363403321,0.6553430557250977
0.5496019363403321,0.6553430557250977
0.5447553634643555,0.6572462081909179
0.5447553634643555,0.6572462081909179
0.5429449081420898,0.6484371185302734
0.5429449081420898,0.6484371185302734
0.5479883193969727,0.6555421829223632
0.5479883193969727,0.6555421829223632
0.5394229888916016,0.6499786376953125
0.5483356475830078,0.6499786376953125
0.5478429794311523,0.6519018173217773
0.5478429794311523,0.6519018173217773
0.5445968627929687,0.6572227478027344
0.5445968627929687,0.6572227478027344
0.5434907913208008,0.6514978408813477
0.5434907913208008,0.6514978408813477
0.5511005401611327,0.6611406326293945
0.5511005401611327,0.6611406326293945
0.5430250167846680,0.6578281402587890
0.5430250167846680,0.6578281402587890
0.5522214889526367,0.6620241165161133
0.5522214889526367,0.6620241165161133
0.5490165710449219,0.6695571899414062
0.5490165710449219,0.6695571899414062
0.5503686904907227,0.6656518936157226
0.5503686904907227,0.6656518936157226
0.5577838897705077,0.6766273498535156
0.5577838897705077,0.6766273498535156
0.5499761581420898,0.6737949371337890
0.5499761581420898,0.6737949371337890
0.5584716796875000,0.6776355743408203
0.5584716796875000,0.6776355743408203
0.5561714172363281,0.6837060928344726
0.5561714172363281,0.6837060928344726
0.5560260772705078,0.6778318405151367
0.5560260772705078,0.6778318405151367
0.5621509552001953,0.6860887527465820
0.5621509552001953,0.6860887527465820
0.5523485183715821,0.6801584243774413
0.5523485183715821,0.6801584243774413
0.5611375808715821,0.6812570571899413
0.5611375808715821,0.6812570571899413
0.5568265914916992,0.6847887039184570
0.5568265914916992,0.6847887039184570
0.5558177947998046,0.6770914077758788
0.5558177947998046,0.6770914077758788
0.5606855392456055,0.6841958999633789
0.5606855392456055,0.6841958999633789
0.5521030426025391,0.6780469894409179
0.5521030426025391,0.6780469894409179
0.5604543685913086,0.6792715072631835
0.5604543685913086,0.6792715072631835
0.5562469482421875,0.6837804794311523
0.5562469482421875,0.6837804794311523
0.5548667907714844,0.6770410537719727
0.5548667907714844,0.6770410537719727
0.5618625640869140,0.6852252960205077
0.5618625640869140,0.6852252960205077
0.5530757904052734,0.6799495697021484
0.5530757904052734,0.6799495697021484
0.5615489959716796,0.6822933197021485
0.5615489959716796,0.6822933197021485
0.5569524765014648,0.6874500274658203
0.5569524765014648,0.6874500274658203
0.5574926376342774,0.6815809249877930
0.5574926376342774,0.6815809249877930
0.5641067504882812,0.6905387878417969
0.5641067504882812,0.6905387878417969
0.5552387237548828,0.6852956771850586
0.5552387237548828,0.6852956771850586
0.5627454757690430,0.6861591339111328
0.5627454757690430,0.6861591339111328
0.5579011917114257,0.6867073059082031
0.5579011917114257,0.6867073059082031
0.5542327880859375,0.6720657348632812
0.5542327880859375,0.6720657348632812
0.5561084747314453,0.6710809707641602
0.5561084747314453,0.6710809707641602
0.5427377700805663,0.6573377609252929
0.5427377700805663,0.6573377609252929
0.5490795135498047,0.6535091400146484
0.5490795135498047,0.6535091400146484
0.5431669235229492,0.6539085388183593
0.5431669235229492,0.6539085388183593
0.5414360046386718,0.6445781707763671
0.5414360046386718,0.6445781707763671
0.5458522796630859,0.6510887145996094
0.5458522796630859,0.6510887145996094
0.5374362945556640,0.6442852020263672
0.5374362945556640,0.6442852020263672
0.5457103729248046,0.6460521697998046
0.5457103729248046,0.6460521697998046
0.5413822174072266,0.6506155014038085
0.5413822174072266,0.6506155014038085
0.5406852722167969,0.6442932128906250
0.5406852722167969,0.6442932128906250
0.5476186752319335,0.6536424636840820
0.5476186752319335,0.6536424636840820
0.5397079467773437,0.6491014480590820
0.5397079467773437,0.6491014480590820
0.5487087249755859,0.6532802581787109
0.5487087249755859,0.6532802581787109
0.5447221755981445,0.6598892211914062
0.5447221755981445,0.6598892211914062
0.5462488174438477,0.6558300018310547
0.5462488174438477,0.6558300018310547
0.5535261154174804,0.6670166015625000
0.5535261154174804,0.6670166015625000
0.5459775924682617,0.6637510299682617
0.5459775924682617,0.6637510299682617
0.5545269012451172,0.6682405471801758
0.5545269012451172,0.6682405471801758
0.5520326614379882,0.6744146347045898
0.5524652481079101,0.6689638137817383
0.5586009979248047,0.6779788970947266
0.5586009979248047,0.6779788970947266
0.5492385864257813,0.6717441558837890
0.5492385864257813,0.6717441558837890
0.5580745697021484,0.6735466003417968
0.5580745697021484,0.6735466003417968
0.5533567428588867,0.6768247604370117
0.5533567428588867,0.6768247604370117
0.5526002883911133,0.6688899993896484
0.5526002883911133,0.6688899993896484
0.5571773529052734,0.6761764526367188
0.5571773529052734,0.6761764526367188
0.5487899780273438,0.6689088821411132
0.5487899780273438,0.6689088821411132
0.5568323135375977,0.6704612731933594
0.5568323135375977,0.6704612731933594
0.5520017623901367,0.6740781784057617
0.5520017623901367,0.6740781784057617
0.5510616302490234,0.6670434951782226
0.5510616302490234,0.6670434951782226
0.5573781967163086,0.6753078460693359
0.5573781967163086,0.6753078460693359
0.5490423202514648,0.6691326141357422
0.5490423202514648,0.6691326141357422
0.5574342727661132,0.6720279693603516
0.5574342727661132,0.6720279693603516
0.5523307800292968,0.6765100479125976
0.5523307800292968,0.6765100479125976
0.5532062530517577,0.6705265045166016
0.5532062530517577,0.6705265045166016
0.5592658996582031,0.6795564651489258
0.5592658996582031,0.6795564651489258
0.5509019851684570,0.6737840652465820
0.5509019851684570,0.6737840652465820
0.5586542129516602,0.6763378143310547
0.5586542129516602,0.6763378143310547
0.5542980194091797,0.6786746978759766
0.5542980194091797,0.6786746978759766
0.5525144577026367,0.6671339035034179
0.5525144577026367,0.6671339035034179
0.5547151565551758,0.6680414199829101
0.5547151565551758,0.6680414199829101
0.5420059204101563,0.6536636352539062
0.5420059204101563,0.6536636352539062
0.5479871749877929,0.6501989364624023
0.5479871749877929,0.6501989364624023
0.5413610458374023,0.6495374679565430
0.5413610458374023,0.6495374679565430
0.5398195266723632,0.6396617889404297
0.5398195266723632,0.6396617889404297
0.5435794830322266,0.6460824966430664
0.5435794830322266,0.6460824966430664
0.5353322982788086,0.6380355834960937
0.5353322982788086,0.6380355834960937
0.5435457229614258,0.6403129577636718
0.5435457229614258,0.6403129577636718
0.5387306213378906,0.6440248489379883
0.5387306213378906,0.6440248489379883
0.5384548187255859,0.6379863739013671
0.5384548187255859,0.6379863739013671
0.5449813842773438,0.6474563598632812
0.5449813842773438,0.6474563598632812
0.5373395919799805,0.6417251586914062
0.5373395919799805,0.6417251586914062
0.5462545394897461,0.6464538574218750
0.5462545394897461,0.6464538574218750
0.5414989471435546,0.6520694732666016
0.5414989471435546,0.6520694732666016
0.5436384201049804,0.6481527328491211
0.5436384201049804,0.6481527328491211
0.5499864578247070,0.6590635299682617
0.5499864578247070,0.6590635299682617
0.5428682327270508,0.6545196533203125
0.5428682327270508,0.6545196533203125
0.5514141082763672,0.6600946426391602
0.5514141082763672,0.6600946426391602
0.5481908798217773,0.6656639099121093
0.5481908798217773,0.6656639099121093
0.5495647430419922,0.6610548019409179
0.5495647430419922,0.6610548019409179
0.5551362991333008,0.6704761505126953
0.5551362991333008,0.6704761505126953
0.5468050003051758,0.6640966415405273
0.5468050003051758,0.6640966415405273
0.5555242538452149,0.6673851013183594
0.5555242538452149,0.6673851013183594
0.5506044387817383,0.6705139160156249
0.5506044387817383,0.6705139160156249
0.5509077072143554,0.6638036727905273
0.5509077072143554,0.6638036727905273
0.5549715042114257,0.6713796615600586
0.5549715042114257,0.6713796615600586
0.5474395751953125,0.6634826660156250
0.5474395751953125,0.6634826660156250
0.5553754806518555,0.6663196563720702
0.5553754806518555,0.6663196563720702
0.5500734329223632,0.6692304611206055
0.5500734329223632,0.6692304611206055
0.5497713088989258,0.6627582550048828
0.5497713088989258,0.6627582550048828
0.5555448532104492,0.6711135864257812
0.5555448532104492,0.6711135864257812
0.5477857589721680,0.6640542984008789
0.5477857589721680,0.6640542984008789
0.5558675765991211,0.6677867889404296
0.5558675765991211,0.6677867889404296
0.5500997543334961,0.6714603424072265
0.5500997543334961,0.6714603424072265
0.5518198013305664,0.6658292770385742
0.5518198013305664,0.6658292770385742
0.5569965362548828,0.6750263214111328
0.5569965362548828,0.6750263214111328
0.5496688842773437,0.6683641433715820
0.5496688842773437,0.6683641433715820
0.5571201324462890,0.6727684020996093
0.5571201324462890,0.6727684020996093
0.5529075622558594,0.6759984970092773
0.5529075622558594,0.6759984970092773
0.5534391403198242,0.6686639785766602
0.5534391403198242,0.6686639785766602
0.5565868377685547,0.6727169036865234
0.5565868377685547,0.6727169036865234
0.5452669143676757,0.6584890365600585
0.5452669143676757,0.6584890365600585
0.5506027221679687,0.6550289154052734
0.5506027221679687,0.6550289154052734
0.5426668167114258,0.6516351699829102
0.5426668167114258,0.6516351699829102
0.5411802291870117,0.6411088943481446
0.5411802291870117,0.6411088943481446
0.5436309814453125,0.6461809158325195
0.5436309814453125,0.6461809158325195
0.5358169555664062,0.6367160797119140
0.5358169555664062,0.6367160797119140
0.5432098388671874,0.6396331787109375
0.5432098388671874,0.6396331787109375
0.5378190994262695,0.6419380187988281
0.5378190994262695,0.6419380187988281
0.5380834579467774,0.6361650466918946
0.5380834579467774,0.6361650466918946
0.5437683105468750,0.6451766967773437
0.5437683105468750,0.6451766967773437
0.5369070053100585,0.6383565902709961
0.5369070053100585,0.6383565902709961
0.5450345993041992,0.6439361572265625
0.5450345993041992,0.6439361572265625
0.5399122238159180,0.6482774734497070
0.5399122238159180,0.6482774734497070
0.5426662445068359,0.6448081970214844
0.5426662445068359,0.6448081970214844
0.5481628417968750,0.6554311752319336
0.5481628417968750,0.6554311752319336
0.5418703079223632,0.6501153945922852
0.5418703079223632,0.6501153945922852
0.5499183654785156,0.6566453933715820
0.5499183654785156,0.6566453933715820
0.5463872909545898,0.6614988327026367
0.5463872909545898,0.6614988327026367
0.5486125946044922,0.6578149795532227
0.5486125946044922,0.6578149795532227
0.5536130905151367,0.6674720764160156
0.5536130905151367,0.6674720764160156
0.5461727142333984,0.6605318069458007
0.5461727142333984,0.6605318069458007
0.5547380447387695,0.6655082702636719
0.5547380447387695,0.6655082702636719
0.5559894561767578,0.6692178726196288
0.5559894561767578,0.6692178726196288
0.5557210922241210,0.6656164169311524
0.5557210922241210,0.6656164169311524
0.5528886795043945,0.6638139724731446
0.5528886795043945,0.6638139724731446
0.5526002883911133,0.6693500518798828
0.5526002883911133,0.6693500518798828
0.5485450744628906,0.6604482650756835
0.5485450744628906,0.6604482650756835
0.5553937911987304,0.6678646087646484
0.5553937911987304,0.6678646087646484
0.5463775634765625,0.6645143508911132
0.5463775634765625,0.6645143508911132
0.5529487609863281,0.6634294509887695
0.5529487609863281,0.6634294509887695
0.5523674011230468,0.6696847915649414
0.5523674011230468,0.6696847915649414
0.5491384506225586,0.6613563537597656
0.5505083084106445,0.6613563537597656
0.5560770034790039,0.6696756362915038
0.5560770034790039,0.6696756362915038
0.5480581283569336,0.6670812606811524
0.5480581283569336,0.6670812606811524
0.5542379379272461,0.6672986984252930
0.5542379379272461,0.6672986984252930
0.5540994644165039,0.6735723495483398
0.5540994644165039,0.6735723495483398
0.5508613586425781,0.6658441543579101
0.5508613586425781,0.6658441543579101
0.5585403442382812,0.6745771408081055
0.5585403442382812,0.6745771408081055
0.5497329711914062,0.6718746185302734
0.5497329711914062,0.6718746185302734
0.5555957794189453,0.6693763732910156
0.5555957794189453,0.6693763732910156
0.5532697677612305,0.6703313827514649
0.5532697677612305,0.6703313827514649
0.5470424652099609,0.6547296524047851
0.5462184906005859,0.6547296524047851
0.5502388000488281,0.6555885314941406
0.5502388000488281,0.6555885314941406
0.5388959884643555,0.6462484359741211
0.5388959884643555,0.6462484359741211
0.5428956985473633,0.6411197662353515
0.5428956985473633,0.6411197662353515
0.5413284301757812,0.6441593170166016
0.5413284301757812,0.6441593170166016
0.5371501922607421,0.6344026565551758
0.5371501922607421,0.6344026565551758
0.5434524536132812,0.6410739898681640
0.5434524536132812,0.6410739898681640
0.5347394943237305,0.6377031326293945
0.5347394943237305,0.6377031326293945
0.5414388656616210,0.6373884201049804
0.5414388656616210,0.6373884201049804
0.5409170150756836,0.6442543029785156
0.5409170150756836,0.6442543029785156
0.5382339477539062,0.6364751815795898
0.5382339477539062,0.6364751815795898
0.5454660415649414,0.6462203979492187
0.5454660415649414,0.6462203979492187
0.5381544113159179,0.6446565628051758
0.5381544113159179,0.6446565628051758
0.5452629089355469,0.6469848632812499
0.5452629089355469,0.6469848632812499
0.5457429885864258,0.6551433563232422
0.5457429885864258,0.6551433563232422
0.5438632965087891,0.6494155883789062
0.5438632965087891,0.6494155883789062
0.5520389556884765,0.6603012084960938
0.5520389556884765,0.6603012084960938
0.5442632675170899,0.6595779418945312
0.5442632675170899,0.6595779418945312
0.5517351150512695,0.6610651016235352
0.5517351150512695,0.6610651016235352
0.5518238067626953,0.6687732696533203
0.5518238067626953,0.6687732696533203
0.5499103546142577,0.6618816375732421
0.5499103546142577,0.6618816375732421
0.5567687988281250,0.6712526321411133
0.5567687988281250,0.6712526321411133
0.5482286453247071,0.6676288604736328
0.5482286453247071,0.6676288604736328
0.5548135757446289,0.6674852371215820
0.5548135757446289,0.6674852371215820
0.5544124603271484,0.6731140136718750
0.5544124603271484,0.6731140136718750
0.5508218765258789,0.6646087646484374
0.5508218765258789,0.6646087646484374
0.5573049545288086,0.6720422744750977
0.5573049545288086,0.6720422744750977
0.5481714248657227,0.6678794860839844
0.5481714248657227,0.6678794860839844
0.5552169799804687,0.6673753738403320
0.5552169799804687,0.6673753738403320
0.5541418075561523,0.6735271453857422
0.5541418075561523,0.6735271453857422
0.5511171340942382,0.6648405075073242
0.5511171340942382,0.6648405075073242
0.5578102111816406,0.6734355926513672
0.5578102111816406,0.6734355926513672
0.5495281219482422,0.6699834823608398
0.5495281219482422,0.6699834823608398
0.5561016082763671,0.6708927154541016
0.5561016082763671,0.6708927154541016
0.5556856155395508,0.6770742416381835
0.5556856155395508,0.6770742416381835
0.5528532028198242,0.6696933746337891
0.5528532028198242,0.6696933746337891
0.5604967117309571,0.6789751052856445
0.5604967117309571,0.6789751052856445
0.5518524169921875,0.6764499664306640
0.5518524169921875,0.6764499664306640
0.5588802337646485,0.6767028808593750
0.5588802337646485,0.6767028808593750
0.5579635620117187,0.6821554183959960
0.5579635620117187,0.6821554183959960
0.5543952941894531,0.6706861495971680
0.5543952941894531,0.6706861495971680
0.5580230712890625,0.6723100662231445
0.5580230712890625,0.6723100662231445
0.5451301574707031,0.6590435028076171
0.5451301574707031,0.6590435028076171
0.5479825973510742,0.6508083343505859
0.5479825973510742,0.6508083343505859
0.5444326400756836,0.6501314163208007
0.5444326400756836,0.6501314163208007
0.5392049789428711,0.6379846572875977
0.5392049789428711,0.6379846572875977
0.5445642471313477,0.6433353424072266
0.5445642471313477,0.6433353424072266
0.5349758148193359,0.6378799438476562
0.5437517166137695,0.6378799438476562
0.5419876098632812,0.6375377655029296
0.5419876098632812,0.6375377655029296
0.5408231735229492,0.6437541961669921
0.5408231735229492,0.6437541961669921
0.5381801605224609,0.6357650756835938
0.5386602401733398,0.6357650756835938
0.5450666427612304,0.6450736999511718
0.5450666427612304,0.6450736999511718
0.5372388839721679,0.6426092147827148
0.5372388839721679,0.6426092147827148
0.5448303222656250,0.6452333450317382
0.5448303222656250,0.6452333450317382
0.5448789596557617,0.6529541015625000
0.5448789596557617,0.6529541015625000
0.5431497573852538,0.6475696563720703
0.5431497573852538,0.6475696563720703
0.5515708923339844,0.6588397979736328
0.5515708923339844,0.6588397979736328
0.5434358596801757,0.6577835083007812
0.5434358596801757,0.6577835083007812
0.5518066406250000,0.6602325439453125
0.5518066406250000,0.6602325439453125
0.5515291213989257,0.6681793212890624
0.5515291213989257,0.6681793212890624
0.5499967575073242,0.6616086959838867
0.5499967575073242,0.6616086959838867
0.5568895339965820,0.6715518951416015
0.5568895339965820,0.6715518951416015
0.5481182098388672,0.6674165725708008
0.5481182098388672,0.6674165725708008
0.5552764892578125,0.6677267074584960
0.5552764892578125,0.6677267074584960
0.5544931411743164,0.6730682373046875
0.5544931411743164,0.6730682373046875
0.5510473251342773,0.6647249221801758
0.5510473251342773,0.6647249221801758
0.5575115203857421,0.6721744537353516
0.5575115203857421,0.6721744537353516
0.5478572845458984,0.6670795440673828
0.5478572845458984,0.6670795440673828
0.5553949356079101,0.6669101715087891
0.5553949356079101,0.6669101715087891
0.5537807464599609,0.6726242065429687
0.5537807464599609,0.6726242065429687
0.5509672164916992,0.6638866424560547
0.5509672164916992,0.6638866424560547
0.5576797485351562,0.6725234985351562
0.5576797485351562,0.6725234985351562
0.5488832473754882,0.6682754516601562
0.5488832473754882,0.6682754516601562
0.5560792922973633,0.6693483352661133
0.5560792922973633,0.6693483352661133
0.5549514770507812,0.6751407623291016
0.5549514770507812,0.6751407623291016
0.5523342132568360,0.6676351547241210
0.5523342132568360,0.6676351547241210
0.5597791671752930,0.6769706726074218
0.5597791671752930,0.6769706726074218
0.5505981445312500,0.6736284255981445
0.5505981445312500,0.6736284255981445
0.5583446502685546,0.6743597030639649
0.5583446502685546,0.6743597030639649
0.5572179794311524,0.6805234909057617
0.5572179794311524,0.6805234909057617
0.5547140121459960,0.6715209960937499
0.5547140121459960,0.6715209960937499
0.5598014831542969,0.6765678405761718
0.5598014831542969,0.6765678405761718
0.5473600387573242,0.6639530181884765
0.5473600387573242,0.6639530181884765
0.5507944107055663,0.6558374404907227
0.5507944107055663,0.6558374404907227
0.5459896087646484,0.6530307769775391
0.5459896087646484,0.6530307769775391
0.5399974822998047,0.6388441085815429
0.5399974822998047,0.6388441085815429
0.5444766998291015,0.6425954818725585
0.5444766998291015,0.6425954818725585
0.5337759017944336,0.6351797103881835
0.5337759017944336,0.6351797103881835
0.5411384582519531,0.6341915130615234
0.5411384582519531,0.6341915130615234
0.5388782501220702,0.6393877029418945
0.5388782501220702,0.6393877029418945
0.5364629745483398,0.6310358047485352
0.5364629745483398,0.6310358047485352
0.5430976867675781,0.6400325775146484
0.5430976867675781,0.6400325775146484
0.5347114562988281,0.6363533020019531
0.5347114562988281,0.6363533020019531
0.5426902770996094,0.6387136459350585
0.5426902770996094,0.6387136459350585
0.5417804718017578,0.6457952499389649
0.5417804718017578,0.6457952499389649
0.5403888702392577,0.6402156829833984
0.5403888702392577,0.6402156829833984
0.5485038757324219,0.6514017105102539
0.5485038757324219,0.6514017105102539
0.5401983261108398,0.6500078201293945
0.5401983261108398,0.6500078201293945
0.5492540359497070,0.6531824111938477
0.5492540359497070,0.6531824111938477
0.5484031677246094,0.6611354827880859
0.5484031677246094,0.6611354827880859
0.5476776123046875,0.6557086944580078
0.5476776123046875,0.6557086944580078
0.5546407699584961,0.6660655975341797
0.5546407699584961,0.6660655975341797
0.5459535598754882,0.6621625900268554
0.5550687789916992,0.6621625900268554
0.5540090560913086,0.6634431838989258
0.5540090560913086,0.6634431838989258
0.5523181915283203,0.6687166213989257
0.5523181915283203,0.6687166213989257
0.5497964859008789,0.6609724044799804
0.5497964859008789,0.6609724044799804
0.5559350967407226,0.6680614471435546
0.5559350967407226,0.6680614471435546
0.5461709976196288,0.6625213623046875
0.5461709976196288,0.6625213623046875
0.5541292190551758,0.6625808715820313
0.5541292190551758,0.6625808715820313
0.5513523101806640,0.6675046920776367
0.5513523101806640,0.6675046920776367
0.5490829467773437,0.6590291976928710
0.5490829467773437,0.6590291976928710
0.5553886413574218,0.6669862747192382
0.5553886413574218,0.6669862747192382
0.5464525222778320,0.6621007919311523
0.5464525222778320,0.6621007919311523
0.5539924621582031,0.6634243011474609
0.5539924621582031,0.6634243011474609
0.5519084930419922,0.6686588287353515
0.5519084930419922,0.6686588287353515
0.5499841690063476,0.6614501953124999
0.5499841690063476,0.6614501953124999
0.5571367263793945,0.6703210830688476
0.5571367263793945,0.6703210830688476
0.5478973388671875,0.6666069030761719
0.5478973388671875,0.6666069030761719
0.5561576843261719,0.6679555892944335
0.5561576843261719,0.6679555892944335
0.5541057586669922,0.6739557266235351
0.5541057586669922,0.6739557266235351
0.5527256011962890,0.6666847229003906
0.5527256011962890,0.6666847229003906
0.5585128784179687,0.6738498687744140
0.5585128784179687,0.6738498687744140
0.5474349975585937,0.6637138366699219
0.5474349975585937,0.6637138366699219
0.5518541336059570,0.6567300796508789
0.5518541336059570,0.6567300796508789
0.5460044860839843,0.6533002853393555
0.5460044860839843,0.6533002853393555
0.5403425216674804,0.6386501312255859
0.5403425216674804,0.6386501312255859
0.5441574096679688,0.6409543991088867
0.5441574096679688,0.6409543991088867
0.5329839706420898,0.6322145462036133
0.5329839706420898,0.6322145462036133
0.5402120590209961,0.6308567047119140
0.5402120590209961,0.6308567047119140
0.5366111755371094,0.6348358154296875
0.5366111755371094,0.6348358154296875
0.5345746994018554,0.6262950897216797
0.5345746994018554,0.6262950897216797
0.5315277099609375,0.6280277252197265
0.5321313858032226,0.6280277252197265
0.5399007797241211,0.6361999511718750
0.5399007797241211,0.6361999511718750
0.5340425491333007,0.6284414291381836
0.5340425491333007,0.6284414291381836
0.5423784255981445,0.6363687515258789
0.5423784255981445,0.6363687515258789
0.5357969284057617,0.6383571624755859
0.5357969284057617,0.6383571624755859
0.5410177230834960,0.6367401123046875
0.5410177230834960,0.6367401123046875
0.5445133209228515,0.6470626831054688
0.5445133209228515,0.6470626831054688
0.5387283325195312,0.6407615661621093
0.5387283325195312,0.6407615661621093
0.5489913940429687,0.6498796463012695
0.5489913940429687,0.6498796463012695
0.5418296813964844,0.6524797439575195
0.5418296813964844,0.6524797439575195
0.5471231460571289,0.6508478164672852
0.5471231460571289,0.6508478164672852
0.5496711730957031,0.6599195480346679
0.5496711730957031,0.6599195480346679
0.5446117401123046,0.6521547317504882
0.5446117401123046,0.6521547317504882
0.5535741806030273,0.6593856811523438
0.5535741806030273,0.6593856811523438
0.5452251434326172,0.6595230102539062
0.5452251434326172,0.6595230102539062
0.5489273071289062,0.6557075500488281
0.5489273071289062,0.6557075500488281
0.5517585754394531,0.6627033233642577
0.5517585754394531,0.6627033233642577
0.5454299926757812,0.6532865524291992
0.5454299926757812,0.6532865524291992
0.5535758972167969,0.6592426300048828
0.5535758972167969,0.6592426300048828
0.5442094802856445,0.6588232040405273
0.5442094802856445,0.6588232040405273
0.5494377136230468,0.6550821304321289
0.5494377136230468,0.6550821304321289
0.5517156600952148,0.6623800277709960
0.5517156600952148,0.6623800277709960
0.5456279754638672,0.6536802291870117
0.5456279754638672,0.6536802291870117
0.5533390045166016,0.6607887268066406
0.5533390045166016,0.6607887268066406
0.5458917617797852,0.6612985610961913
0.5458917617797852,0.6612985610961913
0.5508865356445313,0.6584959030151367
0.5508865356445313,0.6584959030151367
0.5532960891723633,0.6667510986328125
0.5532960891723633,0.6667510986328125
0.5470418930053711,0.6589324951171874
0.5470418930053711,0.6589324951171874
0.5565387725830078,0.6667230606079101
0.5565387725830078,0.6667230606079101
0.5485713958740234,0.6675361633300781
0.5485713958740234,0.6675361633300781
0.5535873413085938,0.6644004821777344
0.5535873413085938,0.6644004821777344
0.5544994354248046,0.6702100753784179
0.5544994354248046,0.6702100753784179
0.5473188400268555,0.6565647125244141
0.5473188400268555,0.6565647125244141
0.5525453567504882,0.6556543350219727
0.5525453567504882,0.6556543350219727
0.5401863098144531,0.6476291656494141
0.5401863098144531,0.6476291656494141
0.5411985397338867,0.6372648239135742
0.5411985397338867,0.6372648239135742
0.5413358688354492,0.6396274566650391
0.5413358688354492,0.6396274566650391
0.5340110778808593,0.6274589538574219
0.5340110778808593,0.6274589538574219
0.5413415908813476,0.6321968078613281
0.5413415908813476,0.6321968078613281
0.5313034057617188,0.6307788848876953
0.5313034057617188,0.6307788848876953
0.5369716644287109,0.6271013259887696
0.5369716644287109,0.6271013259887696
0.5389869689941406,0.6346727371215820
0.5389869689941406,0.6346727371215820
0.5333822250366210,0.6263534545898437
0.5333822250366210,0.6263534545898437
0.5415561676025390,0.6341817855834960
0.5415561676025390,0.6341817855834960
0.5341329574584961,0.6354532241821289
0.5341329574584961,0.6354532241821289
0.5402372360229492,0.6340902328491210
0.5402372360229492,0.6340902328491210
0.5429466247558593,0.6434852600097656
0.5429466247558593,0.6434852600097656
0.5375061035156250,0.6371721267700196
0.5375061035156250,0.6371721267700196
0.5476850509643555,0.6469173431396484
0.5476850509643555,0.6469173431396484
0.5399980545043945,0.6489755630493164
0.5399980545043945,0.6489755630493164
0.5464885711669921,0.6481607437133788
0.5464885711669921,0.6481607437133788
0.5484254837036132,0.6573549270629883
0.5484254837036132,0.6573549270629883
0.5441110610961913,0.6501440048217774
0.5441110610961913,0.6501440048217774
0.5531284332275390,0.6582904815673828
0.5473766326904297,0.6582904815673828
0.5444080352783203,0.6585668563842774
0.5538122177124023,0.6585668563842774
0.5493953704833984,0.6557109832763671
0.5493953704833984,0.6557109832763671
0.5517883300781250,0.6628755569458008
0.5517883300781250,0.6628755569458008
0.5458974838256836,0.6536859512329102
0.5458974838256836,0.6536859512329102
0.5540393829345703,0.6601959228515625
0.5540393829345703,0.6601959228515625
0.5439765930175781,0.6591161727905274
0.5439765930175781,0.6591161727905274
0.5502628326416016,0.6557498931884765
0.5502628326416016,0.6557498931884765
0.5518701553344726,0.6627296447753906
0.5518701553344726,0.6627296447753906
0.5460119247436523,0.6537408828735352
0.5460119247436523,0.6537408828735352
0.5537137985229492,0.6609472274780274
0.5537137985229492,0.6609472274780274
0.5454488754272461,0.6608442306518555
0.5454488754272461,0.6608442306518555
0.5514221191406250,0.6584730148315430
0.5514221191406250,0.6584730148315430
0.5531181335449219,0.6662813186645508
0.5531181335449219,0.6662813186645508
0.5470745086669921,0.6581829071044921
0.5470745086669921,0.6581829071044921
0.5566474914550781,0.6663946151733399
0.5566474914550781,0.6663946151733399
0.5480752944946289,0.6670148849487304
0.5480752944946289,0.6670148849487304
0.5541841506958007,0.6652410507202148
0.5541841506958007,0.6652410507202148
0.5553033828735351,0.6732690811157226
0.5553033828735351,0.6732690811157226
0.5505603790283203,0.6642368316650390
0.5505603790283203,0.6642368316650390
0.5582050323486328,0.6688573837280273
0.5582050323486328,0.6688573837280273
0.5466167449951171,0.6620538711547851
0.5542047500610351,0.6620538711547851
0.5480472564697265,0.6508970260620117
0.5480472564697265,0.6508970260620117
0.5463277816772460,0.6498224258422851
0.5463277816772460,0.6498224258422851
0.5378683090209960,0.6344112396240235
0.5378683090209960,0.6344112396240235
0.5438123703002929,0.6371286392211913
0.5438123703002929,0.6371286392211913
0.5326440811157226,0.6335849761962891
0.5326440811157226,0.6335849761962891
0.5384674072265625,0.6293729782104492
0.5384674072265625,0.6293729782104492
0.5394945144653320,0.6357570648193359
0.5394945144653320,0.6357570648193359
0.5341135025024414,0.6267992019653320
0.5341135025024414,0.6267992019653320
0.5418605804443359,0.6346103668212890
0.5418605804443359,0.6346103668212890
0.5337907791137695,0.6347488403320313
0.5337907791137695,0.6347488403320313
0.5405204772949218,0.6335826873779297
0.5405204772949218,0.6335826873779297
0.5423080444335937,0.6423397064208984
0.5423080444335937,0.6423397064208984
0.5372354507446289,0.6353467941284180
0.5372354507446289,0.6353467941284180
0.5471717834472656,0.6454433441162110
0.5471717834472656,0.6454433441162110
0.5391672134399413,0.6471187591552734
0.5391672134399413,0.6471187591552734
0.5463867187500000,0.6471313476562500
0.5463867187500000,0.6471313476562500
0.5479843139648437,0.6565315246582031
0.5479843139648437,0.6565315246582031
0.5443742752075195,0.6497611999511719
0.5443742752075195,0.6497611999511719
0.5535530090332031,0.6590995788574219
0.5535530090332031,0.6590995788574219
0.5448360443115234,0.6596597671508789
0.5448360443115234,0.6596597671508789
0.5506759643554687,0.6580959320068359
0.5506759643554687,0.6580959320068359
0.5528057098388671,0.6656209945678710
0.5528057098388671,0.6656209945678710
0.5478281021118164,0.6567066192626952
0.5478281021118164,0.6567066192626952
0.5557508468627930,0.6641813278198242
0.5557508468627930,0.6641813278198242
0.5457624435424805,0.6628040313720703
0.5457624435424805,0.6628040313720703
0.5523359298706054,0.6598978042602539
0.5523359298706054,0.6598978042602539
0.5532983779907227,0.6662200927734375
0.5532983779907227,0.6662200927734375
0.5479333877563476,0.6567741394042969
0.5479333877563476,0.6567741394042969
0.5551591873168945,0.6640783309936523
0.5551591873168945,0.6640783309936523
0.5466310501098632,0.6630992889404297
0.5466310501098632,0.6630992889404297
0.5527799606323242,0.6607818603515625
0.5527799606323242,0.6607818603515625
0.5537773132324219,0.6679721832275390
0.5537773132324219,0.6679721832275390
0.5483150482177734,0.6594566345214844
0.5483150482177734,0.6594566345214844
0.5572374343872070,0.6677221298217774
0.5572374343872070,0.6677221298217774
0.5484769821166992,0.6676500320434570
0.5484769821166992,0.6676500320434570
0.5550132751464844,0.6663757324218750
0.5550132751464844,0.6663757324218750
0.5556455612182617,0.6741966247558594
0.5556455612182617,0.6741966247558594
0.5519187927246093,0.6661828994750977
0.5519187927246093,0.6661828994750977
0.5603776931762695,0.6747041702270508
0.5603776931762695,0.6747041702270508
0.5509912490844726,0.6730871200561523
0.5509912490844726,0.6730871200561523
0.5554618835449219,0.6675161361694336
0.5554618835449219,0.6675161361694336
0.5541475296020507,0.6673027038574219
0.5541475296020507,0.6673027038574219
0.5453733444213867,0.6490207672119140
0.5453733444213867,0.6490207672119140
0.5492740631103515,0.6485023498535156
0.5492740631103515,0.6485023498535156
0.5361591339111328,0.6405338287353516
0.5361591339111328,0.6405338287353516
0.5408586502075196,0.6338573455810547
0.5408586502075196,0.6338573455810547
0.5402658462524413,0.6380887985229492
0.5402658462524413,0.6380887985229492
0.5348991394042969,0.6275230407714844
0.5348991394042969,0.6275230407714844
0.5418056488037110,0.6347602844238281
0.5418056488037110,0.6347602844238281
0.5333375930786133,0.6336502075195313
0.5434181213378906,0.6336502075195313
0.5399648666381835,0.6320915222167969
0.5399648666381835,0.6320915222167969
0.5411109924316406,0.6401292800903320
0.5411109924316406,0.6401292800903320
0.5364812850952149,0.6325035095214844
0.5364812850952149,0.6325035095214844
0.5458362579345702,0.6424541473388672
0.5458362579345702,0.6424541473388672
0.5377189636230468,0.6435710906982421
0.5377189636230468,0.6435710906982421
0.5451564788818359,0.6441667556762695
0.5451564788818359,0.6441667556762695
0.5465017318725586,0.6539440155029297
0.5465017318725586,0.6539440155029297
0.5439388275146484,0.6477115631103515
0.5439388275146484,0.6477115631103515
0.5530803680419921,0.6583139419555664
0.5530803680419921,0.6583139419555664
0.5447845458984375,0.6592609405517578
0.5447845458984375,0.6592609405517578
0.5512693405151367,0.6590600967407226
0.5512693405151367,0.6590600967407226
0.5533327102661133,0.6674194335937500
0.5533327102661133,0.6674194335937500
0.5492425918579101,0.6591808319091796
0.5492425918579101,0.6591808319091796
0.5572311401367187,0.6676946640014648
0.5572311401367187,0.6676946640014648
0.5474676132202149,0.6664066314697266
0.5474676132202149,0.6664066314697266
0.5544347763061523,0.6641859054565430
0.5544347763061523,0.6641859054565430
0.5549938201904296,0.6707450866699218
0.5549938201904296,0.6707450866699218
0.5503040313720703,0.6612167358398438
0.5503040313720703,0.6612167358398438
0.5571664810180664,0.6688762664794922
0.5571664810180664,0.6688762664794922
0.5486011505126953,0.6670732498168945
0.5486011505126953,0.6670732498168945
0.5549097061157227,0.6649675369262695
0.5549097061157227,0.6649675369262695
0.5553915023803710,0.6718368530273438
0.5553915023803710,0.6718368530273438
0.5503229141235352,0.6629528045654297
0.5503229141235352,0.6629528045654297
0.5589248657226562,0.6715272903442383
0.5589248657226562,0.6715272903442383
0.5499938964843750,0.6702959060668945
0.5499938964843750,0.6752122879028321
0.5589500427246094,0.6683286666870117
0.5512001037597656,0.6681650161743163
0.5584379196166992,0.6681650161743163
0.5594873428344727,0.6726099014282226
0.5594873428344727,0.6726099014282226
0.5553159713745117,0.6769472122192383
0.5553159713745117,0.6769472122192383
0.5560186386108398,0.6719867706298828
0.5560186386108398,0.6719867706298828
0.5614969253540039,0.6808656692504883
0.5614969253540039,0.6808656692504883
0.5535461425781250,0.6730888366699218
0.5601785659790038,0.6730888366699218
0.5611724853515625,0.6740026473999023
0.5611724853515625,0.6740026473999023
0.5530317306518554,0.6708412170410156
0.5530317306518554,0.6708412170410156
0.5494857788085937,0.6544412612915039
0.5494857788085937,0.6544412612915039
0.5500734329223632,0.6539033889770508
0.5500734329223632,0.6539033889770508
0.5390516281127929,0.6389110565185546
0.5390516281127929,0.6389110565185546
0.5443433761596680,0.6378124237060546
0.5443433761596680,0.6378124237060546
0.5377332687377929,0.6376768112182617
0.5377332687377929,0.6376768112182617
0.5375862121582031,0.6296613693237304
0.5375862121582031,0.6296613693237304
0.5426307678222656,0.6376865386962890
0.5426307678222656,0.6376865386962890
0.5344997406005859,0.6305883407592773
0.5344997406005859,0.6305883407592773
0.5428396224975586,0.6346830368041992
0.5428396224975586,0.6346830368041992
0.5380004882812500,0.6389213562011719
0.5380004882812500,0.6389213562011719
0.5399082183837890,0.6342796325683594
0.5399082183837890,0.6342796325683594
0.5454734802246094,0.6453809738159180
0.5454734802246094,0.6453809738159180
0.5388113021850586,0.6397367477416992
0.5388113021850586,0.6397367477416992
0.5479076385498046,0.6466066360473632
0.5479076385498046,0.6466066360473632
0.5445041656494141,0.6528539657592773
0.5445041656494141,0.6528539657592773
0.5464078903198242,0.6498641967773438
0.5464078903198242,0.6498641967773438
0.5525321960449219,0.6608522415161132
0.5525321960449219,0.6608522415161132
0.5457996368408203,0.6555089950561523
0.5457996368408203,0.6555089950561523
0.5551065444946289,0.6615503311157226
0.5479740142822266,0.6615503311157226
0.5503200531005860,0.6664947509765625
0.5503200531005860,0.6664947509765625
0.5516635894775390,0.6607223510742187
0.5516635894775390,0.6607223510742187
0.5566852569580077,0.6699182510375976
0.5566852569580077,0.6699182510375976
0.5494903564453125,0.6622535705566406
0.5494903564453125,0.6622535705566406
0.5570480346679687,0.6668592453002929
0.5570480346679687,0.6668592453002929
0.5518592834472656,0.6690244674682617
0.5518592834472656,0.6690244674682617
0.5524108886718749,0.6624132156372070
0.5524108886718749,0.6624132156372070
0.5575973510742187,0.6709224700927734
0.5575973510742187,0.6709224700927734
0.5495950698852539,0.6631713867187500
0.5495950698852539,0.6631713867187500
0.5574777603149413,0.6670457839965820
0.5574777603149413,0.6670457839965820
0.5521602630615234,0.6699869155883789
0.5521602630615234,0.6699869155883789
0.5536050796508789,0.6642293930053711
0.5536050796508789,0.6642293930053711
0.5581392288208008,0.6738870620727538
0.5581392288208008,0.6738870620727538
0.5509180068969727,0.6659374237060547
0.5509180068969727,0.6659374237060547
0.5589998245239257,0.6711639404296875
0.5589998245239257,0.6711639404296875
0.5543312072753906,0.6747865676879883
0.5543312072753906,0.6747865676879883
0.5556026458740234,0.6701059341430664
0.5556026458740234,0.6701059341430664
0.5606855392456055,0.6793190002441406
0.5606855392456055,0.6793190002441406
0.5536354064941406,0.6719799041748047
0.5536354064941406,0.6719799041748047
0.5619564056396484,0.6766233444213867
0.5619564056396484,0.6766233444213867
0.5556970596313476,0.6777545928955078
0.5556970596313476,0.6777545928955078
0.5544759750366210,0.6652599334716797
0.5544759750366210,0.6652599334716797
0.5549068450927734,0.6641893386840820
0.5549068450927734,0.6641893386840820
0.5433334350585938,0.6462324142456054
0.5433334350585938,0.6462324142456054
0.5469766616821289,0.6431470870971679
0.5469766616821289,0.6431470870971679
0.5385601043701171,0.6392343521118163
0.5385601043701171,0.6392343521118163
0.5378688812255860,0.6294141769409179
0.5378688812255860,0.6294141769409179
0.5416522979736328,0.6358720779418945
0.5416522979736328,0.6358720779418945
0.5335498809814453,0.6268329620361328
0.5335498809814453,0.6268329620361328
0.5411172866821289,0.6308761596679687
0.5411172866821289,0.6308761596679687
0.5356195449829101,0.6334104537963867
0.5356195449829101,0.6334104537963867
0.5375164031982421,0.6282955169677734
0.5375164031982421,0.6282955169677734
0.5423732757568359,0.6386426925659180
0.5423732757568359,0.6386426925659180
0.5357488632202149,0.6313396453857422
0.5357488632202149,0.6313396453857422
0.5444137573242187,0.6383811950683593
0.5444137573242187,0.6383811950683593
0.5402463912963867,0.6432294845581055
0.5402463912963867,0.6432294845581055
0.5424207687377930,0.6405567169189453
0.5424207687377930,0.6405567169189453
0.5482847213745117,0.6514760971069335
0.5482847213745117,0.6514760971069335
0.5420053482055663,0.6456916809082031
0.5420053482055663,0.6456916809082031
0.5513265609741210,0.6531520843505859
0.5513265609741210,0.6531520843505859
0.5463266372680664,0.6579700469970703
0.5463266372680664,0.6579700469970703
0.5484106063842773,0.6533082962036133
0.5484106063842773,0.6533082962036133
0.5536943435668945,0.6632171630859375
0.5516092300415039,0.6632171630859375
0.5472261428833007,0.6554386138916015
0.5472261428833007,0.6554386138916015
0.5547626495361327,0.6612871170043945
0.5547626495361327,0.6612871170043945
0.5489982604980469,0.6628080368041992
0.5489982604980469,0.6628080368041992
0.5500144958496094,0.6563592910766601
0.5500144958496094,0.6563592910766601
0.5546190261840820,0.6645395278930664
0.5546190261840820,0.6645395278930664
0.5469108581542969,0.6555810928344726
0.5469108581542969,0.6555810928344726
0.5544656753540039,0.6598463058471680
0.5472496032714843,0.6598463058471680
0.5484403610229492,0.6616802215576172
0.5484403610229492,0.6616802215576172
0.5502874374389648,0.6560697555541992
0.5502874374389648,0.6560697555541992
0.5544633865356445,0.6651483535766601
0.5544633865356445,0.6651483535766601
0.5473033905029296,0.6560291290283203
0.5473033905029296,0.6560291290283203
0.5549852371215820,0.6616127014160156
0.5549852371215820,0.6616127014160156
0.5500814437866210,0.6646287918090820
0.5500814437866210,0.6646287918090820
0.5515239715576171,0.6598245620727539
0.5515239715576171,0.6598245620727539
0.5561542510986328,0.6686977386474610
0.5561542510986328,0.6686977386474610
0.5493238449096679,0.6607080459594726
0.5493238449096679,0.6607080459594726
0.5579326629638671,0.6674600601196289
0.5579326629638671,0.6674600601196289
0.5519771575927734,0.6701013565063476
0.5519771575927734,0.6701013565063476
0.5532960891723633,0.6627954483032227
0.5532960891723633,0.6627954483032227
0.5558383941650390,0.6672140121459961
0.5558383941650390,0.6672140121459961
0.5460056304931641,0.6507373809814453
0.5460056304931641,0.6507373809814453
0.5496322631835937,0.6483827590942383
0.5496322631835937,0.6483827590942383
0.5402486801147460,0.6422235488891601
0.5402486801147460,0.6422235488891601
0.5390161514282227,0.6307977676391602
0.5390161514282227,0.6307977676391602
0.5418457031250000,0.6360534667968750
0.5418457031250000,0.6360534667968750
0.5333965301513671,0.6249635696411132
0.5333965301513671,0.6249635696411132
0.5404661178588867,0.6287406921386719
0.5404661178588867,0.6287406921386719
0.5340030670166015,0.6298599243164062
0.5340030670166015,0.6298599243164062
0.5360441207885742,0.6241418838500976
0.5360441207885742,0.6241418838500976
0.5402154922485352,0.6337577819824218
0.5402154922485352,0.6337577819824218
0.5335006713867188,0.6251255035400390
0.5335006713867188,0.6251255035400390
0.5419652938842773,0.6322065353393554
0.5419652938842773,0.6322065353393554
0.5368995666503906,0.6357204437255859
0.5368995666503906,0.6357204437255859
0.5393199920654297,0.6324462890625000
0.5393199920654297,0.6324462890625000
0.5444995880126953,0.6430057525634766
0.5444995880126953,0.6430057525634766
0.5384983062744141,0.6366273880004882
0.5384983062744141,0.6366273880004882
0.5480203628540039,0.6451314926147461
0.5480203628540039,0.6451314926147461
0.5427555084228516,0.6497365951538085
0.5427555084228516,0.6497365951538085
0.5454706192016602,0.6457958221435547
0.5454706192016602,0.6457958221435547
0.5504367828369140,0.6563043594360352
0.5504367828369140,0.6563043594360352
0.5446260452270507,0.6487598419189453
0.5446260452270507,0.6487598419189453
0.5527021408081054,0.6562625885009765
0.5527021408081054,0.6562625885009765
0.5469451904296875,0.6581869125366211
0.5469451904296875,0.6581869125366211
0.5486961364746094,0.6529249191284180
0.5486961364746094,0.6529249191284180
0.5533401489257812,0.6615297317504882
0.5533401489257812,0.6615297317504882
0.5460594177246093,0.6527469635009765
0.5460594177246093,0.6527469635009765
0.5538562774658203,0.6578819274902343
0.5538562774658203,0.6578819274902343
0.5475093841552734,0.6592082977294922
0.5475093841552734,0.6592082977294922
0.5495704650878906,0.6536664962768555
0.5495704650878906,0.6536664962768555
0.5533441543579102,0.6627651214599609
0.5533441543579102,0.6627651214599609
0.5464988708496094,0.6532127380371093
0.5464988708496094,0.6532127380371093
0.5543672561645507,0.6596420288085937
0.5543672561645507,0.6596420288085937
0.5488929748535156,0.6616367340087891
0.5488929748535156,0.6616367340087891
0.5506702423095703,0.6574178695678711
0.5506702423095703,0.6574178695678711
0.5550270080566406,0.6662452697753906
0.5550270080566406,0.6662452697753906
0.5485673904418945,0.6580759048461914
0.5485673904418945,0.6580759048461914
0.5573627471923828,0.6652811050415038
0.5573627471923828,0.6652811050415038
0.5510782241821289,0.6682725906372070
0.5510782241821289,0.6682725906372070
0.5535192489624023,0.6633922576904296
0.5575693130493163,0.6721990585327148
0.5575693130493163,0.6721990585327148
0.5508058547973632,0.6616218566894531
0.5508058547973632,0.6616218566894531
0.5567516326904297,0.6635375976562500
0.5567516326904297,0.6635375976562500
0.5468255996704101,0.6565029144287109
0.5468255996704101,0.6565029144287109
0.5449275970458984,0.6426618576049804
0.5449275970458984,0.6426618576049804
0.5456668853759765,0.6436397552490234
0.5456668853759765,0.6436397552490234
0.5358736038208007,0.6294210433959960
0.5358736038208007,0.6294210433959960
0.5421947479248047,0.6314855575561523
0.5421947479248047,0.6314855575561523
0.5343767166137695,0.6308286666870117
0.5343767166137695,0.6308286666870117
0.5364709854125976,0.6245601654052734
0.5364709854125976,0.6245601654052734
0.5398933410644531,0.6331855773925781
0.5398933410644531,0.6331855773925781
0.5332180023193359,0.6237178802490234
0.5332180023193359,0.6237178802490234
0.5416168212890625,0.6306146621704102
0.5416168212890625,0.6306146621704102
0.5357837677001953,0.6331604003906249
0.5357837677001953,0.6331604003906249
0.5384416580200195,0.6300453186035156
0.5384416580200195,0.6300453186035156
0.5431617736816406,0.6399358749389649
0.5431617736816406,0.6399358749389649
0.5372188568115234,0.6333148956298827
0.5372188568115234,0.6333148956298827
0.5470825195312500,0.6422698974609374
0.5470825195312500,0.6422698974609374
0.5413902282714843,0.6469333648681640
0.5413902282714843,0.6469333648681640
0.5449001312255859,0.6441375732421875
0.5449001312255859,0.6441375732421875
0.5495492935180664,0.6550420761108399
0.5495492935180664,0.6503826141357422
0.5495492935180664,0.6505416870117188
0.5494113922119140,0.6584043502807617
0.5494113922119140,0.6584043502807617
0.5473045349121094,0.6516077041625976
0.5473045349121094,0.6516077041625976
0.5539918899536133,0.6615886688232422
0.5539918899536133,0.6615886688232422
0.5456834793090820,0.6578876495361328
0.5456834793090820,0.6578876495361328
0.5533510208129883,0.6585662841796874
0.5473600387573242,0.6585662841796874
0.5522747039794922,0.6646007537841797
0.5522747039794922,0.6646007537841797
0.5487419128417969,0.6560863494873047
0.5487419128417969,0.6560863494873047
0.5561788558959960,0.6644422531127929
0.5561788558959960,0.6644422531127929
0.5466590881347656,0.6595155715942382
0.5466590881347656,0.6595155715942382
0.5539999008178711,0.6597639083862304
0.5539999008178711,0.6597639083862304
0.5518604278564453,0.6652650833129883
0.5518604278564453,0.6652650833129883
0.5498119354248047,0.6571615219116210
0.5498119354248047,0.6571615219116210
0.5567527770996094,0.6658601760864258
0.5567527770996094,0.6658601760864258
0.5475671768188476,0.6617145538330078
0.5475671768188476,0.6617145538330078
0.5545440673828125,0.6627588272094727
0.5545440673828125,0.6627588272094727
0.5542167663574219,0.6692413330078125
0.5542167663574219,0.6692413330078125
0.5520206451416015,0.6618919372558594
0.5520206451416015,0.6618919372558594
0.5590227127075195,0.6716468811035156
0.5590227127075195,0.6716468811035156
0.5494005203247070,0.6681856155395508
0.5494005203247070,0.6681856155395508
0.5582033157348633,0.6698530197143554
0.5582033157348633,0.6698530197143554
0.5573301315307617,0.6764430999755859
0.5573301315307617,0.6764430999755859
0.5546979904174805,0.6680414199829101
0.5546979904174805,0.6680414199829101
0.5599153518676757,0.6738504409790039
0.5599153518676757,0.6738504409790039
0.5485702514648437,0.6626403808593749
0.5485702514648437,0.6626403808593749
0.5521230697631836,0.6535881042480468
0.5521230697631836,0.6535881042480468
0.5462385177612304,0.6502275466918945
0.5462385177612304,0.6502275466918945
0.5394744873046875,0.6345977783203125
0.5394744873046875,0.6345977783203125
0.5443016052246094,0.6378913879394531
0.5443016052246094,0.6378913879394531
0.5333192825317382,0.6301082611083985
0.5333192825317382,0.6301082611083985
0.5400878906250000,0.6289890289306640
0.5400878906250000,0.6289890289306640
0.5376056671142578,0.6339334487915039
0.5376056671142578,0.6339334487915039
0.5357465744018555,0.6259391784667968
0.5357465744018555,0.6259391784667968
0.5428579330444335,0.6349119186401367
0.5428579330444335,0.6349119186401367
0.5337970733642577,0.6315731048583985
0.5337970733642577,0.6315731048583985
0.5414308547973633,0.6335832595825195
0.5414308547973633,0.6335832595825195
0.5415012359619140,0.6412919998168946
0.5415012359619140,0.6412919998168946
0.5401594161987304,0.6357547760009765
0.5401594161987304,0.6357547760009765
0.5480575561523438,0.6472234725952148
0.5480575561523438,0.6472234725952148
0.5393852233886719,0.6457225799560546
0.5393852233886719,0.6457225799560546
0.5491659164428710,0.6493320465087891
0.5491659164428710,0.6493320465087891
0.5487945556640624,0.6576318740844727
0.5487945556640624,0.6576318740844727
0.5475156784057617,0.6522680282592773
0.5475156784057617,0.6522680282592773
0.5544313430786133,0.6626747131347656
0.5544313430786133,0.6626747131347656
0.5465875625610351,0.6599023818969726
0.5465875625610351,0.6599023818969726
0.5548816680908203,0.6616870880126953
0.5548816680908203,0.6616870880126953
0.5535461425781250,0.6680133819580077
0.5535461425781250,0.6680133819580077
0.5506748199462891,0.6603904724121094
0.5506748199462891,0.6603904724121094
0.5580986022949218,0.6689723968505860
0.5580986022949218,0.6689723968505860
0.5487854003906250,0.6640903472900390
0.5487854003906250,0.6640903472900390
0.5563104629516601,0.6644245147705078
0.5563104629516601,0.6644245147705078
0.5536279678344727,0.6695726394653320
0.5536279678344727,0.6695726394653320
0.5519027709960938,0.6612756729125976
0.5519027709960938,0.6612756729125976
0.5585266113281250,0.6697259902954101
0.5585266113281250,0.6697259902954101
0.5491539001464844,0.6650957107543946
0.5491539001464844,0.6650957107543946
0.5562664031982422,0.6661485671997071
0.5562664031982422,0.6661485671997071
0.5552999496459960,0.6721000671386719
0.5552999496459960,0.6721000671386719
0.5534694671630859,0.6648725509643555
0.5534694671630859,0.6648725509643555
0.5601493835449218,0.6740278244018555
0.5601493835449218,0.6740278244018555
0.5504671096801758,0.6701768875122071
0.5504671096801758,0.6701768875122071
0.5593677520751953,0.6720857620239258
0.5593677520751953,0.6720857620239258
0.5580945968627929,0.6786272048950195
0.5580945968627929,0.6786272048950195
0.5562475204467773,0.6719696044921875
0.5562475204467773,0.6719696044921875
0.5625411987304687,0.6812009811401367
0.5625411987304687,0.6812009811401367
0.5540737152099610,0.6765872955322265
0.5540737152099610,0.6765872955322265
0.5614671707153320,0.6753009796142578
0.5614671707153320,0.6753009796142578
0.5570354461669922,0.6747110366821288
0.5570354461669922,0.6747110366821288
0.5498891830444336,0.6567146301269531
0.5498891830444336,0.6567146301269531
0.5521007537841797,0.6543542861938476
0.5521007537841797,0.6543542861938476
0.5385475158691406,0.6407186508178710
0.5385475158691406,0.6407186508178710
0.5433116912841797,0.6350423812866210
0.5433116912841797,0.6350423812866210
0.5384994506835937,0.6363258361816406
0.5384994506835937,0.6363258361816406
0.5360567092895507,0.6264667510986328
0.5360567092895507,0.6264667510986328
0.5422456741333007,0.6338087081909179
0.5422456741333007,0.6338087081909179
0.5326852798461914,0.6289890289306640
0.5326852798461914,0.6289890289306640
0.5402383804321289,0.6301277160644531
0.5402383804321289,0.6301277160644531
0.5390401840209961,0.6364002227783203
0.5390401840209961,0.6364002227783203
0.5376451492309570,0.6301546096801758
0.5376451492309570,0.6301546096801758
0.5450208663940429,0.6403163909912110
0.5450208663940429,0.6403163909912110
0.5360790252685547,0.6378524780273437
0.5360790252685547,0.6378524780273437
0.5458539962768555,0.6415626525878906
0.5458539962768555,0.6415626525878906
0.5450059890747070,0.6498126983642578
0.5450059890747070,0.6498126983642578
0.5443668365478516,0.6452774047851563
0.5436458587646484,0.6452774047851563
0.5514266967773437,0.6562620162963867
0.5514266967773437,0.6562620162963867
0.5440092086791992,0.6538850784301757
0.5440092086791992,0.6538850784301757
0.5529418945312500,0.6570276260375977
0.5529418945312500,0.6570276260375977
0.5512922286987304,0.6639587402343750
0.5512922286987304,0.6639587402343750
0.5492340087890625,0.6574155807495117
0.5492340087890625,0.6574155807495117
0.5568025588989257,0.6663728713989258
0.5568025588989257,0.6663728713989258
0.5478899002075195,0.6617998123168946
0.5478899002075195,0.6617998123168946
0.5556924819946288,0.6628463745117187
0.5556924819946288,0.6628463745117187
0.5525264739990234,0.6678148269653320
0.5525264739990234,0.6678148269653320
0.5513677597045898,0.6601346969604492
0.5513677597045898,0.6601346969604492
0.5577838897705077,0.6679841995239257
0.5577838897705077,0.6679841995239257
0.5483974456787110,0.6630758285522461
0.5483974456787110,0.6630758285522461
0.5556461334228515,0.6640817642211914
0.5556461334228515,0.6640817642211914
0.5538957595825195,0.6693798065185547
0.5538957595825195,0.6693798065185547
0.5522443771362304,0.6621150970458984
0.5522443771362304,0.6621150970458984
0.5588121414184570,0.6708761215209961
0.5588121414184570,0.6708761215209961
0.5492071151733399,0.6665674209594726
0.5492071151733399,0.6665674209594726
0.5581678390502930,0.6685174942016602
0.5581678390502930,0.6685174942016602
0.5560403823852539,0.6747098922729492
0.5560403823852539,0.6747098922729492
0.5546779632568359,0.6683595657348632
0.5546779632568359,0.6683595657348632
0.5609836578369141,0.6776842117309571
0.5609836578369141,0.6776842117309571
0.5530529022216797,0.6740667343139648
0.5530529022216797,0.6740667343139648
0.5615730285644531,0.6761444091796874
0.5615730285644531,0.6761444091796874
0.5588344573974610,0.6810819625854492
0.5588344573974610,0.6810819625854492
0.5558160781860352,0.6710552215576172
0.5558160781860352,0.6710552215576172
0.5602861404418945,0.6724674224853515
0.5602861404418945,0.6724674224853515
0.5464176177978516,0.6567186355590821
0.5464176177978516,0.6567186355590821
0.5494199752807617,0.6471845626831054
0.5494199752807617,0.6471845626831054
0.5417707443237304,0.6433862686157227
0.5417707443237304,0.6433862686157227
0.5377527236938476,0.6297895431518554
0.5377527236938476,0.6297895431518554
0.5424837112426758,0.6341091156005859
0.5424837112426758,0.6341091156005859
0.5320873260498047,0.6270389556884766
0.5320873260498047,0.6270389556884766
0.5390081405639648,0.6271591186523438
0.5390081405639648,0.6271591186523438
0.5366907119750977,0.6320177078247070
0.5416448593139648,0.6320177078247070
0.5354375839233398,0.6251770019531250
0.5354375839233398,0.6251770019531250
0.5422468185424805,0.6342596054077149
0.5422468185424805,0.6342596054077149
0.5330652236938477,0.6307462692260742
0.5330652236938477,0.6307462692260742
0.5427297592163086,0.6340421676635742
0.5427297592163086,0.6340421676635742
0.5410411834716796,0.6416090011596679
0.5410411834716796,0.6416090011596679
0.5408042907714844,0.6374542236328125
0.5408042907714844,0.6374542236328125
0.5480014801025390,0.6488645553588867
0.5480014801025390,0.6488645553588867
0.5408969879150390,0.6471616744995117
0.5408969879150390,0.6471616744995117
0.5505186080932617,0.6515230178833008
0.5505186080932617,0.6515230178833008
0.5487333297729492,0.6591585159301757
0.5487333297729492,0.6591585159301757
0.5477428436279297,0.6540510177612304
0.5477428436279297,0.6540510177612304
0.5555963516235352,0.6638917922973633
0.5555963516235352,0.6638917922973633
0.5470670700073242,0.6600059509277344
0.5470670700073242,0.6600059509277344
0.5554029464721679,0.6618999481201172
0.5554029464721679,0.6618999481201172
0.5516853332519531,0.6668249130249023
0.5516853332519531,0.6668249130249023
0.5509311676025390,0.6590566635131836
0.5488838195800781,0.6590566635131836
0.5571435928344727,0.6667282104492187
0.5571435928344727,0.6667282104492187
0.5475305557250977,0.6608739852905273
0.5475305557250977,0.6608739852905273
0.5546396255493163,0.6613895416259765
0.5546396255493163,0.6613895416259765
0.5519062042236328,0.6657491683959961
0.5519062042236328,0.6657491683959961
0.5506525039672852,0.6581474304199219
0.5506525039672852,0.6581474304199219
0.5568243026733398,0.6662120819091797
0.5568243026733398,0.6662120819091797
0.5469663619995117,0.6611171722412109
0.5469663619995117,0.6611171722412109
0.5558755874633788,0.6626672744750977
0.5558755874633788,0.6626672744750977
0.5527770996093749,0.6679510116577149
0.5527770996093749,0.6679510116577149
0.5518289566040039,0.6613889694213867
0.5518289566040039,0.6613889694213867
0.5577129364013672,0.6701763153076171
0.5577129364013672,0.6701763153076171
0.5496740341186523,0.6658109664916992
0.5496740341186523,0.6658109664916992
0.5582645416259765,0.6680248260498046
0.5582645416259765,0.6680248260498046
0.5553165435791015,0.6740438461303710
0.5553165435791015,0.6740438461303710
0.5537715911865234,0.6670612335205078
0.5537715911865234,0.6670612335205078
0.5603765487670899,0.6738578796386718
0.5603765487670899,0.6738578796386718
0.5494651794433594,0.6635856628417969
0.5494651794433594,0.6635856628417969
0.5446083068847656,0.6470735549926757
0.5446083068847656,0.6470735549926757
0.5486961364746094,0.6441278457641602
0.5486961364746094,0.6441278457641602
0.5364749908447265,0.6362354278564453
0.5364749908447265,0.6362354278564453
0.5384588241577148,0.6277662277221679
0.5384588241577148,0.6277662277221679
0.5389640808105468,0.6311639785766602
0.5389640808105468,0.6311639785766602
0.5315345764160156,0.6200546264648438
0.5315345764160156,0.6200546264648438
0.5399608612060547,0.6256393432617188
0.5399608612060547,0.6256393432617188
0.5307998657226562,0.6256153106689453
0.5307998657226562,0.6256153106689453
0.5357671737670898,0.6216367721557617
0.5357671737670898,0.6216367721557617
0.5380937576293945,0.6295761108398438
0.5380937576293945,0.6295761108398438
0.5325908660888672,0.6217849731445312
0.5325908660888672,0.6217849731445312
0.5415533065795898,0.6302976608276367
0.5415533065795898,0.6302976608276367
0.5335985183715820,0.6314758300781250
0.5335985183715820,0.6314758300781250
0.5394264221191406,0.6304372787475586
0.5394264221191406,0.6304372787475586
0.5431549072265625,0.6405979156494140
0.5431549072265625,0.6405979156494140
0.5380640029907227,0.6351436614990235
0.5380640029907227,0.6351436614990235
0.5478023529052735,0.6442136764526367
0.5478023529052735,0.6442136764526367
0.5402927398681641,0.6467508316040039
0.5402927398681641,0.6467508316040039
0.5467792510986328,0.6456556320190430
0.5467792510986328,0.6456556320190430
0.5493844985961914,0.6554483413696289
0.5493844985961914,0.6554483413696289
0.5438014984130859,0.6470741271972656
0.5438014984130859,0.6470741271972656
0.5525825500488281,0.6544944763183593
0.5525825500488281,0.6544944763183593
0.5442272186279297,0.6542278289794922
0.5442272186279297,0.6542278289794922
0.5490663528442382,0.6510154724121093
0.5490663528442382,0.6510154724121093
0.5507131576538086,0.6568365097045898
0.5507131576538086,0.6568365097045898
0.5439914703369141,0.6467977523803711
0.5439914703369141,0.6467977523803711
0.5523399353027344,0.6525775909423828
0.5523399353027344,0.6525775909423828
0.5427709579467773,0.6519990921020508
0.5427709579467773,0.6519990921020508
0.5476947784423828,0.6475490570068360
0.5476947784423828,0.6475490570068360
0.5492265701293945,0.6546209335327148
0.5492265701293945,0.6546209335327148
0.5436916351318359,0.6456098556518555
0.5436916351318359,0.6456098556518555
0.5521036148071289,0.6533283233642578
0.5521036148071289,0.6533283233642578
0.5432430267333984,0.6529403686523437
0.5432430267333984,0.6529403686523437
0.5489524841308594,0.6504100799560547
0.5489524841308594,0.6504100799560547
0.5514942169189453,0.6585519790649413
0.5522294998168945,0.6585519790649413
0.5455575942993164,0.6511945724487305
0.5455575942993164,0.6511945724487305
0.5544141769409180,0.6583305358886719
0.5544141769409180,0.6583305358886719
0.5456542968750000,0.6589181900024413
0.5456542968750000,0.6589181900024413
0.5518404006958008,0.6561595916748046
0.5518404006958008,0.6561595916748046
0.5531301498413086,0.6631376266479492
0.5531301498413086,0.6631376266479492
0.5457378387451172,0.6495454788208007
0.5457378387451172,0.6495454788208007
0.5512384414672852,0.6494968414306640
0.5512384414672852,0.6494968414306640
0.5387128829956055,0.6411478042602539
0.5387128829956055,0.6411478042602539
0.5406251907348633,0.6312606811523437
0.5406251907348633,0.6312606811523437
0.5397148132324219,0.6325178146362305
0.5397148132324219,0.6325178146362305
0.5317852020263671,0.6200157165527344
0.5317852020263671,0.6200157165527344
0.5395139694213867,0.6244800567626952
0.5395139694213867,0.6244800567626952
0.5296829223632812,0.6232624053955078
0.5296829223632812,0.6232624053955078
0.5348413467407226,0.6189743041992187
0.5348413467407226,0.6189743041992187
0.5365493774414062,0.6260810852050781
0.5365493774414062,0.6260810852050781
0.5311511993408203,0.6175964355468749
0.5311511993408203,0.6175964355468749
0.5396993637084960,0.6260610580444336
0.5396993637084960,0.6260610580444336
0.5312335968017577,0.6264043807983398
0.5312335968017577,0.6264043807983398
0.5374082565307617,0.6251014709472656
0.5374082565307617,0.6251014709472656
0.5404890060424804,0.6345010757446289
0.5404890060424804,0.6345010757446289
0.5354970932006836,0.6285615921020508
0.5354970932006836,0.6285615921020508
0.5451147079467773,0.6377809524536132
0.5451147079467773,0.6377809524536132
0.5372051239013672,0.6400377273559570
0.5372051239013672,0.6400377273559570
0.5442993164062500,0.6394786834716797
0.5442993164062500,0.6394786834716797
0.5466693878173828,0.6494562149047851
0.5466693878173828,0.6494562149047851
0.5417118072509766,0.6416433334350585
0.5417118072509766,0.6416433334350585
0.5505489349365235,0.6499380111694336
0.5505489349365235,0.6499380111694336
0.5423864364624024,0.6503351211547851
0.5423864364624024,0.6503351211547851
0.5479408264160156,0.6481389999389648
0.5479408264160156,0.6481389999389648
0.5495819091796875,0.6546947479248046
0.5495819091796875,0.6546947479248046
0.5436492919921875,0.6452642440795898
0.5436492919921875,0.6452642440795898
0.5519651412963867,0.6518486022949218
0.5519651412963867,0.6518486022949218
0.5423017501831054,0.6509994506835938
0.5423017501831054,0.6509994506835938
0.5476043701171874,0.6467731475830077
0.5476043701171874,0.6467731475830077
0.5487161636352539,0.6532453536987305
0.5487161636352539,0.6532453536987305
0.5432996749877930,0.6437902450561523
0.5432996749877930,0.6437902450561523
0.5512018203735352,0.6513175964355469
0.5512018203735352,0.6513175964355469
0.5421375274658203,0.6502475738525391
0.5421375274658203,0.6502475738525391
0.5478887557983398,0.6473058700561524
0.5478887557983398,0.6473058700561524
0.5498605728149414,0.6550083160400391
0.5498605728149414,0.6550083160400391
0.5441791534423828,0.6470981597900390
0.5441791534423828,0.6470981597900390
0.5528188705444336,0.6544200897216796
0.5528188705444336,0.6544200897216796
0.5438438415527344,0.6546552658081054
0.5438438415527344,0.6546552658081054
0.5504831314086914,0.6525455474853515
0.5504831314086914,0.6525455474853515
0.5519657135009766,0.6611743927001953
0.5519657135009766,0.6611743927001953
0.5467872619628906,0.6522605895996093
0.5467872619628906,0.6522605895996093
0.5550075531005859,0.6591299057006835
0.5550075531005859,0.6591299057006835
0.5452342987060547,0.6557424545288085
0.5452342987060547,0.6557424545288085
0.5482978820800781,0.6473110198974609
0.5482978820800781,0.6473110198974609
0.5462316513061524,0.6462530136108399
0.5462316513061524,0.6462530136108399
0.5370889663696289,0.6296796798706055
0.5370889663696289,0.6296796798706055
0.5428796768188476,0.6310501098632812
0.5428796768188476,0.6310501098632812
0.5315311431884765,0.6267316818237304
0.5315311431884765,0.6267316818237304
0.5359479904174804,0.6207561492919922
0.5359479904174804,0.6207561492919922
0.5366392135620117,0.6263053894042968
0.5366392135620117,0.6263053894042968
0.5311151504516601,0.6167364120483398
0.5311151504516601,0.6167364120483398
0.5391134262084961,0.6244188308715820
0.5391134262084961,0.6244188308715820
0.5302299499511719,0.6237024307250977
0.5302299499511719,0.6237024307250977
0.5363222122192383,0.6217781066894531
0.5363222122192383,0.6217781066894531
0.5386196136474609,0.6300447463989257
0.5386196136474609,0.6300447463989257
0.5336774826049805,0.6231611251831054
0.5336774826049805,0.6231611251831054
0.5426822662353515,0.6321058273315430
0.5426822662353515,0.6321058273315430
0.5345552444458007,0.6334470748901367
0.5345552444458007,0.6334470748901367
0.5417026519775391,0.6327844619750976
0.5417026519775391,0.6327844619750976
0.5437660217285156,0.6427803039550781
0.5437660217285156,0.6427803039550781
0.5392061233520508,0.6351734161376953
0.5392061233520508,0.6351734161376953
0.5481616973876953,0.6444631576538086
0.5481616973876953,0.6444631576538086
0.5400369644165038,0.6450777053833008
0.5400369644165038,0.6450777053833008
0.5463552474975586,0.6439716339111328
0.5463552474975586,0.6439716339111328
0.5478052139282227,0.6510509490966797
0.5478052139282227,0.6510509490966797
0.5427394866943359,0.6422058105468750
0.5427394866943359,0.6422058105468750
0.5512722015380859,0.6497137069702148
0.5512722015380859,0.6497137069702148
0.5416402816772461,0.6491769790649414
0.5416402816772461,0.6491769790649414
0.5474699020385742,0.6453889846801758
0.5474699020385742,0.6453889846801758
0.5481433868408203,0.6518262863159180
0.5481433868408203,0.6518262863159180
0.5430707931518555,0.6421062469482421
0.5430707931518555,0.6421062469482421
0.5507308959960937,0.6498853683471679
0.5507308959960937,0.6498853683471679
0.5414045333862304,0.6479879379272461
0.5414045333862304,0.6479879379272461
0.5474109649658203,0.6454771041870117
0.5474109649658203,0.6454771041870117
0.5489433288574218,0.6527063369750976
0.5489433288574218,0.6527063369750976
0.5436527252197265,0.6447486877441406
0.5436527252197265,0.6447486877441406
0.5521133422851562,0.6523612976074219
0.5521133422851562,0.6523612976074219
0.5429935455322266,0.6524150848388671
0.5429935455322266,0.6524150848388671
0.5498628616333008,0.6510910034179688
0.5498628616333008,0.6510910034179688
0.5514404296875000,0.6599487304687500
0.5514404296875000,0.6599487304687500
0.5466619491577148,0.6513811111450195
0.5466619491577148,0.6513811111450195
0.5554183959960938,0.6603635787963867
0.5554183959960938,0.6603635787963867
0.5469572067260742,0.6605518341064452
0.5469572067260742,0.6605518341064452
0.5529951095581055,0.6587814331054688
0.5529951095581055,0.6587814331054688
0.5535078048706055,0.6630832672119140
0.5535078048706055,0.6630832672119140
0.5460222244262695,0.6484954833984374
0.5460222244262695,0.6484954833984374
0.5508613586425781,0.6478591918945312
0.5508613586425781,0.6478591918945312
0.5376216888427734,0.6390420913696289
0.5376216888427734,0.6390420913696289
0.5401433944702149,0.6287189483642578
0.5401433944702149,0.6287189483642578
0.5387598037719726,0.6307605743408203
0.5387598037719726,0.6307605743408203
0.5324254989624023,0.6184576034545898
0.5324254989624023,0.6184576034545898
0.5393005371093750,0.6246923446655274
0.5393005371093750,0.6246923446655274
0.5296091079711914,0.6218971252441406
0.5296091079711914,0.6218971252441406
0.5352836608886719,0.6189474105834961
0.5352836608886719,0.6189474105834961
0.5366752624511718,0.6259437561035156
0.5366752624511718,0.6259437561035156
0.5316936492919921,0.6178287506103516
0.5316936492919921,0.6178287506103516
0.5400283813476562,0.6258029937744141
0.5400283813476562,0.6258029937744141
0.5312959671020507,0.6257612228393554
0.5411893844604492,0.6257612228393554
0.5382356643676758,0.6246002197265624
0.5382356643676758,0.6246002197265624
0.5395671844482421,0.6336502075195313
0.5395671844482421,0.6336502075195313
0.5352327346801757,0.6256587982177734
0.5352327346801757,0.6256587982177734
0.5439805984497070,0.6353937149047851
0.5439805984497070,0.6353937149047851
0.5359811782836914,0.6360065460205078
0.5359811782836914,0.6360065460205078
0.5426427841186523,0.6356901168823242
0.5426427841186523,0.6356901168823242
0.5441345214843750,0.6432094573974609
0.5441345214843750,0.6432094573974609
0.5395980834960937,0.6348060607910156
0.5395980834960937,0.6348060607910156
0.5480895996093750,0.6429582595825195
0.5480895996093750,0.6429582595825195
0.5386734008789062,0.6423402786254883
0.5386734008789062,0.6423402786254883
0.5447444915771484,0.6388870239257812
0.5447444915771484,0.6388870239257812
0.5471139907836914,0.6403415679931640
0.5400289535522461,0.6403415679931640
0.5422084808349609,0.6435899734497070
0.5478652954101563,0.6435899734497070
0.5421117782592774,0.6365495681762695
0.5421117782592774,0.6365495681762695
0.5467437744140625,0.6446628570556641
0.5467437744140625,0.6446628570556641
0.5388530731201172,0.6379486083984375
0.5388530731201172,0.6379486083984375
0.5474384307861327,0.6408885955810547
0.5474384307861327,0.6408885955810547
0.5428316116333007,0.6450033187866211
0.5428316116333007,0.6450033187866211
0.5425397872924804,0.6389522552490234
0.5425397872924804,0.6389522552490234
0.5488265991210938,0.6480045318603516
0.5488265991210938,0.6480045318603516
0.5410160064697266,0.6421405792236328
0.5410160064697266,0.6421405792236328
0.5495115280151367,0.6460796356201172
0.5495115280151367,0.6460796356201172
0.5447147369384765,0.6508935928344727
0.5447147369384765,0.6508935928344727
0.5460651397705077,0.6456373214721679
0.5460651397705077,0.6456373214721679
0.5521156311035156,0.6553115844726562
0.5521156311035156,0.6553115844726562
0.5442678451538085,0.6497131347656250
0.5442678451538085,0.6497131347656250
0.5522008895874023,0.6535131454467773
0.5522008895874023,0.6535131454467773
0.5481880187988281,0.6572748184204101
0.5481880187988281,0.6572748184204101
0.5478315353393555,0.6484731674194336
0.5478315353393555,0.6484731674194336
0.5509552001953125,0.6515510559082031
0.5509552001953125,0.6515510559082031
0.5386711120605469,0.6370359420776367
0.5386711120605469,0.6370359420776367
0.5439914703369141,0.6323844909667968
0.5439914703369141,0.6323844909667968
0.5362283706665039,0.6297323226928710
0.5362283706665039,0.6297323226928710
0.5342857360839843,0.6190481185913086
0.5342857360839843,0.6190481185913086
0.5376348495483398,0.6246711730957031
0.5376348495483398,0.6246711730957031
0.5293024063110351,0.6162288665771484
0.5293024063110351,0.6162288665771484
0.5372795104980469,0.6186115264892578
0.5372795104980469,0.6186115264892578
0.5324449539184570,0.6224447250366211
0.5324449539184570,0.6224447250366211
0.5325136184692383,0.6164943695068359
0.5325136184692383,0.6164943695068359
0.5388519287109375,0.6261177062988281
0.5388519287109375,0.6261177062988281
0.5314407348632812,0.6206548690795898
0.5314407348632812,0.6206548690795898
0.5404357910156250,0.6259191513061523
0.5404357910156250,0.6259191513061523
0.5360595703125000,0.6320360183715820
0.5360595703125000,0.6320360183715820
0.5382184982299805,0.6284322738647461
0.5382184982299805,0.6284322738647461
0.5449121475219726,0.6399209976196288
0.5449121475219726,0.6399209976196288
0.5379215240478515,0.6357387542724610
0.5379215240478515,0.6357387542724610
0.5468393325805664,0.6415037155151367
0.5468393325805664,0.6415037155151367
0.5435686111450195,0.6474477767944335
0.5435686111450195,0.6474477767944335
0.5449264526367187,0.6427413940429687
0.5449264526367187,0.6427413940429687
0.5506433486938477,0.6525066375732421
0.5476896286010742,0.6525066375732421
0.5417558670043945,0.6456058502197265
0.5417558670043945,0.6456058502197265
0.5502628326416016,0.6474094390869141
0.5502628326416016,0.6474094390869141
0.5445579528808594,0.6494178771972656
0.5445579528808594,0.6494178771972656
0.5444332122802734,0.6414241790771484
0.5444332122802734,0.6414241790771484
0.5482938766479492,0.6480834960937499
0.5482938766479492,0.6480834960937499
0.5400552749633789,0.6397630691528320
0.5400552749633789,0.6397630691528320
0.5481874465942382,0.6425920486450195
0.5481874465942382,0.6425920486450195
0.5431829452514648,0.6463113784790039
0.5431829452514648,0.6463113784790039
0.5432435989379882,0.6398632049560546
0.5432435989379882,0.6398632049560546
0.5493095397949218,0.6491048812866210
0.5493095397949218,0.6491048812866210
0.5413032531738281,0.6422979354858398
0.5413032531738281,0.6422979354858398
0.5497060775756836,0.6459800720214843
0.5497060775756836,0.6459800720214843
0.5442249298095703,0.6497440338134766
0.5442249298095703,0.6497440338134766
0.5455078125000000,0.6437101364135742
0.5455078125000000,0.6437101364135742
0.5510673522949219,0.6528110504150391
0.5510673522949219,0.6528110504150391
0.5431051254272461,0.6461826324462890
0.5431051254272461,0.6461826324462890
0.5508831024169921,0.6502109527587890
0.5508831024169921,0.6502109527587890
0.5468725204467774,0.6543977737426757
0.5468725204467774,0.6543977737426757
0.5477016448974609,0.6487152099609375
0.5477016448974609,0.6487152099609375
0.5530403137207031,0.6572181701660156
0.5530403137207031,0.6572181701660156
0.5434953689575195,0.6475759506225586
0.5434953689575195,0.6475759506225586
0.5501432418823242,0.6456567764282226
0.5501432418823242,0.6456567764282226
0.5418634414672852,0.6417171478271484
0.5418634414672852,0.6417171478271484
0.5389926910400390,0.6280723571777344
0.5389926910400390,0.6280723571777344
0.5407196044921875,0.6309986114501953
0.5407196044921875,0.6309986114501953
0.5313360214233398,0.6195442199707031
0.5313360214233398,0.6195442199707031
0.5383695602416992,0.6205055236816406
0.5383695602416992,0.6205055236816406
0.5324472427368164,0.6222547531127930
0.5324472427368164,0.6222547531127930
0.5319402694702148,0.6149156570434570
0.5319402694702148,0.6149156570434570
0.5376468658447265,0.6232664108276367
0.5376468658447265,0.6232664108276367
0.5297389984130859,0.6160194396972656
0.5297389984130859,0.6160194396972656
0.5382368087768554,0.6203836441040039
0.5382368087768554,0.6203836441040039
0.5328666687011718,0.6246791839599609
0.5328666687011718,0.6246791839599609
0.5348379135131835,0.6197113037109375
0.5348379135131835,0.6197113037109375
0.5406394958496094,0.6301122665405273
0.5406394958496094,0.6301122665405273
0.5334468841552734,0.6245338439941406
0.5334468841552734,0.6245338439941406
0.5419664382934570,0.6303068161010742
0.5419664382934570,0.6303068161010742
0.5381298065185547,0.6353038787841797
0.5381298065185547,0.6353038787841797
0.5396324157714844,0.6304470062255859
0.5396324157714844,0.6304470062255859
0.5451307296752930,0.6403907775878906
0.5451307296752930,0.6403907775878906
0.5368801116943359,0.6334711074829101
0.5368801116943359,0.6334711074829101
0.5459564208984374,0.6378353118896484
0.5459564208984374,0.6378353118896484
0.5408512115478515,0.6411804199218750
0.5408512115478515,0.6411804199218750
0.5416105270385742,0.6347740173339843
0.5416105270385742,0.6347740173339843
0.5458391189575195,0.6430995941162109
0.5458391189575195,0.6430995941162109
0.5384605407714843,0.6350257873535156
0.5384605407714843,0.6350257873535156
0.5464748382568360,0.6384561538696288
0.5464748382568360,0.6384561538696288
0.5409484863281250,0.6412393569946289
0.5409484863281250,0.6412393569946289
0.5411893844604492,0.6346435546875000
0.5411893844604492,0.6346435546875000
0.5466579437255860,0.6435150146484375
0.5466579437255860,0.6435150146484375
0.5389217376708985,0.6358285903930664
0.5389217376708985,0.6358285903930664
0.5472702026367188,0.6402082443237305
0.5399734497070312,0.6402082443237305
0.5415767669677735,0.6438423156738281
0.5415767669677735,0.6438423156738281
0.5434478759765625,0.6384206771850586
0.5434478759765625,0.6384206771850586
0.5486658096313476,0.6479370117187500
0.5486658096313476,0.6479370117187500
0.5411699295043945,0.6413063049316406
0.5411699295043945,0.6413063049316406
0.5492374420166015,0.6462793350219727
0.5492374420166015,0.6462793350219727
0.5449705123901367,0.6506263732910156
0.5449705123901367,0.6506263732910156
0.5464897155761719,0.6456356048583984
0.5464897155761719,0.6456356048583984
0.5517992019653321,0.6554277420043945
0.5517992019653321,0.6554277420043945
0.5438890457153320,0.6486951828002929
0.5438890457153320,0.6486951828002929
0.5528961181640625,0.6532041549682617
0.5528961181640625,0.6532041549682617
0.5474298477172851,0.6548486709594726
0.5474298477172851,0.6548486709594726
0.5466745376586913,0.6444597244262695
0.5466745376586913,0.6444597244262695
0.5477125167846679,0.6458862304687499
0.5477125167846679,0.6458862304687499
0.5370031356811523,0.6302415847778320
0.5370031356811523,0.6302415847778320
0.5418628692626953,0.6274280548095703
0.5418628692626953,0.6274280548095703
0.5339349746704102,0.6254631042480469
0.5339349746704102,0.6254631042480469
0.5328243255615234,0.6159582138061523
0.5328243255615234,0.6159582138061523
0.5371570587158203,0.6225997924804687
0.5371570587158203,0.6225997924804687
0.5290843963623046,0.6135709762573242
0.5290843963623046,0.6135709762573242
0.5367696762084960,0.6175077438354492
0.5367696762084960,0.6175077438354492
0.5308954238891601,0.6204093933105469
0.5308954238891601,0.6204093933105469
0.5329256057739258,0.6151205062866211
0.5329256057739258,0.6151205062866211
0.5381921768188477,0.6248737335205078
0.5381921768188477,0.6248737335205078
0.5311866760253906,0.6183855056762695
0.5311866760253906,0.6183855056762695
0.5395694732666015,0.6247140884399414
0.5395694732666015,0.6247140884399414
0.5357465744018555,0.6300418853759765
0.5357465744018555,0.6300418853759765
0.5381149291992188,0.6266332626342773
0.5381149291992188,0.6266332626342773
0.5440063476562500,0.6381168365478516
0.5440063476562500,0.6381168365478516
0.5369791030883789,0.6327884674072265
0.5369791030883789,0.6327884674072265
0.5468227386474609,0.6398300170898438
0.5468227386474609,0.6398300170898438
0.5424694061279297,0.6449712753295899
0.5424694061279297,0.6449712753295899
0.5444761276245117,0.6409858703613281
0.5444761276245117,0.6409858703613281
0.5494543075561523,0.6512804031372070
0.5494543075561523,0.6512804031372070
0.5430604934692382,0.6447360992431640
0.5430604934692382,0.6447360992431640
0.5517248153686524,0.6500312805175781
0.5517248153686524,0.6500312805175781
0.5464771270751952,0.6536521911621094
0.5464771270751952,0.6536521911621094
0.5472547531127929,0.6477796554565429
0.5472547531127929,0.6477796554565429
0.5525625228881835,0.6566797256469726
0.5525625228881835,0.6566797256469726
0.5451307296752930,0.6486150741577148
0.5451307296752930,0.6486150741577148
0.5531610488891602,0.6530971527099609
0.5531610488891602,0.6530971527099609
0.5470350265502929,0.6558420181274414
0.5470350265502929,0.6558420181274414
0.5487825393676757,0.6497898101806641
0.5487825393676757,0.6497898101806641
0.5536628723144531,0.6589313507080078
0.5536628723144531,0.6589313507080078
0.5461166381835937,0.6511487960815430
0.5461166381835937,0.6511487960815430
0.5537607192993164,0.6562648773193359
0.5537607192993164,0.6562648773193359
0.5492065429687499,0.6596586227416992
0.5492065429687499,0.6596586227416992
0.5508218765258789,0.6545808792114257
0.5508218765258789,0.6545808792114257
0.5558767318725586,0.6645051956176757
0.5558767318725586,0.6645051956176757
0.5481742858886719,0.6575958251953125
0.5481742858886719,0.6575958251953125
0.5575401306152343,0.6636051177978516
0.5575401306152343,0.6636051177978516
0.5526111602783202,0.6677101135253906
0.5526111602783202,0.6677101135253906
0.5544267654418945,0.6628910064697265
0.5544267654418945,0.6628910064697265
0.5587469100952148,0.6721206665039062
0.5587469100952148,0.6721206665039062
0.5517242431640624,0.6630260467529296
0.5517242431640624,0.6630260467529296
0.5581970214843750,0.6636285781860352
0.5581970214843750,0.6636285781860352
0.5493736267089844,0.6580152511596680
0.5493736267089844,0.6580152511596680
0.5452617645263672,0.6415077209472656
0.5452617645263672,0.6415077209472656
0.5461120605468750,0.6410436630249023
0.5461120605468750,0.6410436630249023
0.5353815078735351,0.6257635116577148
0.5353815078735351,0.6257635116577148
0.5337272644042969,0.6191368103027344
0.5348379135131835,0.6191368103027344
0.5400192260742187,0.6260868072509765
0.5400192260742187,0.6260868072509765
0.5311386108398437,0.6226049423217773
0.5311386108398437,0.6226049423217773
0.5374689102172852,0.6223983764648438
0.5374689102172852,0.6223983764648438
0.5376571655273438,0.6292482376098633
0.5376571655273438,0.6292482376098633
0.5346147537231445,0.6215469360351562
0.5346147537231445,0.6215469360351562
0.5432344436645508,0.6320840835571289
0.5432344436645508,0.6320840835571289
0.5348476409912110,0.6322488784790039
0.5348476409912110,0.6322488784790039
0.5428293228149413,0.6336977005004882
0.5428293228149413,0.6336977005004882
0.5437911987304688,0.6435550689697266
0.5437911987304688,0.6435550689697266
0.5421352386474609,0.6379137039184570
0.5421352386474609,0.6379137039184570
0.5507366180419921,0.6504787445068360
0.5507366180419921,0.6504787445068360
0.5429380416870117,0.6498367309570312
0.5429380416870117,0.6498367309570312
0.5506353378295898,0.6512392044067382
0.5506353378295898,0.6512392044067382
0.5515159606933594,0.6593519210815429
0.5515159606933594,0.6593519210815429
0.5479997634887696,0.6517135620117187
0.5479997634887696,0.6517135620117187
0.5555826187133789,0.6599195480346679
0.5555826187133789,0.6599195480346679
0.5460577011108398,0.6563632965087890
0.5460577011108398,0.6563632965087890
0.5526998519897460,0.6542072296142578
0.5526998519897460,0.6542072296142578
0.5513019561767578,0.6595882415771485
0.5513019561767578,0.6595882415771485
0.5468267440795899,0.6477121353149414
0.5468267440795899,0.6477121353149414
0.5532995223999023,0.6545539855957031
0.5532995223999023,0.6545539855957031
0.5435686111450195,0.6497514724731445
0.5435686111450195,0.6497514724731445
0.5494073867797852,0.6482179641723632
0.5494073867797852,0.6482179641723632
0.5486806869506836,0.6533111572265625
0.5486806869506836,0.6533111572265625
0.5447044372558594,0.6437250137329101
0.5447044372558594,0.6437250137329101
0.5524938583374023,0.6523023605346679
0.5524938583374023,0.6523023605346679
0.5431211471557617,0.6501056671142578
0.5431211471557617,0.6501056671142578
0.5500534057617187,0.6490659713745117
0.5500534057617187,0.6490659713745117
0.5498451232910156,0.6560977935791016
0.5498451232910156,0.6560977935791016
0.5468484878540039,0.6477355957031250
0.5468484878540039,0.6477355957031250
0.5543409347534179,0.6578384399414062
0.5543409347534179,0.6578384399414062
0.5455421447753906,0.6547262191772460
0.5455421447753906,0.6547262191772460
0.5522941589355469,0.6545940399169922
0.5522941589355469,0.6545940399169922
0.5524148941040039,0.6610376358032226
0.5524148941040039,0.6610376358032226
0.5479688644409180,0.6503396987915039
0.5479688644409180,0.6503396987915039
0.5530969619750976,0.6530553817749023
0.5530969619750976,0.6530553817749023
0.5404872894287109,0.6421199798583984
0.5404872894287109,0.6421199798583984
0.5438598632812500,0.6333086013793945
0.5438598632812500,0.6333086013793945
0.5400501251220703,0.6336027145385742
0.5400501251220703,0.6336027145385742
0.5339572906494140,0.6190464019775390
0.5339572906494140,0.6190464019775390
0.5394910812377930,0.6244497299194336
0.5394910812377930,0.6244497299194336
0.5297830581665038,0.6192295074462890
0.5297830581665038,0.6192295074462890
0.5302345275878906,0.6148550033569335
0.5302345275878906,0.6145271301269531
0.5374786376953125,0.6196495056152344
0.5374786376953125,0.6196495056152344
0.5325988769531250,0.6224390029907226
0.5325988769531250,0.6224390029907226
0.5345329284667969,0.6173658370971680
0.5345329284667969,0.6173658370971680
0.5393669128417968,0.6275756835937499
0.5393669128417968,0.6275756835937499
0.5323717117309570,0.6205593109130859
0.5323717117309570,0.6205593109130859
0.5417449951171874,0.6280574798583984
0.5417449951171874,0.6280574798583984
0.5371873855590820,0.6328851699829101
0.5371873855590820,0.6328851699829101
0.5398321151733398,0.6299102783203124
0.5398321151733398,0.6299102783203124
0.5449876785278320,0.6415557861328125
0.5449876785278320,0.6415557861328125
0.5395814895629882,0.6356603622436523
0.5395814895629882,0.6356603622436523
0.5487791061401367,0.6434263229370117
0.5487791061401367,0.6434263229370117
0.5437946319580078,0.6476606369018555
0.5437946319580078,0.6476606369018555
0.5454168319702148,0.6431184768676758
0.5454168319702148,0.6431184768676758
0.5507669448852539,0.6528413772583007
0.5507669448852539,0.6528413772583007
0.5439771652221680,0.6444751739501953
0.5439771652221680,0.6444751739501953
0.5517625808715820,0.6499368667602539
0.5517625808715820,0.6499368667602539
0.5452932357788086,0.6518365859985351
0.5452932357788086,0.6518365859985351
0.5473480224609375,0.6453872680664062
0.5473480224609375,0.6453872680664062
0.5514421463012695,0.6535680770874023
0.5514421463012695,0.6535680770874023
0.5439376831054688,0.6441907882690430
0.5439376831054688,0.6441907882690430
0.5508848190307617,0.6491815567016601
0.5508848190307617,0.6491815567016601
0.5457378387451172,0.6513238906860351
0.5457378387451172,0.6513238906860351
0.5473096847534179,0.6456602096557617
0.5473096847534179,0.6456602096557617
0.5519113540649414,0.6550294876098632
0.5519113540649414,0.6550294876098632
0.5444303512573242,0.6468955993652343
0.5444303512573242,0.6468955993652343
0.5532348632812499,0.6533718109130859
0.5532348632812499,0.6533718109130859
0.5480712890625000,0.6568250656127930
0.5480712890625000,0.6568250656127930
0.5500682830810547,0.6523212432861328
0.5500682830810547,0.6523212432861328
0.5543895721435547,0.6625905990600586
0.5543895721435547,0.6625905990600586
0.5485462188720703,0.6553459167480469
0.5485462188720703,0.6553459167480469
0.5570777893066406,0.6622804641723633
0.5570777893066406,0.6622804641723633
0.5517013549804687,0.6654001235961914
0.5517013549804687,0.6654001235961914
0.5527359008789062,0.6589759826660156
0.5527359008789062,0.6589759826660156
0.5563922882080078,0.6641309738159179
0.5563922882080078,0.6641309738159179
0.5461933135986328,0.6472057342529297
0.5461933135986328,0.6472057342529297
0.5492408752441406,0.6423671722412109
0.5492408752441406,0.6423671722412109
0.5382854461669921,0.6349142074584960
0.5382854461669921,0.6349142074584960
0.5369470596313476,0.6217632293701172
0.5369470596313476,0.6217632293701172
0.5387935638427734,0.6256725311279296
0.5387935638427734,0.6256725311279296
0.5301429748535156,0.6136579513549805
0.5301429748535156,0.6136579513549805
0.5365459442138671,0.6174596786499024
0.5365459442138671,0.6174596786499024
0.5307975769042969,0.6184867858886719
0.5307975769042969,0.6184867858886719
0.5324529647827149,0.6124174118041992
0.5324529647827149,0.6124174118041992
0.5366174697875976,0.6214159011840820
0.5366174697875976,0.6214159011840820
0.5293727874755859,0.6130989074707031
0.5293727874755859,0.6130989074707031
0.5383123397827149,0.6199464797973633
0.5383123397827149,0.6199464797973633
0.5331081390380860,0.6236309051513672
0.5331081390380860,0.6236309051513672
0.5356058120727539,0.6199361801147460
0.5356058120727539,0.6199361801147460
0.5402469635009766,0.6308641433715820
0.5402469635009766,0.6308641433715820
0.5349420547485352,0.6243341445922851
0.5415418624877929,0.6243341445922851
0.5439388275146484,0.6324966430664062
0.5439388275146484,0.6324966430664062
0.5389497756958007,0.6367950439453125
0.5389497756958007,0.6367950439453125
0.5409971237182617,0.6330282211303710
0.5409971237182617,0.6330282211303710
0.5465108871459960,0.6434371948242187
0.5465108871459960,0.6434371948242187
0.5402864456176758,0.6358114242553711
0.5402864456176758,0.6358114242553711
0.5485336303710937,0.6426303863525390
0.5485336303710937,0.6426303863525390
0.5423589706420898,0.6452836990356445
0.5423589706420898,0.6452836990356445
0.5449058532714843,0.6398735046386719
0.5449058532714843,0.6398735046386719
0.5491888046264648,0.6486373901367187
0.5491888046264648,0.6486373901367187
0.5421100616455078,0.6393865585327149
0.5421100616455078,0.6393865585327149
0.5491481781005859,0.6449295043945312
0.5491481781005859,0.6449295043945312
0.5437288284301758,0.6466627120971680
0.5437288284301758,0.6466627120971680
0.5454208374023437,0.6407976150512695
0.5454208374023437,0.6407976150512695
0.5495389938354492,0.6494464874267578
0.5495389938354492,0.6494464874267578
0.5419080734252929,0.6404096603393554
0.5419080734252929,0.6404096603393554
0.5504201889038086,0.6464590072631836
0.5504201889038086,0.6464590072631836
0.5446346282958984,0.6487226486206055
0.5446346282958984,0.6487226486206055
0.5465366363525390,0.6435831069946288
0.5465366363525390,0.6435831069946288
0.5503561019897460,0.6528842926025390
0.5503561019897460,0.6528842926025390
0.5442432403564453,0.6444768905639648
0.5442432403564453,0.6444768905639648
0.5524915695190430,0.6513330459594726
0.5524915695190430,0.6513330459594726
0.5468559265136719,0.6542421340942383
0.5468559265136719,0.6542421340942383
0.5485113143920898,0.6496667861938477
0.5485113143920898,0.6496667861938477
0.5536394119262695,0.6593999862670898
0.5536394119262695,0.6593999862670898
0.5470275878906250,0.6503980636596679
0.5470275878906250,0.6503980636596679
0.5542797088623047,0.6543920516967773
0.5542797088623047,0.6543920516967773
0.5453584671020507,0.6505737304687500
0.5453584671020507,0.6505737304687500
0.5441574096679688,0.6370376586914063
0.5441574096679688,0.6370376586914063
0.5445190429687500,0.6375984191894531
0.5445190429687500,0.6375984191894531
0.5343755722045899,0.6217477798461913
0.5343755722045899,0.6217477798461913
0.5393291473388672,0.6229030609130859
0.5393291473388672,0.6229030609130859
0.5322217941284180,0.6217500686645507
0.5322217941284180,0.6217500686645507
0.5334148406982422,0.6144796371459961
0.5334148406982422,0.6144796371459961
0.5370225906372070,0.6224458694458007
0.5370225906372070,0.6224458694458007
0.5294986724853515,0.6132167816162110
0.5294986724853515,0.6132167816162110
0.5382293701171875,0.6199155807495117
0.5382293701171875,0.6199155807495117
0.5325107574462891,0.6226587295532227
0.5325107574462891,0.6226587295532227
0.5351194381713867,0.6185651779174804
0.5351194381713867,0.6185651779174804
0.5394144058227539,0.6292007446289062
0.5394144058227539,0.6292007446289062
0.5341941833496093,0.6224807739257813
0.5341941833496093,0.6224807739257813
0.5434747695922851,0.6314924240112304
0.5434747695922851,0.6314924240112304
0.5384056091308593,0.6362617492675781
0.5384056091308593,0.6362617492675781
0.5412397384643555,0.6338493347167968
0.5412397384643555,0.6338493347167968
0.5472124099731445,0.6454948425292969
0.5472124099731445,0.6454948425292969
0.5415704727172851,0.6388269424438476
0.5415704727172851,0.6388269424438476
0.5504516601562500,0.6472921371459961
0.5504516601562500,0.6472921371459961
0.5445470809936523,0.6507654190063477
0.5445470809936523,0.6507654190063477
0.5478361129760742,0.6466793060302735
0.5478361129760742,0.6466793060302735
0.5523622512817382,0.6565200805664062
0.5523622512817382,0.6565200805664062
0.5458156585693359,0.6479621887207031
0.5458156585693359,0.6479621887207031
0.5532972335815429,0.6544853210449219
0.5532972335815429,0.6544853210449219
0.5477457046508789,0.6562162399291992
0.5551546096801757,0.6562162399291992
0.5498210906982421,0.6509262084960937
0.5498210906982421,0.6509262084960937
0.5536811828613281,0.6595407485961914
0.5536811828613281,0.6595407485961914
0.5462968826293945,0.6501840591430664
0.5462968826293945,0.6501840591430664
0.5548456192016601,0.6566024780273437
0.5479974746704102,0.6566024780273437
0.5486761093139648,0.6583923339843750
0.5558916091918945,0.6583923339843750
0.5509265899658203,0.6534410476684570
0.5509265899658203,0.6534410476684570
0.5543403625488281,0.6624927520751953
0.5543403625488281,0.6624927520751953
0.5483545303344727,0.6536733627319335
0.5483545303344727,0.6536733627319335
0.5564861297607422,0.6603075027465820
0.5564861297607422,0.6603075027465820
0.5503074645996093,0.6625820159912109
0.5503074645996093,0.6625820159912109
0.5521522521972656,0.6579145431518555
0.5521522521972656,0.6579145431518555
0.5570291519165039,0.6675653457641602
0.5570291519165039,0.6675653457641602
0.5506187438964844,0.6594343185424805
0.5506187438964844,0.6594343185424805
0.5590375900268555,0.6666469573974609
0.5590375900268555,0.6666469573974609
0.5523113250732422,0.6687458038330077
0.5523113250732422,0.6687458038330077
0.5549320220947266,0.6627914428710937
0.5549320220947266,0.6627914428710937
0.5578399658203125,0.6684396743774413
0.5578399658203125,0.6684396743774413
0.5482503890991210,0.6525295257568359
0.5482503890991210,0.6525295257568359
0.5514192581176758,0.6490951538085937
0.5514192581176758,0.6490951538085937
0.5411115646362304,0.6409435272216797
0.5411115646362304,0.6409435272216797
0.5396089553833008,0.6275064468383789
0.5396089553833008,0.6275064468383789
0.5405708312988281,0.6306461334228516
0.5405708312988281,0.6306461334228516
0.5315477371215820,0.6181222915649414
0.5315477371215820,0.6181222915649414
0.5393737792968750,0.6228200912475585
0.5393737792968750,0.6228200912475585
0.5327007293701171,0.6238420486450195
0.5327007293701171,0.6238420486450195
0.5348356246948242,0.6185806274414062
0.5348356246948242,0.6185806274414062
0.5384576797485351,0.6278131484985351
0.5384576797485351,0.6278131484985351
0.5327774047851562,0.6199035644531250
0.5327774047851562,0.6199035644531250
0.5416425704956055,0.6279916763305664
0.5416425704956055,0.6279916763305664
0.5360733032226562,0.6316423416137695
0.5360733032226562,0.6316423416137695
0.5388061523437500,0.6288848876953125
0.5388061523437500,0.6288848876953125
0.5445138931274414,0.6403198242187500
0.5445138931274414,0.6403198242187500
0.5389623641967773,0.6339511871337891
0.5389623641967773,0.6339511871337891
0.5482973098754883,0.6429605484008789
0.5482973098754883,0.6429605484008789
0.5422771453857421,0.6467199325561523
0.5422771453857421,0.6467199325561523
0.5460456848144531,0.6433027267456054
0.5460456848144531,0.6433027267456054
0.5505918502807617,0.6533792495727538
0.5505918502807617,0.6533792495727538
0.5442815780639648,0.6451824188232421
0.5442815780639648,0.6451824188232421
0.5520423889160156,0.6519464492797852
0.5520423889160156,0.6519464492797852
0.5461904525756835,0.6533283233642578
0.5461904525756835,0.6533283233642578
0.5482709884643554,0.6477407455444336
0.5482709884643554,0.6477407455444336
0.5518913269042969,0.6554758071899414
0.5518913269042969,0.6554758071899414
0.5440057754516602,0.6452281951904296
0.5440057754516602,0.6452281951904296
0.5522089004516602,0.6504701614379883
0.5522089004516602,0.6504701614379883
0.5451375961303710,0.6506618499755860
0.5451375961303710,0.6506618499755860
0.5468593597412109,0.6444065093994140
0.5468593597412109,0.6444065093994140
0.5496912002563477,0.6522920608520507
0.5496912002563477,0.6522920608520507
0.5434352874755859,0.6425153732299804
0.5434352874755859,0.6425153732299804
0.5512979507446288,0.6486825942993164
0.5512979507446288,0.6486825942993164
0.5446775436401367,0.6499591827392578
0.5446775436401367,0.6499591827392578
0.5463993072509765,0.6446010589599609
0.5463993072509765,0.6446010589599609
0.5509906768798828,0.6534822463989257
0.5509906768798828,0.6534822463989257
0.5443222045898437,0.6445323944091796
0.5443222045898437,0.6445323944091796
0.5526140213012695,0.6514543533325196
0.5526140213012695,0.6514543533325196
0.5455793380737305,0.6530193328857422
0.5455793380737305,0.6530193328857422
0.5483470916748047,0.6474472045898437
0.5483470916748047,0.6474472045898437
0.5513963699340820,0.6537563323974609
0.5513963699340820,0.6537563323974609
0.5424304962158203,0.6391468048095703
0.5424304962158203,0.6391468048095703
0.5466459274291992,0.6380578994750976
0.5466459274291992,0.6380578994750976
0.5370941162109375,0.6316732406616211
0.5370941162109375,0.6316732406616211
0.5362878799438476,0.6196832656860352
0.5362878799438476,0.6196832656860352
0.5375524520874023,0.6234066009521484
0.5375524520874023,0.6234066009521484
0.5285202026367187,0.6106189727783203
0.5285202026367187,0.6106189727783203
0.5361705780029297,0.6148635864257812
0.5361705780029297,0.6148635864257812
0.5289052963256836,0.6146793365478516
0.5289052963256836,0.6146793365478516
0.5309022903442383,0.6087495803833007
0.5309022903442383,0.6087495803833007
0.5339950561523438,0.6173360824584960
0.5339950561523438,0.6173360824584960
0.5281185150146485,0.6084966659545898
0.5281185150146485,0.6084966659545898
0.5367633819580078,0.6159341812133788
0.5367633819580078,0.6159341812133788
0.5305784225463867,0.6185079574584961
0.5305784225463867,0.6185079574584961
0.5330320358276367,0.6151193618774414
0.5330320358276367,0.6151193618774414
0.5383255004882812,0.6259437561035156
0.5383255004882812,0.6259437561035156
0.5327030181884765,0.6190710067749023
0.5327030181884765,0.6190710067749023
0.5420036315917969,0.6282417297363281
0.5420036315917969,0.6282417297363281
0.5360527038574219,0.6321544647216797
0.5360527038574219,0.6321544647216797
0.5400787353515625,0.6293071746826172
0.5400787353515625,0.6293071746826172
0.5448583602905274,0.6398374557495117
0.5448583602905274,0.6398374557495117
0.5386430740356445,0.6318780899047851
0.5386430740356445,0.6318780899047851
0.5467065811157227,0.6391908645629882
0.5467065811157227,0.6391908645629882
0.5407905578613281,0.6406620025634765
0.5407905578613281,0.6406620025634765
0.5431446075439453,0.6353307723999023
0.5431446075439453,0.6353307723999023
0.5464925765991211,0.6433290481567383
0.5464925765991211,0.6433290481567383
0.5389085769653320,0.6330963134765625
0.5389085769653320,0.6330963134765625
0.5472312927246094,0.6386735916137695
0.5472312927246094,0.6386735916137695
0.5401073455810547,0.6390535354614257
0.5401073455810547,0.6390535354614257
0.5421884536743163,0.6333354949951172
0.5421884536743163,0.6333354949951172
0.5450895309448242,0.6413709640502929
0.5450895309448242,0.6413709640502929
0.5387981414794921,0.6318689346313476
0.5387981414794921,0.6318689346313476
0.5471076965332031,0.6384784698486328
0.5471076965332031,0.6384784698486328
0.5404163360595703,0.6398740768432617
0.5404163360595703,0.6398740768432617
0.5423137664794921,0.6351579666137696
0.5423137664794921,0.6351579666137696
0.5468324661254883,0.6438428878784179
0.5468324661254883,0.6438428878784179
0.5405170440673828,0.6353307723999023
0.5405170440673828,0.6353307723999023
0.5489318847656249,0.6426904678344726
0.5489318847656249,0.6426904678344726
0.5417398452758789,0.6444150924682617
0.5417398452758789,0.6444150924682617
0.5451919555664062,0.6400451660156250
0.5451919555664062,0.6400451660156250
0.5489627838134765,0.6489274978637695
0.5489627838134765,0.6489274978637695
0.5421518325805664,0.6387977600097656
0.5421518325805664,0.6387977600097656
0.5483648300170898,0.6417406082153320
0.5483648300170898,0.6417406082153320
0.5394670486450195,0.6367858886718750
0.5394670486450195,0.6367858886718750
0.5386699676513672,0.6241922378540039
0.5386699676513672,0.6241922378540039
0.5388227462768554,0.6255300521850585
0.5388227462768554,0.6255300521850585
0.5286518096923828,0.6105909347534180
0.5330612182617187,0.6105909347534180
0.5355045318603515,0.6131023406982422
0.5277545928955077,0.6131023406982422
0.5273328781127929,0.6114961624145507
0.5273328781127929,0.6114961624145507
0.5288732528686523,0.6046119689941406
0.5288732528686523,0.6046119689941406
0.5315546035766602,0.6118944168090820
0.5315546035766602,0.6118944168090820
0.5251356124877929,0.6021595001220703
0.5251356124877929,0.6021595001220703
0.5335424423217773,0.6090826034545899
0.5335424423217773,0.6090826034545899
0.5269163131713867,0.6108816146850585
0.5269163131713867,0.6108816146850585
0.5294071197509765,0.6068836212158203
0.5294071197509765,0.6068836212158203
0.5341609954833985,0.6168371200561523
0.5341609954833985,0.6168371200561523
0.5283679962158203,0.6093841552734375
0.5283679962158203,0.6093841552734375
0.5376211166381836,0.6181715011596679
0.5376211166381836,0.6181715011596679
0.5311277389526367,0.6214691162109375
0.5311277389526367,0.6214691162109375
0.5353054046630860,0.6188152313232421
0.5353054046630860,0.6188152313232421
0.5400558471679687,0.6293666839599609
0.5400558471679687,0.6293666839599609
0.5340642929077148,0.6216871261596679
0.5340642929077148,0.6216871261596679
0.5424161911010742,0.6296493530273437
0.5424161911010742,0.6296493530273437
0.5365121841430663,0.6316829681396484
0.5365121841430663,0.6316829681396484
0.5393857955932617,0.6271751403808593
0.5393857955932617,0.6271751403808593
0.5431097030639648,0.6359384536743163
0.5431097030639648,0.6359384536743163
0.5357643127441406,0.6263042449951172
0.5357643127441406,0.6263042449951172
0.5446403503417968,0.6326631546020508
0.5446403503417968,0.6326631546020508
0.5374368667602539,0.6333503723144531
0.5374368667602539,0.6333503723144531
0.5398309707641601,0.6280185699462890
0.5398309707641601,0.6280185699462890
0.5426828384399414,0.6361816406249999
0.5426828384399414,0.6361816406249999
0.5365533828735352,0.6267654418945312
0.5365533828735352,0.6267654418945312
0.5449327468872071,0.6336238861083984
0.5449327468872071,0.6336238861083984
0.5380336761474609,0.6351104736328125
0.5380336761474609,0.6351104736328125
0.5404300689697266,0.6307645797729492
0.5404300689697266,0.6307645797729492
0.5449087142944335,0.6398912429809570
0.5449087142944335,0.6398912429809570
0.5386693954467773,0.6313785552978516
0.5386693954467773,0.6313785552978516
0.5473611831665038,0.6392652511596679
0.5473611831665038,0.6392652511596679
0.5401868820190430,0.6413183212280273
0.5401868820190430,0.6413183212280273
0.5440114974975586,0.6376476287841797
0.5440114974975586,0.6376476287841797
0.5480890274047852,0.6473213195800781
0.5480890274047852,0.6473213195800781
0.5419052124023437,0.6391090393066406
0.5419052124023437,0.6391090393066406
0.5500305175781249,0.6462358474731446
0.5500305175781249,0.6462358474731446
0.5433769226074219,0.6467554092407226
0.5433769226074219,0.6467554092407226
0.5450649261474609,0.6386501312255859
0.5450649261474609,0.6386501312255859
0.5458728790283203,0.6406230926513672
0.5458728790283203,0.6406230926513672
0.5348728179931640,0.6232097625732421
0.5348728179931640,0.6232097625732421
0.5402755737304688,0.6222318649291992
0.5402755737304688,0.6222318649291992
0.5301069259643555,0.6171792984008789
0.5301069259643555,0.6171792984008789
0.5307146072387695,0.6081493377685546
0.5307146072387695,0.6081493377685546
0.5322727203369141,0.6136030197143555
0.5322727203369141,0.6136030197143555
0.5252592086791992,0.6024375915527344
0.5252592086791992,0.6024375915527344
0.5332031250000000,0.6079021453857422
0.5332031250000000,0.6079021453857422
0.5257724761962891,0.6086328506469726
0.5257724761962891,0.6086328506469726
0.5279668807983399,0.6039522171020507
0.5279668807983399,0.6039522171020507
0.5322921752929687,0.6130451202392578
0.5322921752929687,0.6130451202392578
0.5262125015258788,0.6047990798950195
0.5318635940551758,0.6047990798950195
0.5293035507202148,0.6129489898681640
0.5293035507202148,0.6075622558593750
0.5285350799560546,0.6158632278442383
0.5366649627685547,0.6158632278442383
0.5327510833740234,0.6134256362915039
0.5327510833740234,0.6134256362915039
0.5374271392822265,0.6240171432495117
0.5374271392822265,0.6240171432495117
0.5317308425903320,0.6170345306396484
0.5317308425903320,0.6170345306396484
0.5405639648437500,0.6258058547973633
0.5405639648437500,0.6258058547973633
0.5347692489624023,0.6285936355590820
0.5347692489624023,0.6285936355590820
0.5384050369262695,0.6253292083740234
0.5384050369262695,0.6253292083740234
0.5424173355102538,0.6348489761352539
0.5424173355102538,0.6348489761352539
0.5354810714721679,0.6260484695434571
0.5354810714721679,0.6260484695434571
0.5446472167968750,0.6331134796142578
0.5446472167968750,0.6331134796142578
0.5376274108886718,0.6339860916137695
0.5376274108886718,0.6339860916137695
0.5401926040649414,0.6290834426879882
0.5401926040649414,0.6290834426879882
0.5429283142089844,0.6369283676147460
0.5429283142089844,0.6369283676147460
0.5367839813232421,0.6274269104003906
0.5367839813232421,0.6274269104003906
0.5449905395507812,0.6337932586669922
0.5449905395507812,0.6337932586669922
0.5378385543823242,0.6349119186401367
0.5378385543823242,0.6349119186401367
0.5402126312255859,0.6303039550781250
0.5402126312255859,0.6303039550781250
0.5444274902343750,0.6391153335571289
0.5444274902343750,0.6391153335571289
0.5381578445434571,0.6303674697875976
0.5381578445434571,0.6303674697875976
0.5468038558959961,0.6377311706542969
0.5468038558959961,0.6377311706542969
0.5393051147460938,0.6396503448486328
0.5393051147460938,0.6396503448486328
0.5433048248291016,0.6362331390380859
0.5433048248291016,0.6362331390380859
0.5473348617553710,0.6458684921264648
0.5473348617553710,0.6458684921264648
0.5412448883056641,0.6379177093505859
0.5412448883056641,0.6379177093505859
0.5497135162353516,0.6459274291992188
0.5497135162353516,0.6459274291992188
0.5435880661010742,0.6482597351074219
0.5435880661010742,0.6482597351074219
0.5470882415771484,0.6444574356079101
0.5470882415771484,0.6444574356079101
0.5505529403686523,0.6527223587036133
0.5505529403686523,0.6527223587036133
0.5425666809082031,0.6408428192138672
0.5425666809082031,0.6408428192138672
0.5489942550659179,0.6413635253906250
0.5489942550659179,0.6413635253906250
0.5378053665161132,0.6335197448730469
0.5378053665161132,0.6335197448730469
0.5366672515869141,0.6202434539794922
0.5366672515869141,0.6202434539794922
0.5360515594482421,0.6213415145874023
0.5360515594482421,0.6213415145874023
0.5275262832641602,0.6071525573730469
0.5275262832641602,0.6071525573730469
0.5343767166137695,0.6106092453002929
0.5343767166137695,0.6106092453002929
0.5260700225830078,0.6096639633178711
0.5260700225830078,0.6096639633178711
0.5279268264770508,0.6040042877197266
0.5279268264770508,0.6040042877197266
0.5318412780761719,0.6120792388916015
0.5318412780761719,0.6120792388916015
0.5254234313964844,0.6031820297241210
0.5254234313964844,0.6031820297241210
0.5342966079711914,0.6106355667114257
0.5342966079711914,0.6106355667114257
0.5269535064697265,0.6127561569213867
0.5269535064697265,0.6127561569213867
0.5311477661132812,0.6099569320678710
0.5311477661132812,0.6099569320678710
0.5357322692871094,0.6202514648437499
0.5357322692871094,0.6202514648437499
0.5299884796142578,0.6132940292358399
0.5299884796142578,0.6132940292358399
0.5388994216918945,0.6221832275390625
0.5388994216918945,0.6221832275390625
0.5331298828125000,0.6251552581787109
0.5331298828125000,0.6251552581787109
0.5370815277099609,0.6226049423217773
0.5370815277099609,0.6226049423217773
0.5411230087280273,0.6323335647583007
0.5411230087280273,0.6323335647583007
0.5346422195434570,0.6242563247680664
0.5346422195434570,0.6242563247680664
0.5440206527709961,0.6317876815795899
0.5440206527709961,0.6317876815795899
0.5368721008300781,0.6329298019409180
0.5448091506958007,0.6329298019409180
0.5400066375732422,0.6285135269165039
0.5400066375732422,0.6285135269165039
0.5426897048950196,0.6366090774536133
0.5426897048950196,0.6366090774536133
0.5365007400512695,0.6268100738525391
0.5365007400512695,0.6268100738525391
0.5446769714355468,0.6330390930175781
0.5446769714355468,0.6330390930175781
0.5370403289794922,0.6333612442016602
0.5370403289794922,0.6333612442016602
0.5394081115722656,0.6283779144287109
0.5394081115722656,0.6283779144287109
0.5432550430297851,0.6365369796752930
0.5432550430297851,0.6365369796752930
0.5367519378662109,0.6273273468017578
0.5367519378662109,0.6273273468017578
0.5451341629028320,0.6342058181762695
0.5451341629028320,0.6342058181762695
0.5372011184692382,0.6351911544799804
0.5372011184692382,0.6351911544799804
0.5411521911621093,0.6312789916992188
0.5411521911621093,0.6312789916992188
0.5446741104125976,0.6400382995605468
0.5446741104125976,0.6400382995605468
0.5385091781616210,0.6317390441894531
0.5385091781616210,0.6317390441894531
0.5467672348022461,0.6393791198730469
0.5467672348022461,0.6393791198730469
0.5403390884399414,0.6411678314208984
0.5403390884399414,0.6411678314208984
0.5439010620117187,0.6376390457153320
0.5439010620117187,0.6376390457153320
0.5475265502929687,0.6469419479370117
0.5475265502929687,0.6469419479370117
0.5406875610351562,0.6383543014526367
0.5406875610351562,0.6383543014526367
0.5499149322509765,0.6450679779052734
0.5499149322509765,0.6450679779052734
0.5419898986816406,0.6442485809326172
0.5419898986816406,0.6442485809326172
0.5434976577758789,0.6359813690185546
0.5434976577758789,0.6359813690185546
0.5436246871948242,0.6381248474121094
0.5436246871948242,0.6381248474121094
0.5345043182373047,0.6221237182617188
0.5345043182373047,0.6221237182617188
0.5399002075195313,0.6222827911376952
0.5399002075195313,0.6222827911376952
0.5298414230346680,0.6178819656372070
0.5298414230346680,0.6178819656372070
0.5305835723876953,0.6096828460693359
0.5305835723876953,0.6096828460693359
0.5333330154418945,0.6157424926757812
0.5333330154418945,0.6157424926757812
0.5262720108032226,0.6055194854736328
0.5262720108032226,0.6055194854736328
0.5346010208129882,0.6119716644287109
0.5346010208129882,0.6119716644287109
0.5266691207885742,0.6129346847534179
0.5266691207885742,0.6129346847534179
0.5308788299560546,0.6095003128051758
0.5308788299560546,0.6095003128051758
0.5348974227905273,0.6191282272338867
0.5348974227905273,0.6191282272338867
0.5289579391479492,0.6116575241088867
0.5289579391479492,0.6116575241088867
0.5379592895507812,0.6206817626953125
0.5379592895507812,0.6206817626953125
0.5323041915893555,0.6242362976074218
0.5323041915893555,0.6242362976074218
0.5367593765258789,0.6226718902587890
0.5367593765258789,0.6226718902587890
0.5413513183593750,0.6337051391601562
0.5413513183593750,0.6337051391601562
0.5354404449462891,0.6270561218261719
0.5354404449462891,0.6270561218261719
0.5456090927124023,0.6362274169921874
0.5456090927124023,0.6362274169921874
0.5390756607055663,0.6389202117919922
0.5390756607055663,0.6389202117919922
0.5429031372070312,0.6361106872558594
0.5429031372070312,0.6361106872558594
0.5462677001953125,0.6451663970947266
0.5462677001953125,0.6451663970947266
0.5405399322509765,0.6365261077880859
0.5405399322509765,0.6365261077880859
0.5491550445556640,0.6433050155639648
0.5491550445556640,0.6433050155639648
0.5416740417480469,0.6438543319702148
0.5416740417480469,0.6438543319702148
0.5440698623657226,0.6389390945434570
0.5440698623657226,0.6389390945434570
0.5476421356201172,0.6465322494506835
0.5476421356201172,0.6465322494506835
0.5409965515136719,0.6370073318481445
0.5409965515136719,0.6370073318481445
0.5493255615234375,0.6436294555664063
0.5493255615234375,0.6436294555664063
0.5412054061889648,0.6441781997680663
0.5412054061889648,0.6441781997680663
0.5449499130249024,0.6399959564208985
0.5449499130249024,0.6399959564208985
0.5484334945678710,0.6485830307006836
0.5484334945678710,0.6485830307006836
0.5420608520507812,0.6399221420288086
0.5420608520507812,0.6399221420288086
0.5503583908081054,0.6474597930908202
0.5503583908081054,0.6474597930908202
0.5437831878662109,0.6491769790649414
0.5437831878662109,0.6491769790649414
0.5476112365722656,0.6461128234863281
0.5476112365722656,0.6461128234863281
0.5513866424560546,0.6557704925537109
0.5513866424560546,0.6557704925537109
0.5450082778930664,0.6479364395141601
0.5450082778930664,0.6479364395141601
0.5547346115112305,0.6563455581665039
0.5547346115112305,0.6563455581665039
0.5479173660278320,0.6585531234741211
0.5479173660278320,0.6585531234741211
0.5516229629516601,0.6550477981567383
0.5516229629516601,0.6550477981567383
0.5543249130249023,0.6631874084472656
0.5543249130249023,0.6631874084472656
0.5477537155151367,0.6518806457519531
0.5477537155151367,0.6518806457519531
0.5540193557739258,0.6526702880859375
0.5540193557739258,0.6526702880859375
0.5423955917358398,0.6440134048461914
0.5423955917358398,0.6440134048461914
0.5403659820556640,0.6297706604003906
0.5403659820556640,0.6297706604003906
0.5402040481567383,0.6296487808227539
0.5402040481567383,0.6296487808227539
0.5306991577148438,0.6145854949951172
0.5306991577148438,0.6145854949951172
0.5373870849609375,0.6177469253540039
0.5373870849609375,0.6177469253540039
0.5282793045043945,0.6165201187133789
0.5282793045043945,0.6165201187133789
0.5318418502807617,0.6117330551147461
0.5318418502807617,0.6117330551147461
0.5353042602539062,0.6200037002563477
0.5353042602539062,0.6200037002563477
0.5290695190429687,0.6118309020996093
0.5290695190429687,0.6118309020996093
0.5375804901123047,0.6198801040649414
0.5375804901123047,0.6198801040649414
0.5315265655517578,0.6226936340332031
0.5315265655517578,0.6226936340332031
0.5359600067138671,0.6207138061523437
0.5359600067138671,0.6207138061523437
0.5404415130615234,0.6317613601684570
0.5404415130615234,0.6317613601684570
0.5346342086791992,0.6255992889404297
0.5346342086791992,0.6255992889404297
0.5451702117919922,0.6355321884155273
0.5451702117919922,0.6355321884155273
0.5389801025390625,0.6391971588134765
0.5389801025390625,0.6391971588134765
0.5435766220092774,0.6376773834228515
0.5435766220092774,0.6376773834228515
0.5472661972045898,0.6481452941894531
0.5472661972045898,0.6481452941894531
0.5423784255981445,0.6410511016845702
0.5423784255981445,0.6410511016845702
0.5515502929687500,0.6492788314819335
0.5515502929687500,0.6492788314819335
0.5446123123168946,0.6510629653930664
0.5446123123168946,0.6510629653930664
0.5476472854614257,0.6474523544311523
0.5476472854614257,0.6474523544311523
0.5515497207641601,0.6559123992919922
0.5515497207641601,0.6559123992919922
0.5451816558837891,0.6468034744262695
0.5451816558837891,0.6468034744262695
0.5536336898803711,0.6535097122192383
0.5536336898803711,0.6535097122192383
0.5455209732055664,0.6543457031250000
0.5455209732055664,0.6543457031250000
0.5494354248046874,0.6500707626342773
0.5494354248046874,0.6500707626342773
0.5526666641235352,0.6582189559936523
0.5526666641235352,0.6582189559936523
0.5462499618530273,0.6492370605468750
0.5462499618530273,0.6492370605468750
0.5542922973632812,0.6563152313232422
0.5542922973632812,0.6563152313232422
0.5473720550537109,0.6574768066406250
0.5473720550537109,0.6574768066406250
0.5511079788208008,0.6538272857666015
0.5511079788208008,0.6538272857666015
0.5545269012451172,0.6627279281616211
0.5545269012451172,0.6627279281616211
0.5477491378784179,0.6543869018554688
0.5477491378784179,0.6543869018554688
0.5513334274291992,0.6564651489257812
0.5513334274291992,0.6570648193359375
0.5513334274291992,0.6570648193359375
0.5582931518554687,0.6676689147949219
0.5537017822265625,0.6676689147949219
0.5492202758789062,0.6628887176513671
0.5492202758789062,0.6628887176513671
0.5576803207397460,0.6647546768188476
0.5512258529663085,0.6647546768188476
0.5561273574829101,0.6708028793334960
0.5561273574829101,0.6708028793334960
0.5537538528442383,0.6630632400512695
0.5537538528442383,0.6630632400512695
0.5594947814941406,0.6684528350830078
0.5594947814941406,0.6684528350830078
0.5472850799560547,0.6573308944702149
0.5472850799560547,0.6573308944702149
0.5514329910278321,0.6479352951049805
0.5514329910278321,0.6479352951049805
0.5441001892089844,0.6432266235351562
0.5441001892089844,0.6432266235351562
0.5376228332519531,0.6256227493286133
0.5376228332519531,0.6256227493286133
0.5410268783569335,0.6280466079711914
0.5410268783569335,0.6280466079711914
0.5297664642333985,0.6192564010620117
0.5297664642333985,0.6192564010620117
0.5366346359252929,0.6189783096313476
0.5366346359252929,0.6189783096313476
0.5344408035278320,0.6233007431030273
0.5344408035278320,0.6233007431030273
0.5323167800903320,0.6158512115478515
0.5323167800903320,0.6158512115478515
0.5397520065307617,0.6256822586059571
0.5397520065307617,0.6256822586059571
0.5307621002197266,0.6231536865234375
0.5307621002197266,0.6231536865234375
0.5399545669555664,0.6257137298583985
0.5399545669555664,0.6257137298583985
0.5390235900878906,0.6340078353881836
0.5390235900878906,0.6340078353881836
0.5385280609130859,0.6291578292846679
0.5385280609130859,0.6291578292846679
0.5465463638305664,0.6419740676879883
0.5465463638305664,0.6419740676879883
0.5384365081787109,0.6394689559936523
0.5384365081787109,0.6394689559936523
0.5477411270141601,0.6431791305541992
0.5477411270141601,0.6431791305541992
0.5473234176635742,0.6514795303344726
0.5473234176635742,0.6514795303344726
0.5459609985351562,0.6462770462036133
0.5459609985351562,0.6462770462036133
0.5533950805664062,0.6558580398559570
0.5533950805664062,0.6558580398559570
0.5443204879760742,0.6520677566528320
0.5443204879760742,0.6520677566528320
0.5530855178833007,0.6536756515502929
0.5530855178833007,0.6536756515502929
0.5510461807250976,0.6602428436279296
0.5510461807250976,0.6602428436279296
0.5487499237060547,0.6514211654663086
0.5487499237060547,0.6514211654663086
0.5553497314453125,0.6600334167480468
0.5553497314453125,0.6600334167480468
0.5461841583251953,0.6553533554077148
0.5461841583251953,0.6553533554077148
0.5534482955932617,0.6558288574218750
0.5534482955932617,0.6558288574218750
0.5520921707153320,0.6610113143920898
0.5520921707153320,0.6610113143920898
0.5490926742553711,0.6527172088623047
0.5490926742553711,0.6527172088623047
0.5563665390014648,0.6612024307250977
0.5563665390014648,0.6612024307250977
0.5469371795654296,0.6581336975097656
0.5469371795654296,0.6581336975097656
0.5545572280883789,0.6578470230102539
0.5485101699829101,0.6578470230102539
0.5531455993652343,0.6642648696899414
0.5571836471557617,0.6642648696899414
0.5509780883789063,0.6567369461059570
0.5496746063232422,0.6567369461059570
0.5581712722778320,0.6667299270629883
0.5543769836425781,0.6667299270629883
0.5492477416992188,0.6629367828369140
0.5576745986938476,0.6629367828369140
0.5572311401367187,0.6638259887695312
0.5511898040771485,0.6638259887695312
0.5562675476074218,0.6706495285034180
0.5562675476074218,0.6706495285034180
0.5535392761230469,0.6639118194580078
0.5535392761230469,0.6639118194580078
0.5607170104980469,0.6711925506591797
0.5607170104980469,0.6711925506591797
0.5504144668579102,0.6649234771728515
0.5504144668579102,0.6649234771728515
0.5559339523315430,0.6585084915161132
0.5559339523315430,0.6585084915161132
0.5495950698852539,0.6539239883422852
0.5495950698852539,0.6539239883422852
0.5408071517944336,0.6327707290649414
0.5408071517944336,0.6327707290649414
0.5430290222167968,0.6309854507446289
0.5430290222167968,0.6309854507446289
0.5302299499511719,0.6195613861083984
0.5302299499511719,0.6195613861083984
0.5353065490722656,0.6157247543334960
0.5353065490722656,0.6157247543334960
0.5324472427368164,0.6183300018310547
0.5324472427368164,0.6183300018310547
0.5287776947021484,0.6087850570678711
0.5287776947021484,0.6087850570678711
0.5360670089721680,0.6168153762817382
0.5360670089721680,0.6168153762817382
0.5266010284423828,0.6136962890625000
0.5266010284423828,0.6136962890625000
0.5345844268798828,0.6138158798217773
0.5345844268798828,0.6138158798217773
0.5337787628173828,0.6212625503540039
0.5337787628173828,0.6212625503540039
0.5318784713745117,0.6149511337280273
0.5318784713745117,0.6149511337280273
0.5398727416992187,0.6263671875000000
0.5398727416992187,0.6263671875000000
0.5317943572998046,0.6245023727416992
0.5404186248779297,0.6245023727416992
0.5405038833618164,0.6275951385498046
0.5405038833618164,0.6275951385498046
0.5409141540527344,0.6367664337158203
0.5409141540527344,0.6367664337158203
0.5391197204589844,0.6322912216186524
0.5391197204589844,0.6322912216186524
0.5476072311401367,0.6423917770385742
0.5476072311401367,0.6423917770385742
0.5391180038452148,0.6404399871826172
0.5391180038452148,0.6404399871826172
