REDsignal,IRsignal
0.6237779617309570,0.7768976211547851
0.6237779617309570,0.7768976211547851
0.6174562454223632,0.7747409820556640
0.6174562454223632,0.7747409820556640
0.6233402252197265,0.7749738693237305
0.6233402252197265,0.7749738693237305
0.6221643447875976,0.7785278320312500
0.6221643447875976,0.7785278320312500
0.6206251144409179,0.7728178024291992
0.6206251144409179,0.7728178024291992
0.6233665466308593,0.7792945861816406
0.6233665466308593,0.7792945861816406
0.6198360443115234,0.7763248443603515
0.6198360443115234,0.7763248443603515
0.6251867294311523,0.7767848968505859
0.6251867294311523,0.7767848968505859
0.6227216720581055,0.7800636291503906
0.6227216720581055,0.7800636291503906
0.6199527740478515,0.7757904052734375
0.6199527740478515,0.7757904052734375
0.6256576538085937,0.7805053710937500
0.6256576538085937,0.7805053710937500
0.6208065032958984,0.7778703689575195
0.6208065032958984,0.7778703689575195
0.6247467041015625,0.7774023056030274
0.6247467041015625,0.7774023056030274
0.6218524932861328,0.7819244384765625
0.6218524932861328,0.7819244384765625
0.6221534729003906,0.7767099380493164
0.6252119064331054,0.7767099380493164
0.6271825790405273,0.7816526412963867
0.6271825790405273,0.7816526412963867
0.6210170745849609,0.7788894653320312
0.6210170745849609,0.7788894653320312
0.6237922668457031,0.7796230316162109
0.6237922668457031,0.7796230316162109
0.6239702224731445,0.7826740264892578
0.6239702224731445,0.7826740264892578
0.6228813171386719,0.7777210235595703
0.6228813171386719,0.7777210235595703
0.6265623092651367,0.7819129943847656
0.6265623092651367,0.7819129943847656
0.6199785232543945,0.7804950714111328
0.6199785232543945,0.7804950714111328
0.6257194519042969,0.7801923751831055
0.6257194519042969,0.7801923751831055
0.6252788543701172,0.7836616516113281
0.6252788543701172,0.7836616516113281
0.6229528427124024,0.7784769058227539
0.6229528427124024,0.7784769058227539
0.6254699707031249,0.7839941024780274
0.6254699707031249,0.7839941024780274
0.6218645095825195,0.7810409545898437
0.6218645095825195,0.7810409545898437
0.6263780593872070,0.7811834335327148
0.6263780593872070,0.7811834335327148
0.6245492935180664,0.7837057113647461
0.6245492935180664,0.7837057113647461
0.6219383239746094,0.7800584793090820
0.6219383239746094,0.7800584793090820
0.6272117614746093,0.7844776153564453
0.6272117614746093,0.7844776153564453
0.6232549667358398,0.7818786621093750
0.6232549667358398,0.7818786621093750
0.6263500213623047,0.7820337295532226
0.6263500213623047,0.7820337295532226
0.6234437942504882,0.7855527877807617
0.6234437942504882,0.7855527877807617
0.6238174438476562,0.7805511474609375
0.6238174438476562,0.7805511474609375
0.6279825210571289,0.7852912902832031
0.6279825210571289,0.7852912902832031
0.6224515914916992,0.7817796707153321
0.6224515914916992,0.7817796707153321
0.6252033233642578,0.7832273483276367
0.6252033233642578,0.7832273483276367
0.6255569458007812,0.7861204147338867
0.6255569458007812,0.7861204147338867
0.6249996185302734,0.7810163497924805
0.6249996185302734,0.7810163497924805
0.6279573440551758,0.7857141494750977
0.6279573440551758,0.7857141494750977
0.6211406707763671,0.7838069915771484
0.6211406707763671,0.7838069915771484
0.6270738601684570,0.7832742691040039
0.6270738601684570,0.7832742691040039
0.6260318756103516,0.7865793228149414
0.6260318756103516,0.7865793228149414
0.6239713668823242,0.7804052352905273
0.6239713668823242,0.7804052352905273
0.6263036727905273,0.7859424591064453
0.6263036727905273,0.7859424591064453
0.6223068237304688,0.7824857711791992
0.6223068237304688,0.7824857711791992
0.6270950317382812,0.7814271926879882
0.6270950317382812,0.7814271926879882
0.6240812301635742,0.7830774307250976
0.6240812301635742,0.7830774307250976
0.6210800170898437,0.7784437179565430
0.6210800170898437,0.7784437179565430
0.6246614456176758,0.7795274734497070
0.6246614456176758,0.7795274734497070
0.6203321456909180,0.7759346008300781
0.6203321456909180,0.7759346008300781
0.6223371505737304,0.7735651016235351
0.6223371505737304,0.7735651016235351
0.6189445495605469,0.7754024505615235
0.6189445495605469,0.7754024505615235
0.6191448211669922,0.7704523086547851
0.6191448211669922,0.7704523086547851
0.6223875045776367,0.7728189468383789
0.6223875045776367,0.7728189468383789
0.6171380996704101,0.7700637817382813
0.6171380996704101,0.7700637817382813
0.6184970855712890,0.7701318740844726
0.6184970855712890,0.7701318740844726
0.6188158035278321,0.7716075897216796
0.6188158035278321,0.7716075897216796
0.6182046890258789,0.7681823730468750
0.6182046890258789,0.7681823730468750
0.6207195281982422,0.7707933425903321
0.6207195281982422,0.7707933425903321
0.6147760391235352,0.7693691253662109
0.6147760391235352,0.7693691253662109
0.6202880859375000,0.7699121475219727
0.6221168518066406,0.7699121475219727
0.6200626373291015,0.7723182678222656
0.6200626373291015,0.7723182678222656
0.6184822082519531,0.7696014404296875
0.6184822082519531,0.7696014404296875
0.6200271606445312,0.7739719390869141
0.6200271606445312,0.7739719390869141
0.6176021575927734,0.7722879409790039
0.6176021575927734,0.7722879409790039
0.6223823547363281,0.7734151840209961
0.6192375183105469,0.7734151840209961
0.6211835861206054,0.7764163970947265
0.6211835861206054,0.7764163970947265
0.6185417175292969,0.7735713958740235
0.6185417175292969,0.7735713958740235
0.6242494583129883,0.7781415939331054
0.6242494583129883,0.7781415939331054
0.6203166961669921,0.7761194229125976
0.6203166961669921,0.7761194229125976
0.6236589431762695,0.7763774871826171
0.6236589431762695,0.7763774871826171
0.6208333969116211,0.7801328659057617
0.6208333969116211,0.7801328659057617
0.6213815689086913,0.7754470825195312
0.6213815689086913,0.7754470825195312
0.6254688262939453,0.7801425933837890
0.6254688262939453,0.7801425933837890
0.6200923919677734,0.7771110534667969
0.6200923919677734,0.7771110534667969
0.6228384017944336,0.7784900665283203
0.6228384017944336,0.7784900665283203
0.6232641220092773,0.7813459396362304
0.6232641220092773,0.7813459396362304
0.6229150772094726,0.7767568588256836
0.6229150772094726,0.7767568588256836
0.6257366180419922,0.7813379287719726
0.6257366180419922,0.7813379287719726
0.6191207885742187,0.7795680999755860
0.6191207885742187,0.7795680999755860
0.6249813079833985,0.7793930053710937
0.6249813079833985,0.7793930053710937
0.6241275787353515,0.7825452804565429
0.6241275787353515,0.7825452804565429
0.6224092483520508,0.7772672653198242
0.6224092483520508,0.7772672653198242
0.6247129440307617,0.7829835891723632
0.6247129440307617,0.7829835891723632
0.6213037490844726,0.7804080963134765
0.6213037490844726,0.7804080963134765
0.6264083862304687,0.7803794860839843
0.6264083862304687,0.7803794860839843
0.6243078231811523,0.7836467742919921
0.6243078231811523,0.7836467742919921
0.6212036132812500,0.7794279098510742
0.6212036132812500,0.7794279098510742
0.6268970489501953,0.7837211608886718
0.6268970489501953,0.7837211608886718
0.6220521926879883,0.7814718246459961
0.6220521926879883,0.7814718246459961
0.6258865356445312,0.7806392669677734
0.6258865356445312,0.7806392669677734
0.6232915878295898,0.7852672576904297
0.6232915878295898,0.7852672576904297
0.6232034683227539,0.7800029754638672
0.6232034683227539,0.7800029754638672
0.6284013748168945,0.7846120834350586
0.6284013748168945,0.7846120834350586
0.6220779418945312,0.7823118209838867
0.6220779418945312,0.7823118209838867
0.6245161056518554,0.7825344085693359
0.6245161056518554,0.7825344085693359
0.6254179000854492,0.7857170104980469
0.6254179000854492,0.7857170104980469
0.6238409042358398,0.7808486938476562
0.6238409042358398,0.7808486938476562
0.6277364730834961,0.7846778869628906
0.6277364730834961,0.7846778869628906
0.6207178115844726,0.7837308883666992
0.6207178115844726,0.7837308883666992
0.6266040802001953,0.7829326629638672
0.6266040802001953,0.7829326629638672
0.6267951965332031,0.7864723205566406
0.6267951965332031,0.7864723205566406
0.6238351821899414,0.7814186096191406
0.6238351821899414,0.7814186096191406
0.6263889312744141,0.7863847732543945
0.6263889312744141,0.7863847732543945
0.6228303909301758,0.7839282989501953
0.6228303909301758,0.7839282989501953
0.6272111892700195,0.7836141586303711
0.6272111892700195,0.7836141586303711
0.6259780883789062,0.7863029479980469
0.6259780883789062,0.7863029479980469
0.6225339889526367,0.7825401306152343
0.6225339889526367,0.7825401306152343
0.6284671783447265,0.7867521286010742
0.6284671783447265,0.7867521286010742
0.6241086959838867,0.7846710205078125
0.6241086959838867,0.7846710205078125
0.6271722793579101,0.7839906692504882
0.6271722793579101,0.7839906692504882
0.6246282577514648,0.7880493164062500
0.6246282577514648,0.7880493164062500
0.6244611740112305,0.7828451156616211
0.6244611740112305,0.7828451156616211
0.6290342330932617,0.7873523712158202
0.6290342330932617,0.7873523712158202
0.6233219146728516,0.7844593048095703
0.6233219146728516,0.7844593048095703
0.6233739852905273,0.7837520599365234
0.6233739852905273,0.7837520599365234
0.6268741607666015,0.7867790222167969
0.6258258819580078,0.7867790222167969
0.6243507385253906,0.7854469299316406
0.6243507385253906,0.7854469299316406
0.6261503219604492,0.7843402862548828
0.6261503219604492,0.7843402862548828
0.6282508850097656,0.7892601013183593
0.6282508850097656,0.7892601013183593
0.6284471511840820,0.7842401504516602
0.6258110046386719,0.7842401504516602
0.6289300918579102,0.7845525741577148
0.6289300918579102,0.7845525741577148
0.6240520477294922,0.7869678497314453
0.6240520477294922,0.7869678497314453
0.6254184722900390,0.7831741333007812
0.6254184722900390,0.7831741333007812
0.6318895339965820,0.7868734359741211
0.6318895339965820,0.7868734359741211
0.6221031188964844,0.7781427383422851
0.6221031188964844,0.7781427383422851
0.6263723373413086,0.7809339523315429
0.6263723373413086,0.7809339523315429
0.6205318450927734,0.7790897369384765
0.6205318450927734,0.7790897369384765
0.6256187438964843,0.7728183746337890
0.6256187438964843,0.7728183746337890
0.6212476730346680,0.7717849731445312
0.6212476730346680,0.7717849731445312
0.6159187316894531,0.7659999847412109
0.6159187316894531,0.7659999847412109
0.6193216323852538,0.7667249679565430
0.6193216323852538,0.7667249679565430
0.6186504364013672,0.7650238037109375
0.6186504364013672,0.7650238037109375
0.6152177810668945,0.7591215133666992
0.6152177810668945,0.7591215133666992
0.6159313201904296,0.7632259368896485
0.6159313201904296,0.7632259368896485
0.6119791030883789,0.7582981109619140
0.6119791030883789,0.7582981109619140
0.6203012466430664,0.7603065490722656
0.6203012466430664,0.7603065490722656
0.6118383407592773,0.7580629348754883
0.6118383407592773,0.7580629348754883
0.6133769989013672,0.7576898574829102
0.6133769989013672,0.7576898574829102
0.6147731781005860,0.7614309310913085
0.6147731781005860,0.7614309310913085
0.6160989761352539,0.7576194763183594
0.6160989761352539,0.7576194763183594
0.6161956787109375,0.7590665817260742
0.6161956787109375,0.7590665817260742
0.6126211166381835,0.7622228622436523
0.6126211166381835,0.7622228622436523
0.6148681640625000,0.7616552352905274
0.6148681640625000,0.7616552352905274
0.6216447830200195,0.7665676116943360
0.6216447830200195,0.7665676116943360
0.6144458770751953,0.7615316390991210
0.6144458770751953,0.7615316390991210
0.6191745758056640,0.7675786972045898
0.6166099548339844,0.7675786972045898
0.6158266067504883,0.7690412521362304
0.6158266067504883,0.7690412521362304
0.6225322723388672,0.7678333282470703
0.6225322723388672,0.7678333282470703
0.6198921203613281,0.7698863983154297
0.6198921203613281,0.7698863983154297
0.6168205261230468,0.7683866500854492
0.6168205261230468,0.7683866500854492
0.6210142135620117,0.7718805313110352
0.6210142135620117,0.7718805313110352
0.6223314285278320,0.7725431442260742
0.6223314285278320,0.7725431442260742
0.6196048736572265,0.7685800552368164
0.6196048736572265,0.7685800552368164
0.6216012954711914,0.7750041961669921
0.6216012954711914,0.7750041961669921
0.6173280715942383,0.7707035064697265
0.6173280715942383,0.7707035064697265
0.6274629592895508,0.7740617752075195
0.6274629592895508,0.7740617752075195
0.6187168121337890,0.7731485366821289
0.6187168121337890,0.7731485366821289
0.6202148437500000,0.7723405838012695
0.6202148437500000,0.7723405838012695
0.6228372573852539,0.7776048660278320
0.6228372573852539,0.7776048660278320
0.6227354049682617,0.7728773117065429
0.6227354049682617,0.7728773117065429
0.6237785339355468,0.7738660812377930
0.6237785339355468,0.7738660812377930
0.6196426391601563,0.7772832870483398
0.6196426391601563,0.7772832870483398
0.6210794448852539,0.7743175506591796
0.6210794448852539,0.7743175506591796
0.6285158157348633,0.7793386459350585
0.6246597290039062,0.7793386459350585
0.6191036224365234,0.7725013732910156
0.6191036224365234,0.7725013732910156
0.6246288299560546,0.7776260375976562
0.6246288299560546,0.7776260375976562
0.6204511642456054,0.7792974472045898
0.6265634536743164,0.7761085510253906
0.6265634536743164,0.7761085510253906
0.6247358322143555,0.7788311004638672
0.6247358322143555,0.7788311004638672
0.6197570800781250,0.7760633468627930
0.6197570800781250,0.7760633468627930
0.6253749847412109,0.7792167663574219
0.6253749847412109,0.7792167663574219
0.6259243011474609,0.7806678771972656
0.6259243011474609,0.7806678771972656
0.6227016448974609,0.7753040313720703
0.6227016448974609,0.7753040313720703
0.6253458023071289,0.7820566177368163
0.6253458023071289,0.7820566177368163
0.6203224182128906,0.7776998519897461
0.6203224182128906,0.7776998519897461
0.6306289672851563,0.7805974960327148
0.6306289672851563,0.7805974960327148
0.6219011306762695,0.7797288894653320
0.6219011306762695,0.7797288894653320
0.6231096267700195,0.7785266876220703
0.6231096267700195,0.7785266876220703
0.6257177352905273,0.7833726882934570
0.6257177352905273,0.7833726882934570
0.6262189865112304,0.7788803100585937
0.6262189865112304,0.7788803100585937
0.6260793685913085,0.7796379089355469
0.6260793685913085,0.7796379089355469
0.6226593017578125,0.7823896408081055
0.6226593017578125,0.7823896408081055
0.6238088607788086,0.7804332733154297
0.6238088607788086,0.7804332733154297
0.6304767608642577,0.7840375900268555
0.6304767608642577,0.7840375900268555
0.6222238540649414,0.7778451919555663
0.6222238540649414,0.7778451919555663
0.6263889312744141,0.7826328277587891
0.6263889312744141,0.7826328277587891
0.6230237960815429,0.7834802627563476
0.6230237960815429,0.7834802627563476
0.6290863037109374,0.7813528060913085
0.6290863037109374,0.7813528060913085
0.6262430191040039,0.7827884674072265
0.6262430191040039,0.7827884674072265
0.6227977752685546,0.7809144973754882
0.6227977752685546,0.7809144973754882
0.6267711639404296,0.7838121414184570
0.6267711639404296,0.7838121414184570
0.6283390045166015,0.7844329833984375
0.6283390045166015,0.7844329833984375
0.6247106552124023,0.7798833847045898
0.6247106552124023,0.7798833847045898
0.6267620086669922,0.7858240127563476
0.6267620086669922,0.7858240127563476
0.6226570129394531,0.7814958572387695
0.6226570129394531,0.7814958572387695
0.6323970794677735,0.7844924926757812
0.6323970794677735,0.7844924926757812
0.6238569259643555,0.7835266113281250
0.6238569259643555,0.7835266113281250
0.6248142242431640,0.7823101043701172
0.6248142242431640,0.7823101043701172
0.6274618148803711,0.7873048782348633
0.6274618148803711,0.7873048782348633
0.6274452209472656,0.7822305679321289
0.6274452209472656,0.7822305679321289
0.6279579162597656,0.7827781677246094
0.6279579162597656,0.7827781677246094
0.6240818023681640,0.7861049652099609
0.6240818023681640,0.7861049652099609
0.6247764587402344,0.7825092315673828
0.6247764587402344,0.7825092315673828
0.6320960998535156,0.7867652893066406
0.6320960998535156,0.7867652893066406
0.6226404190063476,0.7790966033935547
0.6226404190063476,0.7790966033935547
0.6263998031616210,0.7825435638427735
0.6263998031616210,0.7825435638427735
0.6223405838012696,0.7816560745239257
0.6223405838012696,0.7816560745239257
0.6267791748046875,0.7763723373413086
0.6267791748046875,0.7763723373413086
0.6223182678222656,0.7736572265625000
0.6223182678222656,0.7736572265625000
0.6168760299682617,0.7672428131103516
0.6168760299682617,0.7672428131103516
0.6182350158691406,0.7654752731323242
0.6182350158691406,0.7654752731323242
0.6179649353027343,0.7622262954711914
0.6179649353027343,0.7622262954711914
0.6124963760375977,0.7542926788330078
0.6097332000732422,0.7542926788330078
0.6128208160400390,0.7564144134521484
0.6112804412841797,0.7564144134521484
0.6079616546630859,0.7500514984130859
0.6079616546630859,0.7500514984130859
0.6150426864624023,0.7501338958740235
0.6150426864624023,0.7501338958740235
0.6069385528564453,0.7469461441040038
0.6069385528564453,0.7469461441040038
0.6069591522216796,0.7450778961181640
0.6069591522216796,0.7450778961181640
0.6082340240478515,0.7474433898925781
0.6082340240478515,0.7474433898925781
0.6091260910034180,0.7431816101074219
0.6091260910034180,0.7431816101074219
0.6083833694458007,0.7434597015380859
0.6083833694458007,0.7434597015380859
0.6053558349609375,0.7460128784179687
0.6053558349609375,0.7460128784179687
0.6062896728515624,0.7445463180541992
0.6062896728515624,0.7445463180541992
0.6131927490234375,0.7488641738891602
0.6131927490234375,0.7488641738891602
0.6061019897460938,0.7443929672241211
0.6061019897460938,0.7443929672241211
0.6108398437500000,0.7512199401855468
0.6108398437500000,0.7512199401855468
0.6090379714965820,0.7548625946044921
0.6090379714965820,0.7548625946044921
0.6157018661499023,0.7546342849731446
0.6157018661499023,0.7546342849731446
0.6152578353881836,0.7595701217651367
0.6152578353881836,0.7595701217651367
0.6112340927124024,0.7585504531860351
0.6112340927124024,0.7585504531860351
0.6170671463012695,0.7630428314208985
0.6170671463012695,0.7630428314208985
0.6187677383422852,0.7657905578613281
0.6187677383422852,0.7657905578613281
0.6156074523925781,0.7612020492553710
0.6156074523925781,0.7612020492553710
0.6190549850463867,0.7688203811645508
0.6190549850463867,0.7688203811645508
0.6142181396484375,0.7646203994750976
0.6142181396484375,0.7646203994750976
0.6244531631469726,0.7681926727294922
0.6244531631469726,0.7681926727294922
0.6166522979736327,0.7682212829589844
0.6166522979736327,0.7682212829589844
0.6175786972045898,0.7670991897583007
0.6175786972045898,0.7670991897583007
0.6208248138427734,0.7726821899414062
0.6208248138427734,0.7726821899414062
0.6204849243164062,0.7681097030639649
0.6204849243164062,0.7681097030639649
0.6214479446411133,0.7692501068115234
0.6181955337524414,0.7692501068115234
0.6181171417236327,0.7731348037719726
0.6219383239746094,0.7731348037719726
0.6187654495239258,0.7699985504150391
0.6165910720825195,0.7699985504150391
0.6266956329345703,0.7752313613891602
0.6266956329345703,0.7752313613891602
0.6172468185424804,0.7685480117797852
0.6172468185424804,0.7685480117797852
0.6226186752319336,0.7736577987670898
0.6226186752319336,0.7736577987670898
0.6191677093505860,0.7756999969482422
0.6191677093505860,0.7756999969482422
0.6245344161987304,0.7723714828491210
0.6245344161987304,0.7723714828491210
0.6231513977050781,0.7753326416015625
0.6226215362548828,0.7753326416015625
0.6182018280029297,0.7726003646850585
0.6182018280029297,0.7726003646850585
0.6233676910400391,0.7756942749023438
0.6233676910400391,0.7756942749023438
0.6247100830078125,0.7774869918823242
0.6247100830078125,0.7774869918823242
0.6208076477050781,0.7720367431640625
0.6208076477050781,0.7720367431640625
0.6239593505859374,0.7790565490722656
0.6239593505859374,0.7790565490722656
0.6188833236694335,0.7746173858642578
0.6188833236694335,0.7746173858642578
0.6287601470947265,0.7773164749145508
0.6287601470947265,0.7773164749145508
0.6209300994873047,0.7769582748413085
0.6209300994873047,0.7769582748413085
0.6214765548706055,0.7754842758178710
0.6214765548706055,0.7754842758178710
0.6244840621948242,0.7804727554321289
0.6244840621948242,0.7804727554321289
0.6243301391601562,0.7758224487304687
0.6243301391601562,0.7758224487304687
0.6248233795166015,0.7765068054199219
0.6248233795166015,0.7765068054199219
0.6216098785400390,0.7801837921142578
0.6216098785400390,0.7801837921142578
0.6220493316650391,0.7769886016845703
0.6220493316650391,0.7769886016845703
0.6298627853393555,0.7818202972412109
0.6298627853393555,0.7818202972412109
0.6201690673828125,0.7747833251953125
0.6229642868041992,0.7797380447387695
0.6254350662231445,0.7795904159545898
0.6221231460571289,0.7795904159545898
0.6220693588256836,0.7813482284545898
0.6220693588256836,0.7813482284545898
0.6271316528320312,0.7777622222900390
0.6271316528320312,0.7777622222900390
0.6258447647094726,0.7806484222412109
0.6258447647094726,0.7806484222412109
0.6205215454101562,0.7777399063110352
0.6233688354492187,0.7777399063110352
0.6256811141967773,0.7807439804077149
0.6256811141967773,0.7807439804077149
0.6272735595703125,0.7823987960815429
0.6272735595703125,0.7823987960815429
0.6230049133300781,0.7765542984008789
0.6230049133300781,0.7765542984008789
0.6261314392089844,0.7835254669189453
0.6261314392089844,0.7835254669189453
0.6208843231201172,0.7787464141845702
0.6208843231201172,0.7787464141845702
0.6307308197021484,0.7815267562866210
0.6307308197021484,0.7815267562866210
0.6230873107910156,0.7810626983642578
0.6230873107910156,0.7810626983642578
0.6232561111450196,0.7793558120727538
0.6232561111450196,0.7793558120727538
0.6264404296875000,0.7844661712646485
0.6264404296875000,0.7844661712646485
0.6259941101074219,0.7796424865722656
0.6259941101074219,0.7796424865722656
0.6265102386474609,0.7801551818847656
0.6265102386474609,0.7801551818847656
0.6233144760131836,0.7838727951049804
0.6233144760131836,0.7838727951049804
0.6234907150268555,0.7801591873168945
0.6234907150268555,0.7801591873168945
0.6314672470092774,0.7851493835449218
0.6314672470092774,0.7851493835449218
0.6217174530029297,0.7783304214477539
0.6217174530029297,0.7783304214477539
0.6267585754394531,0.7829355239868164
0.6267585754394531,0.7829355239868164
0.6236068725585937,0.7848993301391601
0.6236068725585937,0.7848993301391601
0.6284843444824219,0.7808950424194335
0.6284843444824219,0.7808950424194335
0.6270229339599609,0.7835117340087890
0.6270229339599609,0.7835117340087890
0.6216917037963867,0.7801843643188476
0.6216917037963867,0.7801843643188476
0.6262104034423828,0.7822345733642578
0.6262104034423828,0.7822345733642578
0.6274944305419922,0.7829921722412109
0.6274944305419922,0.7829921722412109
0.6224224090576171,0.7753818511962890
0.6224224090576171,0.7753818511962890
0.6244319915771485,0.7795789718627929
0.6244319915771485,0.7795789718627929
0.6175043106079101,0.7710588455200195
0.6175043106079101,0.7710588455200195
0.6246477127075195,0.7685606002807617
0.6246477127075195,0.7685606002807617
0.6149242401123046,0.7633226394653320
0.6149242401123046,0.7633226394653320
0.6128385543823242,0.7568447113037109
0.6128385543823242,0.7568447113037109
0.6138954162597656,0.7578163146972656
0.6138954162597656,0.7578163146972656
0.6116741180419921,0.7496778488159179
0.6116741180419921,0.7496778488159179
0.6108673095703124,0.7475732803344727
0.6108673095703124,0.7475732803344727
0.6067457199096680,0.7489219665527344
0.6067457199096680,0.7489219665527344
0.6059057235717773,0.7436508178710938
0.6059057235717773,0.7436508178710938
0.6129535675048828,0.7473014831542969
0.6129535675048828,0.7473014831542969
0.6030160903930664,0.7393701553344726
0.6030160903930664,0.7393701553344726
0.6075004577636719,0.7431867599487304
0.6075004577636719,0.7431867599487304
0.6046062469482422,0.7448530197143555
0.6046062469482422,0.7448530197143555
0.6090654373168946,0.7411165237426758
0.6090654373168946,0.7411165237426758
0.6082151412963867,0.7445520401000977
0.6082151412963867,0.7445520401000977
0.6033359527587890,0.7423610687255859
0.6033359527587890,0.7423610687255859
0.6088354110717773,0.7464277267456054
0.6088354110717773,0.7464277267456054
0.6112632751464844,0.7502077102661132
0.6112632751464844,0.7502077102661132
0.6082511901855469,0.7470239639282227
0.6082511901855469,0.7470239639282227
0.6128293991088867,0.7567451477050781
0.6128293991088867,0.7567451477050781
0.6089344024658203,0.7546405792236328
0.6089344024658203,0.7546405792236328
0.6195453643798828,0.7595581054687500
0.6195453643798828,0.7595581054687500
0.6134222030639648,0.7611288070678711
0.6134222030639648,0.7611288070678711
0.6140098571777344,0.7605033874511719
0.6140098571777344,0.7605033874511719
0.6179042816162109,0.7670001983642578
0.6179042816162109,0.7670001983642578
0.6176410675048828,0.7629238128662109
0.6164508819580078,0.7629238128662109
0.6185874938964844,0.7642810821533202
0.6185874938964844,0.7642810821533202
0.6162128448486328,0.7687139511108398
0.6162128448486328,0.7687139511108398
0.6163679122924804,0.7654621124267578
0.6163679122924804,0.7654621124267578
0.6245286941528320,0.7713586807250976
0.6245286941528320,0.7713586807250976
0.6151668548583984,0.7648738861083985
0.6151668548583984,0.7648738861083985
0.6201610565185547,0.7698612213134766
0.6201610565185547,0.7698612213134766
0.6176897048950195,0.7724493026733398
0.6176897048950195,0.7724493026733398
0.6225030899047851,0.7688650131225586
0.6225030899047851,0.7688650131225586
0.6215852737426758,0.7723697662353516
0.6215852737426758,0.7723697662353516
0.6166940689086914,0.7697874069213867
0.6166940689086914,0.7697874069213867
0.6215921401977539,0.7726947784423828
0.6215921401977539,0.7726947784423828
0.6236949920654297,0.7751358032226562
0.6236949920654297,0.7751358032226562
0.6194400787353516,0.7694492340087891
0.6194400787353516,0.7694492340087891
0.6227285385131835,0.7768180847167968
0.6227285385131835,0.7768180847167968
0.6178516387939453,0.7724802017211914
0.6178516387939453,0.7724802017211914
0.6272163391113281,0.7752651214599610
0.6199373245239258,0.7752651214599610
0.6201278686523437,0.7750968933105469
0.6201278686523437,0.7750968933105469
0.6205078125000000,0.7735015869140625
0.6205078125000000,0.7735015869140625
0.6236635208129883,0.7789112091064453
0.6236635208129883,0.7789112091064453
0.6233785629272460,0.7743627548217773
0.6233785629272460,0.7743627548217773
0.6236440658569335,0.7750356674194335
0.6236440658569335,0.7750356674194335
0.6212041854858398,0.7790502548217774
0.6212041854858398,0.7790502548217774
0.6210931777954102,0.7754150390625000
0.6191299438476562,0.7754150390625000
0.6240777969360352,0.7807519912719726
0.6234981536865234,0.7807519912719726
0.6196334838867187,0.7739009857177734
0.6225042343139648,0.7739009857177734
0.6244525909423828,0.7785587310791016
0.6244525909423828,0.7785587310791016
0.6218433380126953,0.7806238174438477
0.6218433380126953,0.7806238174438477
0.6264587402343750,0.7766899108886719
0.6264587402343750,0.7766899108886719
0.6254219055175781,0.7801654815673827
0.6254219055175781,0.7801654815673827
0.6201759338378906,0.7772706985473633
0.6201759338378906,0.7772706985473633
0.6249721527099609,0.7799514770507813
0.6249721527099609,0.7799514770507813
0.6271596908569336,0.7821115493774414
0.6271596908569336,0.7821115493774414
0.6223863601684571,0.7757520675659180
0.6223863601684571,0.7757520675659180
0.6258150100708008,0.7831449508666992
0.6258150100708008,0.7831449508666992
0.6206977844238281,0.7785169601440429
0.6206977844238281,0.7785169601440429
0.6300447463989257,0.7809814453125000
0.6300447463989257,0.7809814453125000
0.6231960296630860,0.7809568405151367
0.6231960296630860,0.7809568405151367
0.6227937698364258,0.7786811828613281
0.6227937698364258,0.7786811828613281
0.6262762069702148,0.7844518661499024
0.6262762069702148,0.7844518661499024
0.6257160186767577,0.7794656753540039
0.6241859436035156,0.7794656753540039
0.6258327484130859,0.7798055648803711
0.6258327484130859,0.7798055648803711
0.6235353469848632,0.7838356018066406
0.6235353469848632,0.7838356018066406
0.6230661392211914,0.7796951293945312
0.6230661392211914,0.7796951293945312
0.6312314987182617,0.7850847244262695
0.6312314987182617,0.7850847244262695
0.6216585159301757,0.7782966613769531
0.6216585159301757,0.7782966613769531
0.6261926651000976,0.7826442718505859
0.6261926651000976,0.7826442718505859
0.6237756729125976,0.7848432540893554
0.6237756729125976,0.7848432540893554
0.6282720565795898,0.7805871963500977
0.6282720565795898,0.7805871963500977
0.6267831802368163,0.7835895538330078
0.6267831802368163,0.7835895538330078
0.6219234466552734,0.7809162139892578
0.6219234466552734,0.7809162139892578
0.6264593124389648,0.7832462310791015
0.6264593124389648,0.7832462310791015
0.6286931991577148,0.7853485107421875
0.6286931991577148,0.7853485107421875
0.6240337371826171,0.7790840148925781
0.6218593597412109,0.7790840148925781
0.6272941589355469,0.7862165451049804
0.6272941589355469,0.7862165451049804
0.6219423294067382,0.7814117431640625
0.6219423294067382,0.7814117431640625
0.6310924530029297,0.7831958770751953
0.6310924530029297,0.7831958770751953
0.6236989974975585,0.7822608947753906
0.6236989974975585,0.7822608947753906
0.6230215072631836,0.7787624359130859
0.6230215072631836,0.7787624359130859
0.6251958847045899,0.7818557739257812
0.6251958847045899,0.7818557739257812
0.6236434936523437,0.7743896484375000
0.6236434936523437,0.7743896484375000
0.6217958450317382,0.7701719284057617
0.6217958450317382,0.7701719284057617
0.6169801712036133,0.7690629959106445
0.6169801712036133,0.7690629959106445
0.6144767761230469,0.7605875015258788
0.6144767761230469,0.7605875015258788
0.6202131271362304,0.7616798400878906
0.6202131271362304,0.7616798400878906
0.6092285156250000,0.7517057418823242
0.6092285156250000,0.7517057418823242
0.6122291564941406,0.7530258178710937
0.6122291564941406,0.7530258178710937
0.6088851928710938,0.7531385421752930
0.6088851928710938,0.7531385421752930
0.6123865127563476,0.7477186203002929
0.6123865127563476,0.7477186203002929
0.6106784820556640,0.7498374938964844
0.6106784820556640,0.7498374938964844
0.6056808471679688,0.7464643478393554
0.6056808471679688,0.7464643478393554
0.6096874237060547,0.7484224319458007
0.6096874237060547,0.7484224319458007
0.6114229202270508,0.7497201919555664
0.6114229202270508,0.7497201919555664
0.6075605392456055,0.7448781967163086
0.6075605392456055,0.7448781967163086
0.6100793838500976,0.7510700225830078
0.6100793838500976,0.7510700225830078
0.6071434020996094,0.7485282897949218
0.6071434020996094,0.7485282897949218
0.6150856018066406,0.7519357681274413
0.6150856018066406,0.7519357681274413
0.6101446151733398,0.7534126281738281
0.6101446151733398,0.7534126281738281
0.6110687255859375,0.7547367095947265
0.6110687255859375,0.7547367095947265
0.6143177032470702,0.7608610153198242
0.6143177032470702,0.7608610153198242
0.6167381286621093,0.7594053268432617
0.6167381286621093,0.7594053268432617
0.6158002853393555,0.7605657577514648
0.6158002853393555,0.7605657577514648
0.6149053573608398,0.7650506973266601
0.6149053573608398,0.7650506973266601
0.6152235031127929,0.7632648468017578
0.6152235031127929,0.7632648468017578
0.6224218368530273,0.7678871154785156
0.6224218368530273,0.7678871154785156
0.6153757095336914,0.7632190704345703
0.6153757095336914,0.7632190704345703
0.6183483123779296,0.7673944473266602
0.6183483123779296,0.7673944473266602
0.6169979095458984,0.7695957183837890
0.6169979095458984,0.7695957183837890
0.6217065811157226,0.7673515319824219
0.6217065811157226,0.7673515319824219
0.6196214675903320,0.7692146301269531
0.6196214675903320,0.7692146301269531
0.6169761657714844,0.7683454513549804
0.6169761657714844,0.7683454513549804
0.6196043014526367,0.7704854965209961
0.6196043014526367,0.7704854965209961
0.6228841781616211,0.7723978042602538
0.6228841781616211,0.7723978042602538
0.6186624526977539,0.7681045532226562
0.6186624526977539,0.7681045532226562
0.6209095001220702,0.7738426208496093
0.6209095001220702,0.7738426208496093
0.6181297302246094,0.7713117599487305
0.6205415725708008,0.7747787475585938
0.6255065917968750,0.7730747222900390
0.6186990737915039,0.7730747222900390
0.6196689605712891,0.7728189468383789
0.6196689605712891,0.7728189468383789
0.6197399139404297,0.7723199844360351
0.6197399139404297,0.7723199844360351
0.6219686508178711,0.7760845184326172
0.6219686508178711,0.7760845184326172
0.6237224578857422,0.7733779907226562
0.6232149124145507,0.7733779907226562
0.6220470428466797,0.7729986190795898
0.6220470428466797,0.7729986190795898
0.6206548690795898,0.7767225265502929
0.6206548690795898,0.7767225265502929
0.6204271316528320,0.7744176864624023
0.6204271316528320,0.7744176864624023
0.6274681091308594,0.7781335830688476
0.6274681091308594,0.7781335830688476
0.6201610565185547,0.7729848861694336
0.6201610565185547,0.7729848861694336
0.6229133605957031,0.7766338348388672
0.6229133605957031,0.7766338348388672
0.6212694168090820,0.7784151077270508
0.6212694168090820,0.7784151077270508
0.6259243011474609,0.7759586334228515
0.6259243011474609,0.7759586334228515
0.6237230300903320,0.7775081634521485
0.6237230300903320,0.7775081634521485
0.6208894729614257,0.7765480041503906
0.6208894729614257,0.7765480041503906
0.6234397888183594,0.7783470153808594
0.6234397888183594,0.7783470153808594
0.6265285491943359,0.7799320220947266
0.6265285491943359,0.7799320220947266
0.6220613479614258,0.7750591278076172
0.6220613479614258,0.7750591278076172
0.6242986679077148,0.7805900573730469
0.6242986679077148,0.7805900573730469
0.6213054656982422,0.7778062820434570
0.6213054656982422,0.7778062820434570
0.6287034988403321,0.7794731140136718
0.6287034988403321,0.7794731140136718
0.6228292465209960,0.7790102005004883
0.6228292465209960,0.7790102005004883
0.6225677490234375,0.7782571792602538
0.6225677490234375,0.7782571792602538
0.6246986389160156,0.7820840835571289
0.6232784271240234,0.7820840835571289
0.6265016555786133,0.7791269302368163
0.6265016555786133,0.7791269302368163
0.6246248245239258,0.7783063888549805
0.6246248245239258,0.7783063888549805
0.6231731414794922,0.7818746566772461
0.6231731414794922,0.7818746566772461
0.6229539871215820,0.7792173385620117
0.6229539871215820,0.7792173385620117
0.6297712326049805,0.7829778671264648
0.6297712326049805,0.7829778671264648
0.6225236892700196,0.7778915405273438
0.6253498077392577,0.7778915405273438
0.6251003265380859,0.7811897277832031
0.6251003265380859,0.7811897277832031
0.6235221862792969,0.7831409454345702
0.6235221862792969,0.7831409454345702
0.6279722213745117,0.7802043914794922
0.6279722213745117,0.7802043914794922
0.6258110046386719,0.7816841125488281
0.6258110046386719,0.7816841125488281
0.6227834701538085,0.7807725906372071
0.6227834701538085,0.7807725906372071
0.6253618240356446,0.7819684982299805
0.6253618240356446,0.7819684982299805
0.6285530090332031,0.7838996887207031
0.6285530090332031,0.7838996887207031
0.6238615036010742,0.7789970397949219
0.6238615036010742,0.7789970397949219
0.6261119842529297,0.7844793319702148
0.6261119842529297,0.7844793319702148
0.6229843139648438,0.7817630767822266
0.6229843139648438,0.7817630767822266
0.6304195404052734,0.7829847335815430
0.6304195404052734,0.7829847335815430
0.6244606018066406,0.7827369689941406
0.6244606018066406,0.7827369689941406
0.6241630554199219,0.7815645217895507
0.6241630554199219,0.7815645217895507
0.6263677597045898,0.7851991653442383
0.6263677597045898,0.7851991653442383
0.6278852462768555,0.7822586059570312
0.6278852462768555,0.7822586059570312
0.6259992599487304,0.7809877395629883
0.6259992599487304,0.7809877395629883
0.6242013931274414,0.7840890884399414
0.6242013931274414,0.7840890884399414
0.6232429504394531,0.7802850723266601
0.6232429504394531,0.7802850723266601
0.6297214508056640,0.7823890686035156
0.6297214508056640,0.7823890686035156
0.6206285476684570,0.7743530273437500
0.6206285476684570,0.7743530273437500
0.6236589431762695,0.7732292175292969
0.6236589431762695,0.7732292175292969
0.6175535202026367,0.7696386337280273
0.6175535202026367,0.7696386337280273
0.6183013916015625,0.7591341018676757
0.6183013916015625,0.7591341018676757
0.6149591445922852,0.7572000503540038
0.6124031066894531,0.7572000503540038
0.6076652526855468,0.7502683639526367
0.6097337722778320,0.7502683639526367
0.6098413467407227,0.7478376388549804
0.6055641174316406,0.7478376388549804
0.6106864929199218,0.7473335266113281
0.6106864929199218,0.7473335266113281
0.6043224334716797,0.7381845474243164
0.6043224334716797,0.7381845474243164
0.6070123672485351,0.7434946060180664
0.6070123672485351,0.7434946060180664
0.6013813018798828,0.7379304885864257
0.6041450500488281,0.7379304885864257
0.6092891693115234,0.7381462097167969
0.6092891693115234,0.7381462097167969
0.6028272628784179,0.7381793975830078
0.6028272628784179,0.7381793975830078
0.6015357971191406,0.7346260070800781
0.6015357971191406,0.7346260070800781
0.6050594329833984,0.7399904251098632
0.6050594329833984,0.7399904251098632
0.6043991088867188,0.7357669830322265
0.6036403656005859,0.7357669830322265
0.6045793533325196,0.7355003356933594
0.6045793533325196,0.7355003356933594
0.6030378341674805,0.7407434463500976
0.6030378341674805,0.7407434463500976
0.6025600433349609,0.7372838973999023
0.6025600433349609,0.7372838973999023
0.6115488052368164,0.7452426910400390
0.6115488052368164,0.7452426910400390
0.6038183212280274,0.7422054290771484
0.6038183212280274,0.7422054290771484
0.6094831466674805,0.7483715057373047
0.6094831466674805,0.7483715057373047
0.6091455459594727,0.7543745040893555
0.6091455459594727,0.7543745040893555
0.6138553619384766,0.7519271850585937
0.6138553619384766,0.7519271850585937
0.6143737792968750,0.7575662612915038
0.6143737792968750,0.7575662612915038
0.6103031158447265,0.7569946289062500
0.6103031158447265,0.7569946289062500
0.6150358200073242,0.7596010208129883
0.6150358200073242,0.7596010208129883
0.6183322906494141,0.7637311935424804
0.6183322906494141,0.7637311935424804
0.6136940002441406,0.7578449249267578
0.6136940002441406,0.7578449249267578
0.6177543640136719,0.7661430358886718
0.6177543640136719,0.7661430358886718
0.6131206512451172,0.7631464004516602
0.6131206512451172,0.7631464004516602
0.6220687866210938,0.7649608612060547
0.6220687866210938,0.7649608612060547
0.6164171218872070,0.7665264129638671
0.6164171218872070,0.7665264129638671
0.6156984329223633,0.7641300201416016
0.6156984329223633,0.7641300201416016
0.6196769714355469,0.7702869415283203
0.6196769714355469,0.7702869415283203
0.6194978713989258,0.7671621322631835
0.6194978713989258,0.7671621322631835
0.6196146011352539,0.7666774749755859
0.6196146011352539,0.7666774749755859
0.6182401657104492,0.7721569061279296
0.6182401657104492,0.7721569061279296
0.6172754287719726,0.7678733825683594
0.6172754287719726,0.7678733825683594
0.6258012771606445,0.7736160278320312
0.6258012771606445,0.7736160278320312
0.6171495437622070,0.7684976577758789
0.6171495437622070,0.7684976577758789
0.6210216522216797,0.7716453552246093
0.6210216522216797,0.7716453552246093
0.6192609786987304,0.7745372772216796
0.6192609786987304,0.7745372772216796
0.6234203338623047,0.7710765838623047
0.6234203338623047,0.7710765838623047
0.6223142623901367,0.7737997055053710
0.6223142623901367,0.7737997055053710
0.6181806564331055,0.7726701736450196
0.6181806564331055,0.7726701736450196
0.6218856811523438,0.7741052627563476
0.6218856811523438,0.7741052627563476
0.6250528335571289,0.7767190933227539
0.6250528335571289,0.7767190933227539
0.6200820922851562,0.7710033416748047
0.6200820922851562,0.7710033416748047
0.6232006072998046,0.7774869918823242
0.6232006072998046,0.7774869918823242
0.6192157745361327,0.7746019363403320
0.6192157745361327,0.7746019363403320
0.6274452209472656,0.7757703781127929
0.6274452209472656,0.7757703781127929
0.6214096069335937,0.7763185501098633
0.6214096069335937,0.7763185501098633
0.6208951950073242,0.7745664596557617
0.6208951950073242,0.7745664596557617
0.6237951278686523,0.7792327880859374
0.6237951278686523,0.7792327880859374
0.6245841979980469,0.7761823654174804
0.6245841979980469,0.7761823654174804
0.6238975524902344,0.7754133224487304
0.6238975524902344,0.7754133224487304
0.6221981048583984,0.7799966812133788
0.6221981048583984,0.7799966812133788
0.6210857391357422,0.7753005981445312
0.6210857391357422,0.7753005981445312
0.6294582366943359,0.7807130813598633
0.6294582366943359,0.7807130813598633
0.6202817916870117,0.7753486633300781
0.6237373352050781,0.7753486633300781
0.6244628906249999,0.7781118392944336
0.6244628906249999,0.7781118392944336
0.6226987838745117,0.7815553665161132
0.6226987838745117,0.7815553665161132
0.6262052536010742,0.7764696121215821
0.6262052536010742,0.7764696121215821
0.6256565093994141,0.7799526214599609
0.6256565093994141,0.7799526214599609
0.6207355499267578,0.7782732009887695
0.6207355499267578,0.7782732009887695
0.6248508453369140,0.7791320800781250
0.6248508453369140,0.7791320800781250
0.6278068542480468,0.7824508666992187
0.6278068542480468,0.7824508666992187
0.6223594665527343,0.7757217407226562
0.6223594665527343,0.7757217407226562
0.6257463455200195,0.7825515747070312
0.6257463455200195,0.7825515747070312
0.6215074539184570,0.7796155929565429
0.6215074539184570,0.7796155929565429
0.6298793792724610,0.7805168151855468
0.6298793792724610,0.7805168151855468
0.6236377716064453,0.7809642791748047
0.6236377716064453,0.7809642791748047
0.6230363845825195,0.7787544250488281
0.6230363845825195,0.7787544250488281
0.6260736465454101,0.7835214614868163
0.6260736465454101,0.7835214614868163
0.6261915206909180,0.7803182601928711
0.6261651992797851,0.7803182601928711
0.6258865356445312,0.7791097640991210
0.6258865356445312,0.7791097640991210
0.6241882324218749,0.7839569091796875
0.6241882324218749,0.7839569091796875
0.6229110717773437,0.7792945861816406
0.6229110717773437,0.7792945861816406
0.6313682556152344,0.7846218109130859
0.6313682556152344,0.7846218109130859
0.6219314575195313,0.7790513992309570
0.6219314575195313,0.7790513992309570
0.6260169982910156,0.7815954208374023
0.6260169982910156,0.7815954208374023
0.6244085311889648,0.7848129272460938
0.6244085311889648,0.7848129272460938
0.6277610778808593,0.7798685073852539
0.6277610778808593,0.7798685073852539
0.6272592544555664,0.7830350875854492
0.6272592544555664,0.7830350875854492
0.6220624923706054,0.7816841125488281
0.6220624923706054,0.7816841125488281
0.6262470245361328,0.7823816299438476
0.6262470245361328,0.7823816299438476
0.6292098999023438,0.7855287551879883
0.6292098999023438,0.7855287551879883
0.6233991622924805,0.7783384323120117
0.6233991622924805,0.7783384323120117
0.6273159027099610,0.7850944519042968
0.6273159027099610,0.7850944519042968
0.6219451904296874,0.7815679550170899
0.6219451904296874,0.7815679550170899
0.6304183959960937,0.7815187454223632
0.6304183959960937,0.7815187454223632
0.6239433288574219,0.7815645217895507
0.6239433288574219,0.7815645217895507
0.6216957092285156,0.7762876510620117
0.6216957092285156,0.7762876510620117
0.6243730545043945,0.7785884857177734
0.6243730545043945,0.7785884857177734
0.6217134475708007,0.7706331253051758
0.6217134475708007,0.7706331253051758
0.6188037872314452,0.7633678436279296
0.6188037872314452,0.7633678436279296
0.6145906448364258,0.7627607345581054
0.6145906448364258,0.7627607345581054
0.6105817794799805,0.7525142669677735
0.6105817794799805,0.7525142669677735
0.6167146682739257,0.7536363601684570
0.6167146682739257,0.7536363601684570
0.6089132308959960,0.7468362808227539
0.6089132308959960,0.7468362808227539
0.6089132308959960,0.7487789154052734
0.6012914657592773,0.7410604476928710
0.6012914657592773,0.7410604476928710
0.6074552536010742,0.7420234680175781
0.6074552536010742,0.7420234680175781
0.6018110275268554,0.7405860900878906
0.6018110275268554,0.7405860900878906
0.6032192230224609,0.7354499816894531
0.6032192230224609,0.7354499816894531
0.6018115997314453,0.7399446487426757
0.6018115997314453,0.7399446487426757
0.6000057220458984,0.7336217880249023
0.6000057220458984,0.7336217880249023
0.6056144714355468,0.7365154266357422
0.6056144714355468,0.7365154266357422
0.5994094848632813,0.7365005493164062
0.5994094848632813,0.7365005493164062
0.5995393753051758,0.7341670989990234
0.5995393753051758,0.7341670989990234
0.6039144515991210,0.7390811920166015
0.6039144515991210,0.7390811920166015
0.6006912231445313,0.7348857879638672
0.6006912231445313,0.7348857879638672
0.6059978485107421,0.7394588470458984
0.6034440994262695,0.7394588470458984
0.5997179031372070,0.7434036254882812
0.5997179031372070,0.7434036254882812
0.6061586380004883,0.7433532714843750
0.6061586380004883,0.7433532714843750
0.6103923797607421,0.7513710021972656
0.6103923797607421,0.7513710021972656
0.6069356918334960,0.7489196777343750
0.6069356918334960,0.7489196777343750
0.6105405807495117,0.7552087783813476
0.6105405807495117,0.7552087783813476
0.6091775894165039,0.7572303771972656
0.6091775894165039,0.7572303771972656
0.6126760482788086,0.7559165954589844
0.6126760482788086,0.7559165954589844
0.6148241043090820,0.7613725662231445
0.6148241043090820,0.7613725662231445
0.6089881896972656,0.7583072662353515
0.6089881896972656,0.7583072662353515
0.6169246673583985,0.7625507354736328
0.6169246673583985,0.7625507354736328
0.6135240554809570,0.7638387680053711
0.6135240554809570,0.7638387680053711
0.6153545379638672,0.7618234634399413
0.6153545379638672,0.7618234634399413
0.6149271011352538,0.7676445007324219
0.6149271011352538,0.7676445007324219
0.6138959884643554,0.7629060745239258
0.6138959884643554,0.7629060745239258
0.6193902969360351,0.7670660018920898
0.6193902969360351,0.7670660018920898
0.6143720626831054,0.7675432205200196
0.6143720626831054,0.7675432205200196
0.6146919250488281,0.7661310195922851
0.6146919250488281,0.7661310195922851
0.6193267822265625,0.7711601257324219
0.6193267822265625,0.7711601257324219
0.6167747497558593,0.7665681838989258
0.6167747497558593,0.7665681838989258
0.6207584381103516,0.7704179763793945
0.6207584381103516,0.7704179763793945
0.6135766983032226,0.7717821121215820
0.6135766983032226,0.7717821121215820
0.6189588546752930,0.7689273834228515
0.6189588546752930,0.7689273834228515
0.6211664199829101,0.7740617752075195
0.6214324951171875,0.7740617752075195
0.6169429779052734,0.7688129425048827
0.6169429779052734,0.7688129425048827
0.6196546554565430,0.7734449386596679
0.6196546554565430,0.7734449386596679
0.6174316406250000,0.7740234375000000
0.6174316406250000,0.7740234375000000
0.6212013244628906,0.7714399337768555
0.6212013244628906,0.7714399337768555
0.6220264434814453,0.7764410018920899
0.6220264434814453,0.7764410018920899
0.6155536651611327,0.7719944000244140
0.6155536651611327,0.7719944000244140
0.6233030319213867,0.7753835678100586
0.6233030319213867,0.7753835678100586
0.6187648773193359,0.7762693405151367
0.6187648773193359,0.7762693405151367
0.6211109161376953,0.7728561401367188
0.6211109161376953,0.7728561401367188
0.6203018188476562,0.7788408279418945
0.6203018188476562,0.7788408279418945
0.6191751480102539,0.7736886978149414
0.6191751480102539,0.7736886978149414
0.6253503799438477,0.7771785736083984
0.6253503799438477,0.7771785736083984
0.6193319320678711,0.7777976989746094
0.6193319320678711,0.7777976989746094
0.6193782806396484,0.7755500793457031
0.6193782806396484,0.7755500793457031
0.6239221572875976,0.7802164077758789
0.6239221572875976,0.7802164077758789
0.6200580596923828,0.7752462387084961
0.6200580596923828,0.7752462387084961
0.6249635696411132,0.7780443191528320
0.6249635696411132,0.7780443191528320
0.6174465179443359,0.7797855377197266
0.6174465179443359,0.7797855377197266
0.6225831985473632,0.7767265319824218
0.6225831985473632,0.7767265319824218
0.6255826950073242,0.7815153121948242
0.6255826950073242,0.7815153121948242
0.6204826354980468,0.7765405654907226
0.6204826354980468,0.7765405654907226
0.6229001998901367,0.7804407119750977
0.6229001998901367,0.7804407119750977
0.6208288192749023,0.7807210922241211
0.6208288192749023,0.7807210922241211
0.6234718322753906,0.7779172897338867
0.6234718322753906,0.7779172897338867
0.6250465393066406,0.7820491790771484
0.6250465393066406,0.7820491790771484
0.6183225631713867,0.7781192779541015
0.6183225631713867,0.7781192779541015
0.6261005401611328,0.7810924530029296
0.6275510787963867,0.7810924530029296
0.6224636077880860,0.7817939758300781
0.6224636077880860,0.7817939758300781
0.6236600875854492,0.7787801742553710
0.6236600875854492,0.7787801742553710
0.6229156494140625,0.7839694976806640
0.6229156494140625,0.7839694976806640
0.6214588165283202,0.7787281036376953
0.6214588165283202,0.7787281036376953
0.6269376754760742,0.7818975448608398
0.6269376754760742,0.7818975448608398
0.6217586517333984,0.7819478988647460
0.6217586517333984,0.7819478988647460
0.6214239120483398,0.7798582077026367
0.6214239120483398,0.7798582077026367
0.6260490417480469,0.7844415664672851
0.6260490417480469,0.7844415664672851
0.6229196548461914,0.7794851303100586
0.6229196548461914,0.7794851303100586
0.6269319534301757,0.7824874877929687
0.6269319534301757,0.7824874877929687
0.6193931579589843,0.7836484909057617
0.6193931579589843,0.7836484909057617
0.6244440078735352,0.7802484512329101
0.6244440078735352,0.7802484512329101
0.6267162322998047,0.7851316452026367
0.6267162322998047,0.7851316452026367
0.6221752166748047,0.7795406341552734
0.6221752166748047,0.7795406341552734
0.6246734619140625,0.7835426330566406
0.6246734619140625,0.7835426330566406
0.6225872039794922,0.7840581893920898
0.6225872039794922,0.7840581893920898
0.6258968353271485,0.7809585571289063
0.6258968353271485,0.7809585571289063
0.6266595840454101,0.7857439041137695
0.6266595840454101,0.7857439041137695
0.6197038650512695,0.7810655593872070
0.6197038650512695,0.7810655593872070
0.6276609420776367,0.7838470458984375
0.6276609420776367,0.7838470458984375
0.6229986190795899,0.7842670440673828
0.6229986190795899,0.7842670440673828
0.6247169494628906,0.7802701950073242
0.6216779708862304,0.7802701950073242
0.6237419128417968,0.7854589462280274
0.6257062911987304,0.7854589462280274
0.6216602325439453,0.7793037414550781
0.6216602325439453,0.7793037414550781
0.6273857116699219,0.7809808731079101
0.6273857116699219,0.7809808731079101
0.6204523086547852,0.7794502258300781
0.6204523086547852,0.7794502258300781
0.6186532974243164,0.7737018585205078
0.6186532974243164,0.7737018585205078
0.6216196060180664,0.7738700866699219
0.6216196060180664,0.7738700866699219
0.6152269363403320,0.7644899368286132
0.6152269363403320,0.7644899368286132
0.6180175781250000,0.7624626159667969
0.6180175781250000,0.7624626159667969
0.6086305618286133,0.7601652145385742
0.6086305618286133,0.7601652145385742
0.6117834091186524,0.7535001754760742
0.6117834091186524,0.7535001754760742
0.6133678436279296,0.7554628372192382
0.6133678436279296,0.7554628372192382
0.6068836212158203,0.7482381820678711
0.6068836212158203,0.7482381820678711
0.6084136962890625,0.7500051498413086
0.6084136962890625,0.7500051498413086
0.6059909820556640,0.7488401412963867
0.6059909820556640,0.7488401412963867
0.6078426361083984,0.7454504013061524
0.6078426361083984,0.7454504013061524
0.6088216781616210,0.7483434677124023
0.6088216781616210,0.7483434677124023
0.6025125503540039,0.7447689056396484
0.6025125503540039,0.7447689056396484
0.6096033096313477,0.7472728729248047
0.6096033096313477,0.7472728729248047
0.6066267013549804,0.7481678009033202
0.6066267013549804,0.7481678009033202
0.6079627990722656,0.7464746475219727
0.6079627990722656,0.7464746475219727
0.6073488235473633,0.7519735336303711
0.6073488235473633,0.7519735336303711
0.6075256347656249,0.7495903015136719
0.6075256347656249,0.7495903015136719
0.6131910324096680,0.7547985076904297
0.6131910324096680,0.7547985076904297
0.6099391937255859,0.7571193695068359
0.6099391937255859,0.7571193695068359
0.6105199813842773,0.7580600738525390
0.6105199813842773,0.7580600738525390
0.6156835556030273,0.7634897232055664
0.6156835556030273,0.7634897232055664
0.6142599105834960,0.7611122131347656
0.6142599105834960,0.7611122131347656
0.6180135726928710,0.7650175094604492
0.6180135726928710,0.7650175094604492
0.6117376327514649,0.7668508529663086
0.6117376327514649,0.7668508529663086
0.6170505523681641,0.7652481079101562
0.6170505523681641,0.7652481079101562
0.6189405441284179,0.7674934387207031
0.6189405441284179,0.7654209136962891
0.6181772232055663,0.7705936431884766
0.6181772232055663,0.7705936431884766
0.6172451019287110,0.7674654006958007
0.6172451019287110,0.7674654006958007
0.6251781463623046,0.7718914031982421
0.6251781463623046,0.7718914031982421
0.6168519973754882,0.7684793472290039
0.6168519973754882,0.7684793472290039
0.6206926345825196,0.7706789016723633
0.6206926345825196,0.7706789016723633
0.6196872711181640,0.7741264343261719
0.6196872711181640,0.7741264343261719
0.6232418060302735,0.7708070755004882
0.6232418060302735,0.7708070755004882
0.6223754882812500,0.7728326797485351
0.6223754882812500,0.7728326797485351
0.6182590484619140,0.7729488372802734
0.6182590484619140,0.7729488372802734
0.6217872619628906,0.7735307693481445
0.6217872619628906,0.7735307693481445
0.6252977371215820,0.7764375686645507
0.6252977371215820,0.7764375686645507
0.6201044082641601,0.7713300704956054
0.6201044082641601,0.7713300704956054
0.6232704162597656,0.7768329620361328
0.6232704162597656,0.7768329620361328
0.6190944671630859,0.7752113342285156
0.6190944671630859,0.7752113342285156
0.6271396636962890,0.7756759643554687
0.6271396636962890,0.7756759643554687
0.6217729568481445,0.7763168334960937
0.6217729568481445,0.7763168334960937
0.6210010528564452,0.7750808715820312
0.6210010528564452,0.7750808715820312
0.6237001419067383,0.7782909393310546
0.6237001419067383,0.7782909393310546
0.6246706008911133,0.7771350860595703
0.6246706008911133,0.7771350860595703
0.6232601165771484,0.7753286361694336
0.6232601165771484,0.7753286361694336
0.6226312637329101,0.7795223236083985
0.6226312637329101,0.7795223236083985
0.6214862823486328,0.7771665573120117
0.6214862823486328,0.7771665573120117
0.6286703109741211,0.7797420501708984
0.6286703109741211,0.7797420501708984
0.6209810256958007,0.7764844894409180
0.6209810256958007,0.7764844894409180
0.6238054275512696,0.7784168243408203
0.6238054275512696,0.7784168243408203
0.6230335235595703,0.7807571411132812
0.6230335235595703,0.7807571411132812
0.6265800476074218,0.7782875061035156
0.6265800476074218,0.7782875061035156
0.6249258041381835,0.7788791656494141
0.6249258041381835,0.7788791656494141
0.6214593887329102,0.7793558120727538
0.6214593887329102,0.7793558120727538
0.6240365982055663,0.7796316146850586
0.6240365982055663,0.7796316146850586
0.6280139923095703,0.7817962646484374
0.6280139923095703,0.7817962646484374
0.6227834701538085,0.7773164749145508
0.6227834701538085,0.7773164749145508
0.6253143310546875,0.7816789627075195
0.6253143310546875,0.7816789627075195
0.6249240875244141,0.7825492858886719
0.6249240875244141,0.7825492858886719
0.6234947204589844,0.7795011520385742
0.6245893478393555,0.7795011520385742
0.6254476547241211,0.7815771102905273
0.6254476547241211,0.7815771102905273
0.6196289062500000,0.7825326919555664
0.6196289062500000,0.7825326919555664
0.6240085601806641,0.7805562973022461
0.6240085601806641,0.7805562973022461
0.6256233215332031,0.7833045959472656
0.6256233215332031,0.7833045959472656
0.6225425720214843,0.7795801162719727
0.6225425720214843,0.7795801162719727
0.6229951858520507,0.7827318191528320
0.6229951858520507,0.7827318191528320
0.6229259490966796,0.7829154968261719
0.6229259490966796,0.7829154968261719
0.6254648208618164,0.7812904357910156
0.6254648208618164,0.7812904357910156
0.6255844116210937,0.7839969635009766
0.6255844116210937,0.7839969635009766
0.6201839447021484,0.7812429428100586
0.6201839447021484,0.7812429428100586
0.6262332916259765,0.7831970214843750
0.6262332916259765,0.7831970214843750
0.6235965728759766,0.7837211608886718
0.6235965728759766,0.7837211608886718
0.6245424270629882,0.7813047409057617
0.6245424270629882,0.7813047409057617
0.6230237960815429,0.7850744247436523
0.6230237960815429,0.7850744247436523
0.6234558105468749,0.7816022872924805
0.6234558105468749,0.7816022872924805
0.6276100158691406,0.7837343215942383
0.6276100158691406,0.7837343215942383
0.6235582351684570,0.7842138290405273
0.6235582351684570,0.7842138290405273
0.6218948364257812,0.7828044891357422
0.6218948364257812,0.7828044891357422
0.6263088226318360,0.7854326248168945
0.6263088226318360,0.7854326248168945
0.6238300323486328,0.7822299957275390
0.6238300323486328,0.7822299957275390
0.6267494201660156,0.7837045669555663
0.6267494201660156,0.7837045669555663
0.6210004806518554,0.7852437973022460
0.6210004806518554,0.7852437973022460
0.6250797271728515,0.7830974578857421
0.6250797271728515,0.7830974578857421
0.6274606704711914,0.7855876922607422
0.6274606704711914,0.7855876922607422
0.6235673904418945,0.7819787979125976
0.6235673904418945,0.7819787979125976
0.6235233306884765,0.7839042663574218
0.6235233306884765,0.7839042663574218
0.6231983184814452,0.7830562591552734
0.6231983184814452,0.7830562591552734
0.6239381790161133,0.7798049926757812
0.6239381790161133,0.7798049926757812
0.6225843429565430,0.7794685363769531
0.6225843429565430,0.7794685363769531
0.6171695709228515,0.7739158630371094
0.6184221267700195,0.7739158630371094
0.6211006164550781,0.7712568283081055
0.6211006164550781,0.7712568283081055
0.6171426773071289,0.7674430847167969
0.6171426773071289,0.7674430847167969
0.6151216506958007,0.7614160537719726
0.6151216506958007,0.7614160537719726
0.6118246078491211,0.7607305526733398
0.6118246078491211,0.7607305526733398
0.6105691909790039,0.7542188644409179
0.6105691909790039,0.7542188644409179
0.6125209808349609,0.7536169052124023
0.6125209808349609,0.7536169052124023
0.6083433151245117,0.7511970520019531
0.6083433151245117,0.7511970520019531
0.6056522369384766,0.7484453201293945
0.6056522369384766,0.7484453201293945
0.6090654373168946,0.7491611480712891
0.6090654373168946,0.7491611480712891
0.6070810317993164,0.7448421478271484
0.6070810317993164,0.7448421478271484
0.6083965301513672,0.7459665298461914
0.6083965301513672,0.7459665298461914
0.6026453018188477,0.7462600708007813
0.6026453018188477,0.7462600708007813
0.6063148498535156,0.7439374923706055
0.6063148498535156,0.7439374923706055
0.6079610824584961,0.7466342926025390
0.6079610824584961,0.7466342926025390
0.6053695678710938,0.7432668685913085
0.6053695678710938,0.7432668685913085
0.6057889938354492,0.7470485687255859
0.6057889938354492,0.7470485687255859
0.6065620422363281,0.7486055374145507
0.6065620422363281,0.7486055374145507
0.6095340728759765,0.7488945007324218
0.6095340728759765,0.7488945007324218
0.6108930587768554,0.7539316177368164
0.6108930587768554,0.7539316177368164
0.6068206787109375,0.7537708282470703
0.6068206787109375,0.7537708282470703
0.6138731002807617,0.7578849792480469
0.6138731002807617,0.7578849792480469
0.6125106811523438,0.7604249954223633
0.6125106811523438,0.7604249954223633
0.6139245986938476,0.7595363616943359
0.6139245986938476,0.7595363616943359
0.6132505416870117,0.7644739151000977
0.6132505416870117,0.7644739151000977
0.6142364501953125,0.7621696472167968
0.6142364501953125,0.7621696472167968
0.6185869216918946,0.7652189254760742
0.6185869216918946,0.7652189254760742
0.6154094696044922,0.7664251327514648
0.6154094696044922,0.7664251327514648
0.6138221740722656,0.7658843994140625
0.6138221740722656,0.7658843994140625
0.6184518814086913,0.7689542770385742
0.6184518814086913,0.7689542770385742
0.6165573120117187,0.7665264129638671
0.6165573120117187,0.7665264129638671
0.6194652557373047,0.7685829162597656
0.6194652557373047,0.7685829162597656
0.6142610549926758,0.7705947875976562
0.6142610549926758,0.7705947875976562
0.6184730529785156,0.7690275192260742
0.6184730529785156,0.7690275192260742
0.6212001800537109,0.7722450256347656
0.6212001800537109,0.7722450256347656
0.6178522109985352,0.7695865631103516
0.6178522109985352,0.7695865631103516
0.6179700851440429,0.7725070953369141
0.6179700851440429,0.7725070953369141
0.6186841964721680,0.7730953216552734
0.6259580612182617,0.7730953216552734
0.6199150085449219,0.7719068527221680
0.6199150085449219,0.7719068527221680
0.6212974548339844,0.7740863800048828
0.6212974548339844,0.7740863800048828
0.6160400390624999,0.7723217010498047
0.6160400390624999,0.7723217010498047
0.6220544815063477,0.7744932174682617
0.6220544815063477,0.7744932174682617
0.6208408355712890,0.7753183364868164
0.6208408355712890,0.7753183364868164
0.6206588745117188,0.7737779617309570
0.6206588745117188,0.7737779617309570
0.6193010330200195,0.7771316528320312
0.6193010330200195,0.7771316528320312
0.6199510574340820,0.7740320205688477
0.6199510574340820,0.7740320205688477
0.6231445312500000,0.7764146804809570
0.6231445312500000,0.7764146804809570
0.6205804824829101,0.7765205383300781
0.6205804824829101,0.7765205383300781
0.6184427261352539,0.7759992599487304
0.6184427261352539,0.7759992599487304
0.6231130599975586,0.7785484313964843
0.6231130599975586,0.7785484313964843
0.6218221664428710,0.7756896972656250
0.6218221664428710,0.7756896972656250
0.6235782623291015,0.7777107238769531
0.6235782623291015,0.7777107238769531
0.6183237075805664,0.7789409637451171
0.6183237075805664,0.7789409637451171
0.6222867965698242,0.7771099090576171
0.6222867965698242,0.7771099090576171
0.6239856719970703,0.7798593521118163
0.6239856719970703,0.7798593521118163
0.6213289260864258,0.7763099670410156
0.6213289260864258,0.7763099670410156
0.6212013244628906,0.7794422149658203
0.6212013244628906,0.7794422149658203
0.6219583511352539,0.7799423217773437
0.6219583511352539,0.7799423217773437
0.6238637924194336,0.7783790588378906
0.6238637924194336,0.7783790588378906
0.6243078231811523,0.7810855865478515
0.6243078231811523,0.7810855865478515
0.6188941955566406,0.7784282684326171
0.6188941955566406,0.7784282684326171
0.6248582839965821,0.7804012298583984
0.6248582839965821,0.7804012298583984
0.6227846145629883,0.7809911727905273
0.6227846145629883,0.7809911727905273
0.6232183456420898,0.7788127899169922
0.6232183456420898,0.7788127899169922
0.6217638015747070,0.7824937820434570
0.6217638015747070,0.7824937820434570
0.6223686218261718,0.7791549682617187
0.6223686218261718,0.7791549682617187
0.6264129638671875,0.7812692642211914
0.6264129638671875,0.7812692642211914
0.6228841781616211,0.7819347381591797
0.6228841781616211,0.7819347381591797
0.6205810546875000,0.7807170867919921
0.6205810546875000,0.7807170867919921
0.6253240585327148,0.7831472396850586
0.6253240585327148,0.7831472396850586
0.6230901718139649,0.7801111221313476
0.6230901718139649,0.7801111221313476
0.6256221771240235,0.7815055847167969
0.6256221771240235,0.7815055847167969
0.6202342987060546,0.7832296371459960
0.6202342987060546,0.7832296371459960
0.6240760803222656,0.7813184738159179
0.6240760803222656,0.7813184738159179
0.6267208099365235,0.7840547561645508
0.6267208099365235,0.7840547561645508
0.6231582641601562,0.7807960510253906
0.6231582641601562,0.7807960510253906
0.6228590011596680,0.7834098815917968
0.6228590011596680,0.7834098815917968
0.6236915588378906,0.7838098526000976
0.6236915588378906,0.7838098526000976
0.6246774673461913,0.7822116851806641
0.6246774673461913,0.7822116851806641
0.6259975433349609,0.7841331481933593
0.6259975433349609,0.7841331481933593
0.6203144073486327,0.7819936752319335
0.6203144073486327,0.7819936752319335
0.6262733459472656,0.7838716506958008
0.6262733459472656,0.7838716506958008
0.6251455307006836,0.7845399856567382
0.6251455307006836,0.7845399856567382
0.6246683120727539,0.7827089309692382
0.6246683120727539,0.7827089309692382
0.6230901718139649,0.7858205795288086
0.6230901718139649,0.7858205795288086
0.6238025665283203,0.7823369979858398
0.6238025665283203,0.7823369979858398
0.6268283843994140,0.7843786239624023
0.6268283843994140,0.7843786239624023
0.6242328643798828,0.7842041015625000
0.6267957687377930,0.7842041015625000
0.6213701248168945,0.7829298019409180
0.6213701248168945,0.7829298019409180
0.6259717941284180,0.7848432540893554
0.6259717941284180,0.7848432540893554
0.6241247177124023,0.7807960510253906
0.6241247177124023,0.7807960510253906
0.6253097534179687,0.7816005706787109
0.6253097534179687,0.7816005706787109
0.6192398071289062,0.7809373855590820
0.6192398071289062,0.7809373855590820
0.6220493316650391,0.7767488479614257
0.6220493316650391,0.7767488479614257
0.6228034973144531,0.7769559860229492
0.6207252502441406,0.7769559860229492
0.6186189651489258,0.7703126907348633
0.6186189651489258,0.7703126907348633
0.6170877456665039,0.7708145141601562
0.6170877456665039,0.7708145141601562
0.6168634414672851,0.7688278198242188
0.6168634414672851,0.7688278198242188
0.6175340652465821,0.7651050567626952
0.6175340652465821,0.7651050567626952
0.6171346664428711,0.7661436080932617
0.6171346664428711,0.7661436080932617
0.6109931945800781,0.7620351791381835
0.6109931945800781,0.7620351791381835
0.6163444519042969,0.7627538681030274
0.6175786972045898,0.7627538681030274
0.6140167236328125,0.7628156661987304
0.6161081314086914,0.7628156661987304
0.6139114379882812,0.7597354888916016
0.6139114379882812,0.7597354888916016
0.6124048233032227,0.7630817413330078
0.6124048233032227,0.7630817413330078
0.6128511428833008,0.7594070434570312
0.6128511428833008,0.7594070434570312
0.6166666030883788,0.7616397857666015
0.6166666030883788,0.7616397857666015
0.6135589599609375,0.7626302719116210
0.6135589599609375,0.7626302719116210
0.6112054824829102,0.7616867065429688
0.6112054824829102,0.7616867065429688
0.6164829254150390,0.7650787353515625
0.6164829254150390,0.7650787353515625
0.6146358489990235,0.7630474090576171
0.6146358489990235,0.7630474090576171
0.6177989959716796,0.7658008575439453
0.6177989959716796,0.7658008575439453
0.6131509780883789,0.7688861846923828
0.6131509780883789,0.7688861846923828
0.6174190521240234,0.7678853988647460
0.6174190521240234,0.7678853988647460
0.6207813262939453,0.7717042922973633
0.6207813262939453,0.7717042922973633
0.6174196243286133,0.7691562652587890
0.6174196243286133,0.7691562652587890
0.6174785614013671,0.7722999572753906
0.6174785614013671,0.7722999572753906
0.6188266754150390,0.7733934402465820
0.6188266754150390,0.7733934402465820
0.6198085784912110,0.7720149993896485
0.6198085784912110,0.7720149993896485
0.6208396911621094,0.7730546951293945
0.6189868927001952,0.7730546951293945
0.6209856033325195,0.7757961273193359
0.6209856033325195,0.7757961273193359
0.6240194320678710,0.7733900070190429
0.6240194320678710,0.7733900070190429
0.6225419998168945,0.7746162414550781
0.6225419998168945,0.7746162414550781
0.6193061828613281,0.7754459381103516
0.6193061828613281,0.7754459381103516
0.6216625213623047,0.7754264831542969
0.6216625213623047,0.7754264831542969
0.6263339996337890,0.7779144287109375
0.6263339996337890,0.7779144287109375
0.6208047866821289,0.7736125946044922
0.6208047866821289,0.7736125946044922
0.6234340667724609,0.7781867980957031
0.6234340667724609,0.7781867980957031
0.6199934005737304,0.7772237777709960
0.6199934005737304,0.7772237777709960
0.6269256591796875,0.7772626876831055
0.6269256591796875,0.7772626876831055
0.6229814529418946,0.7778371810913086
0.6229814529418946,0.7778371810913086
0.6214885711669922,0.7768804550170898
0.6214885711669922,0.7768804550170898
0.6239336013793945,0.7800407409667969
0.6239336013793945,0.7800407409667969
0.6251981735229492,0.7788866043090820
0.6251981735229492,0.7788866043090820
0.6233568191528320,0.7768501281738281
0.6233568191528320,0.7768501281738281
0.6235731124877929,0.7809316635131835
0.6235731124877929,0.7809316635131835
0.6220138549804687,0.7781873703002929
0.6220138549804687,0.7781873703002929
0.6288991928100586,0.7811954498291015
0.6288991928100586,0.7811954498291015
0.6215887069702148,0.7783063888549805
0.6215887069702148,0.7783063888549805
0.6240371704101563,0.7795927047729492
0.6240371704101563,0.7795927047729492
0.6240394592285156,0.7823129653930664
0.6243089675903321,0.7823129653930664
0.6268255233764648,0.7793735504150391
0.6268255233764648,0.7793735504150391
0.6253097534179687,0.7804979324340821
0.6253097534179687,0.7804979324340821
0.6220510482788085,0.7810707092285156
0.6220510482788085,0.7810707092285156
0.6242448806762695,0.7807010650634766
0.6242448806762695,0.7807010650634766
0.6288946151733398,0.7831878662109375
0.6288946151733398,0.7831878662109375
0.6232109069824219,0.7785181045532227
0.6232109069824219,0.7785181045532227
0.6257572174072266,0.7830059051513671
0.6257572174072266,0.7830059051513671
0.6224000930786132,0.7821596145629882
0.6224000930786132,0.7821596145629882
0.6291921615600585,0.7817687988281250
0.6291921615600585,0.7817687988281250
0.6250980377197265,0.7823427200317382
0.6250980377197265,0.7823427200317382
0.6234769821166992,0.7810564041137695
0.6234769821166992,0.7810564041137695
0.6260198593139649,0.7839838027954101
0.6260198593139649,0.7839838027954101
0.6271802902221679,0.7830087661743164
0.6271802902221679,0.7830087661743164
0.6253252029418945,0.7807365417480469
0.6253252029418945,0.7807365417480469
0.6255100250244140,0.7847791671752929
0.6255100250244140,0.7847791671752929
0.6236778259277344,0.7821390151977539
0.6236778259277344,0.7821390151977539
0.6307611465454102,0.7847173690795898
0.6307611465454102,0.7847173690795898
0.6233024597167969,0.7819553375244140
0.6233024597167969,0.7819553375244140
0.6256319046020508,0.7830717086791992
0.6256319046020508,0.7830717086791992
0.6256113052368164,0.7856180191040039
0.6256113052368164,0.7856180191040039
0.6284934997558593,0.7826803207397460
0.6284934997558593,0.7826803207397460
0.6269771575927734,0.7836616516113281
0.6269771575927734,0.7836616516113281
0.6236509323120117,0.7842676162719726
0.6236509323120117,0.7842676162719726
0.6257526397705078,0.7840026855468750
0.6257526397705078,0.7840026855468750
0.6304533004760742,0.7864437103271484
0.6304533004760742,0.7864437103271484
0.6245590209960937,0.7815507888793946
0.6245590209960937,0.7815507888793946
0.6271287918090820,0.7858949661254883
0.6271287918090820,0.7858949661254883
0.6236589431762695,0.7849948883056640
0.6236589431762695,0.7849948883056640
0.6303428649902344,0.7844387054443359
0.6303428649902344,0.7844387054443359
0.6263254165649413,0.7846572875976562
0.6263254165649413,0.7846572875976562
0.6244789123535156,0.7829641342163086
0.6244789123535156,0.7829641342163086
0.6265039443969727,0.7851905822753906
0.6265039443969727,0.7851905822753906
0.6271539688110351,0.7831089019775390
0.6271539688110351,0.7831089019775390
0.6245796203613281,0.7792013168334960
0.6245796203613281,0.7792013168334960
0.6237539291381836,0.7806564331054687
0.6237539291381836,0.7806564331054687
0.6205535888671875,0.7744560241699219
0.6205535888671875,0.7744560241699219
0.6255483627319336,0.7731216430664062
0.6255483627319336,0.7731216430664062
0.6163009643554688,0.7660423278808594
0.6163009643554688,0.7660423278808594
0.6164405822753906,0.7633598327636718
0.6164405822753906,0.7633598327636718
0.6148807525634765,0.7624734878540039
0.6148807525634765,0.7624734878540039
0.6160537719726562,0.7565952301025390
0.6160537719726562,0.7565952301025390
0.6132499694824218,0.7551120758056641
0.6132499694824218,0.7551120758056641
0.6091701507568359,0.7537261962890625
0.6091701507568359,0.7537261962890625
0.6104118347167968,0.7515655517578125
0.6104118347167968,0.7515655517578125
0.6142272949218750,0.7529119491577149
0.6142272949218750,0.7529119491577149
0.6081825256347656,0.7470937728881836
0.6081825256347656,0.7470937728881836
0.6103185653686524,0.7508932113647461
0.6103185653686524,0.7508932113647461
0.6067794799804688,0.7497476577758789
0.6067794799804688,0.7497476577758789
0.6131944656372070,0.7491033554077148
0.6075250625610351,0.7491033554077148
0.6095804214477539,0.7501213073730468
0.6095804214477539,0.7501213073730468
0.6082082748413086,0.7492446899414062
0.6082082748413086,0.7492446899414062
0.6111288070678711,0.7532913208007812
0.6111288070678711,0.7532913208007812
0.6130205154418945,0.7543813705444335
0.6130205154418945,0.7543813705444335
0.6122509002685547,0.7542806625366211
0.6122509002685547,0.7542806625366211
0.6135480880737304,0.7607408523559570
0.6135480880737304,0.7607408523559570
0.6129352569580078,0.7598819732666016
0.6129352569580078,0.7598819732666016
0.6206079483032226,0.7644327163696288
0.6206079483032226,0.7644327163696288
0.6141540527343750,0.7630239486694336
0.6141540527343750,0.7630239486694336
0.6168205261230468,0.7651525497436523
0.6168205261230468,0.7651525497436523
0.6175558090209960,0.7685697555541992
0.6175558090209960,0.7685697555541992
0.6204591751098633,0.7665487289428711
0.6204591751098633,0.7665487289428711
0.6194572448730469,0.7680902481079102
0.6194572448730469,0.7680902481079102
0.6166191101074219,0.7695390701293945
0.6166191101074219,0.7695390701293945
0.6188684463500976,0.7696271896362304
0.6188684463500976,0.7696271896362304
0.6237327575683593,0.7725070953369141
0.6237327575683593,0.7725070953369141
0.6181652069091796,0.7683042526245117
0.6181652069091796,0.7683042526245117
0.6209821701049805,0.7731010437011718
0.6209821701049805,0.7731010437011718
0.6178728103637695,0.7726999282836914
0.6178728103637695,0.7726999282836914
0.6244600296020507,0.7726009368896484
0.6244600296020507,0.7726009368896484
0.6209352493286132,0.7736337661743163
0.6209352493286132,0.7736337661743163
0.6195024490356446,0.7725534439086914
0.6195024490356446,0.7725534439086914
0.6219011306762695,0.7758092880249023
0.6219011306762695,0.7758092880249023
0.6234111785888672,0.7752559661865234
0.6234111785888672,0.7752559661865234
0.6215463638305664,0.7731479644775391
0.6197908401489257,0.7731479644775391
0.6220247268676757,0.7775299072265625
0.6220247268676757,0.7775299072265625
0.6201942443847656,0.7746677398681641
0.6201942443847656,0.7746677398681641
0.6272947311401367,0.7778692245483398
0.6272947311401367,0.7778692245483398
0.6202909469604492,0.7753852844238281
0.6202909469604492,0.7753852844238281
0.6223485946655273,0.7766481399536133
0.6223485946655273,0.7766481399536133
0.6226272583007812,0.7794067382812500
0.6226272583007812,0.7794067382812500
0.6254676818847656,0.7765354156494141
0.6225139617919921,0.7765354156494141
0.6240446090698242,0.7776557922363281
0.6240446090698242,0.7776557922363281
0.6209506988525391,0.7786663055419921
0.6209506988525391,0.7786663055419921
0.6230529785156250,0.7782291412353516
0.6230529785156250,0.7782291412353516
0.6277502059936523,0.7808795928955078
0.6277502059936523,0.7808795928955078
0.6220653533935546,0.7761869430541992
0.6220653533935546,0.7761869430541992
0.6245452880859375,0.7806261062622070
0.6245452880859375,0.7806261062622070
0.6214090347290039,0.7801094055175781
0.6214090347290039,0.7801094055175781
0.6279298782348632,0.7796350479125976
0.6279298782348632,0.7796350479125976
0.6240549087524414,0.7803388595581054
0.6240549087524414,0.7803388595581054
0.6224430084228515,0.7789403915405273
0.6224430084228515,0.7789403915405273
0.6248937606811523,0.7816772460937500
0.6248937606811523,0.7816772460937500
0.6262378692626953,0.7812372207641601
0.6262378692626953,0.7812372207641601
0.6243461608886719,0.7787698745727539
0.6243461608886719,0.7787698745727539
0.6245624542236328,0.7829978942871093
0.6245624542236328,0.7829978942871093
0.6227909088134765,0.7801946640014649
0.6227909088134765,0.7801946640014649
0.6297798156738281,0.7829275131225586
0.6297798156738281,0.7829275131225586
0.6225460052490234,0.7803268432617188
0.6225460052490234,0.7803268432617188
0.6245756149291992,0.7813774108886719
0.6245756149291992,0.7813774108886719
0.6247438430786133,0.7838802337646484
0.6247438430786133,0.7838802337646484
0.6275745391845703,0.7810134887695312
0.6275745391845703,0.7810134887695312
0.6259534835815429,0.7818637847900390
0.6234535217285156,0.7818637847900390
0.6229751586914062,0.7828903198242188
0.6229751586914062,0.7828903198242188
0.6247615814208984,0.7823982238769531
0.6247615814208984,0.7823982238769531
0.6295972824096679,0.7847940444946289
0.6295972824096679,0.7847940444946289
0.6237321853637695,0.7799749374389648
0.6237321853637695,0.7799749374389648
0.6263368606567382,0.7842453002929687
0.6263368606567382,0.7842453002929687
0.6230129241943360,0.7836479187011719
0.6230129241943360,0.7836479187011719
0.6295949935913085,0.7831586837768555
0.6295949935913085,0.7831586837768555
0.6257892608642578,0.7838064193725586
0.6257892608642578,0.7838064193725586
0.6239616394042968,0.7822929382324219
0.6239616394042968,0.7822929382324219
0.6264478683471679,0.7850795745849609
0.6264478683471679,0.7850795745849609
0.6277656555175781,0.7845685958862304
0.6277656555175781,0.7845685958862304
0.6255706787109375,0.7818981170654297
0.6255706787109375,0.7818981170654297
0.6259660720825195,0.7858720779418945
0.6259660720825195,0.7858720779418945
0.6239221572875976,0.7825778961181641
0.6239221572875976,0.7825778961181641
0.6306770324707031,0.7848987579345703
0.6306770324707031,0.7848987579345703
0.6230924606323242,0.7816921234130859
0.6230924606323242,0.7816921234130859
0.6246276855468750,0.7812932968139649
0.6246276855468750,0.7812932968139649
0.6238981246948242,0.7815616607666015
0.6238981246948242,0.7815616607666015
0.6250682830810547,0.7747215270996094
0.6250682830810547,0.7747215270996094
0.6210857391357422,0.7701456069946289
0.6210857391357422,0.7701456069946289
0.6148887634277344,0.7645986557006835
0.6148887634277344,0.7645986557006835
0.6137632369995117,0.7577608108520507
0.6137632369995117,0.7577608108520507
0.6155101776123046,0.7548328399658203
0.6155101776123046,0.7548328399658203
0.6075691223144531,0.7452318191528320
0.6075691223144531,0.7452318191528320
0.6080583572387696,0.7454921722412109
0.6080583572387696,0.7454921722412109
0.6056047439575195,0.7418449401855468
0.6056047439575195,0.7418449401855468
0.6042915344238281,0.7367431640625000
0.6035797119140625,0.7367431640625000
0.6032878875732421,0.7356828689575196
0.6032878875732421,0.7356828689575196
0.5977964401245117,0.7361509323120117
0.5977964401245117,0.7361509323120117
0.6004961013793945,0.7321306228637695
0.6004961013793945,0.7321306228637695
0.6029136657714843,0.7343307495117187
0.6029136657714843,0.7343307495117187
0.5989860534667969,0.7304655075073242
0.5989860534667969,0.7304655075073242
0.5976253509521484,0.7317289352416992
0.5976253509521484,0.7317289352416992
0.5994403839111327,0.7326782226562499
0.5994403839111327,0.7326782226562499
0.5995960235595703,0.7304924011230468
0.5995960235595703,0.7304924011230468
0.6015626907348632,0.7336732864379882
0.6015626907348632,0.7336732864379882
0.5962675094604492,0.7329454421997070
0.5962675094604492,0.7329454421997070
0.6027591705322265,0.7362916946411132
0.6027591705322265,0.7362916946411132
0.6038778305053710,0.7406284332275390
0.6038778305053710,0.7406284332275390
0.6043619155883789,0.7418209075927734
0.6043619155883789,0.7418209075927734
0.6047779083251953,0.7488006591796875
0.6047779083251953,0.7488006591796875
0.6073499679565429,0.7488006591796875
0.6073499679565429,0.7488006591796875
0.6111545562744141,0.7529829025268554
0.6111545562744141,0.7529829025268554
0.6105440139770507,0.7557340621948242
0.6105440139770507,0.7557340621948242
0.6080944061279296,0.7559463500976562
0.6080944061279296,0.7559463500976562
0.6142107009887695,0.7603174209594726
0.6142107009887695,0.7603174209594726
0.6133804321289062,0.7588600158691406
0.6133804321289062,0.7588600158691406
0.6150856018066406,0.7611368179321288
0.6150856018066406,0.7611368179321288
0.6107637405395507,0.7637918472290038
0.6107637405395507,0.7637918472290038
0.6146049499511719,0.7620706558227539
0.6177017211914062,0.7620706558227539
0.6171770095825195,0.7658540725708007
0.6171770095825195,0.7658540725708007
0.6148326873779296,0.7632711410522460
0.6148326873779296,0.7632711410522460
0.6139858245849609,0.7662328720092774
0.6139858245849609,0.7662328720092774
0.6163787841796875,0.7679946899414062
0.6163787841796875,0.7679946899414062
0.6176548004150391,0.7662425994873047
0.6176548004150391,0.7662425994873047
0.6188798904418945,0.7697565078735351
0.6188798904418945,0.7697565078735351
0.6130880355834961,0.7680233001708984
0.6130880355834961,0.7680233001708984
0.6192049026489258,0.7694995880126952
0.6192049026489258,0.7694995880126952
0.6183282852172851,0.7714239120483398
0.6183282852172851,0.7714239120483398
0.6180667877197266,0.7688255310058594
0.6180667877197266,0.7688255310058594
0.6168605804443359,0.7731639862060546
0.6168605804443359,0.7731639862060546
0.6180982589721680,0.7706216812133789
0.6180982589721680,0.7706216812133789
0.6216276168823242,0.7721197128295898
0.6216276168823242,0.7721197128295898
0.6192695617675781,0.7737762451171875
0.6192695617675781,0.7737762451171875
0.6157327651977539,0.7720779418945313
0.6157327651977539,0.7720779418945313
0.6215480804443360,0.7751352310180664
0.6215480804443360,0.7751352310180664
0.6193885803222656,0.7726535797119141
0.6193885803222656,0.7726535797119141
0.6214416503906249,0.7735805511474609
0.6214416503906249,0.7735805511474609
0.6166002273559570,0.7760227203369140
0.6166002273559570,0.7760227203369140
0.6202720642089844,0.7737190246582031
0.6202720642089844,0.7737190246582031
0.6234563827514649,0.7768730163574219
0.6234563827514649,0.7768730163574219
0.6198755264282226,0.7744800567626953
0.6198755264282226,0.7744800567626953
0.6187391281127930,0.7760015487670898
0.6187391281127930,0.7760015487670898
0.6210491180419921,0.7774091720581054
0.6210491180419921,0.7774091720581054
0.6212299346923827,0.7752325057983398
0.6212299346923827,0.7752325057983398
0.6229888916015625,0.7777227401733399
0.6229888916015625,0.7777227401733399
0.6170362472534180,0.7761663436889649
0.6170362472534180,0.7761663436889649
0.6230197906494140,0.7772832870483398
0.6230197906494140,0.7772832870483398
0.6228046417236328,0.7788013458251953
0.6228046417236328,0.7788013458251953
0.6215360641479492,0.7764610290527344
0.6215360641479492,0.7764610290527344
0.6200551986694336,0.7798793792724609
0.6200551986694336,0.7798793792724609
0.6213060379028320,0.7771802902221679
0.6213060379028320,0.7771802902221679
0.6238489151000977,0.7783624649047851
0.6238489151000977,0.7783624649047851
0.6222593307495117,0.7793752670288085
0.6222593307495117,0.7793752670288085
0.6184226989746093,0.7778457641601563
0.6184226989746093,0.7778457641601563
0.6241979598999023,0.7807502746582031
0.6241979598999023,0.7807502746582031
0.6228252410888672,0.7781770706176757
0.6228252410888672,0.7781770706176757
0.6239633560180664,0.7792905807495117
0.6239633560180664,0.7792905807495117
0.6190195083618164,0.7811113357543945
0.6190195083618164,0.7811113357543945
0.6224990844726562,0.7784917831420898
0.6224990844726562,0.7784917831420898
0.6248582839965821,0.7815982818603515
0.6248582839965821,0.7815982818603515
0.6220241546630859,0.7784494400024414
0.6220241546630859,0.7784494400024414
0.6207893371582031,0.7804824829101562
0.6207893371582031,0.7804824829101562
0.6231451034545898,0.7818105697631835
0.6231451034545898,0.7818105697631835
0.6240709304809570,0.7793815612792968
0.6240709304809570,0.7793815612792968
0.6250276565551758,0.7824497222900391
0.6250276565551758,0.7824497222900391
0.6187757492065430,0.7803131103515625
0.6187757492065430,0.7803131103515625
0.6247884750366210,0.7810655593872070
0.6247884750366210,0.7810655593872070
0.6237298965454101,0.7825738906860351
0.6237298965454101,0.7825738906860351
0.6232841491699218,0.7793735504150391
0.6232841491699218,0.7793735504150391
0.6215377807617187,0.7831392288208008
0.6215377807617187,0.7831392288208008
0.6225437164306641,0.7800195693969726
0.6225437164306641,0.7800195693969726
0.6256313323974609,0.7801425933837890
0.6216814041137695,0.7801425933837890
0.6226512908935546,0.7803171157836913
0.6226512908935546,0.7803171157836913
0.6177011489868164,0.7756164550781249
0.6177011489868164,0.7756164550781249
0.6215835571289062,0.7736675262451171
0.6215835571289062,0.7736675262451171
0.6159318923950196,0.7637844085693359
0.6159318923950196,0.7637844085693359
0.6139297485351562,0.7558153152465820
0.6139297485351562,0.7558153152465820
0.6054067611694336,0.7506586074829101
0.6054067611694336,0.7506586074829101
0.6053403854370117,0.7413425445556641
0.6053403854370117,0.7413425445556641
0.6057706832885742,0.7388534545898438
0.6057706832885742,0.7388534545898438
0.5998907089233398,0.7322731018066406
0.5998907089233398,0.7322731018066406
0.5973157882690430,0.7302417755126953
0.5973157882690430,0.7302417755126953
0.5980665206909179,0.7288696289062500
0.5980665206909179,0.7288696289062500
0.5968276977539062,0.7241809844970702
0.5968276977539062,0.7241809844970702
0.5974657058715820,0.7244321823120117
0.5974657058715820,0.7244321823120117
0.5905883789062499,0.7212324142456055
0.5905883789062499,0.7212324142456055
0.5956964492797852,0.7204599380493164
0.5956964492797852,0.7204599380493164
0.5949743270874023,0.7211065292358398
0.5949743270874023,0.7211065292358398
0.5931896209716797,0.7177545547485351
0.5931896209716797,0.7177545547485351
0.5916212081909179,0.7206527709960937
0.5916212081909179,0.7206527709960937
0.5924411773681640,0.7179307937622070
0.5924411773681640,0.7179307937622070
0.5951299667358398,0.7189756393432617
0.5951299667358398,0.7189756393432617
0.5939392089843750,0.7207969665527344
0.5939392089843750,0.7207969665527344
0.5907360076904297,0.7205852508544922
0.5907360076904297,0.7205852508544922
0.5973655700683593,0.7256383895874023
0.5973655700683593,0.7256383895874023
0.5973026275634765,0.7267684936523438
0.5973026275634765,0.7267684936523438
0.6005722045898437,0.7313226699829102
0.6005722045898437,0.7313226699829102
0.5977272033691406,0.7373136520385742
0.5977272033691406,0.7373136520385742
0.6029474258422851,0.7384563446044922
0.6029474258422851,0.7384563446044922
0.6069259643554688,0.7446327209472656
0.6069259643554688,0.7446327209472656
0.6053895950317383,0.7445514678955077
0.6053895950317383,0.7445514678955077
0.6054656982421874,0.7485254287719726
0.6054656982421874,0.7485254287719726
0.6088033676147461,0.7518121719360351
0.6148429870605469,0.7518121719360351
0.6103717803955078,0.7509796142578125
0.6086832046508789,0.7509796142578125
0.6120220184326172,0.7552957534790039
0.6120220184326172,0.7552957534790039
0.6064252853393555,0.7546588897705078
0.6064252853393555,0.7546588897705078
0.6130565643310547,0.7562547683715820
0.6130565643310547,0.7562547683715820
0.6125724792480468,0.7590230941772461
0.6125724792480468,0.7590230941772461
0.6123533248901367,0.7568561553955078
0.6123533248901367,0.7568561553955078
0.6114040374755859,0.7616741180419921
0.6114040374755859,0.7616741180419921
0.6127292633056640,0.7600765228271484
0.6127292633056640,0.7600765228271484
0.6167055130004883,0.7615213394165039
0.6167055130004883,0.7615213394165039
0.6147136688232422,0.7638290405273437
0.6147136688232422,0.7638290405273437
0.6110246658325195,0.7624380111694335
0.6110246658325195,0.7624380111694335
0.6195774078369141,0.7656589508056640
0.6195774078369141,0.7656589508056640
0.6149808883666992,0.7641529083251953
0.6149808883666992,0.7641529083251953
0.6174636840820312,0.7648138046264649
0.6174636840820312,0.7648138046264649
0.6128339767456055,0.7678842544555664
0.6128339767456055,0.7678842544555664
0.6163948059082031,0.7655759811401367
0.6163948059082031,0.7655759811401367
0.6199081420898437,0.7689817428588867
0.6199081420898437,0.7689817428588867
0.6161802291870117,0.7671014785766601
0.6161802291870117,0.7671014785766601
0.6152503967285156,0.7685176849365234
0.6152503967285156,0.7685176849365234
0.6179466247558594,0.7703950881958007
0.6179466247558594,0.7703950881958007
0.6179534912109375,0.7682785034179688
0.6179534912109375,0.7682785034179688
0.6199384689331054,0.7708162307739258
0.6199384689331054,0.7708162307739258
0.6135709762573242,0.7700111389160156
0.6135709762573242,0.7700111389160156
0.6199871063232422,0.7705856323242187
0.6199871063232422,0.7705856323242187
0.6200660705566406,0.7725746154785156
0.6200660705566406,0.7725746154785156
0.6186784744262696,0.7703653335571289
0.6186784744262696,0.7703653335571289
0.6172239303588867,0.7737716674804688
0.6172239303588867,0.7737716674804688
0.6184129714965820,0.7717512130737304
0.6184129714965820,0.7717512130737304
0.6213106155395508,0.7725643157958985
0.6213106155395508,0.7725643157958985
0.6198371887207031,0.7739913940429687
0.6198371887207031,0.7739913940429687
0.6157545089721680,0.7725156784057617
0.6157545089721680,0.7725156784057617
0.6218622207641601,0.7752079010009766
0.6218622207641601,0.7752079010009766
0.6202623367309570,0.7735250473022460
0.6202623367309570,0.7735250473022460
0.6217763900756835,0.7740543365478515
0.6217763900756835,0.7740543365478515
0.6168239593505859,0.7763706207275390
0.6168239593505859,0.7763706207275390
0.6202720642089844,0.7738340377807617
0.6202720642089844,0.7738340377807617
0.6228595733642578,0.7767179489135742
0.6228595733642578,0.7767179489135742
0.6197616577148437,0.7743507385253906
0.6197616577148437,0.7743507385253906
0.6186573028564453,0.7757532119750976
0.6186573028564453,0.7757532119750976
0.6213907241821289,0.7774291992187500
0.6213907241821289,0.7774291992187500
0.6220705032348632,0.7750534057617188
0.6220705032348632,0.7750534057617188
0.6231822967529297,0.7778846740722656
0.6212722778320312,0.7754871368408203
0.6165584564208985,0.7764438629150391
0.6199676513671875,0.7764438629150391
0.6229780197143554,0.7767339706420898
0.6229780197143554,0.7767339706420898
0.6221986770629883,0.7787275314331055
0.6221986770629883,0.7787275314331055
0.6214164733886719,0.7757177352905273
0.6214164733886719,0.7757177352905273
0.6199310302734374,0.7793340682983398
0.6199310302734374,0.7793340682983398
0.6208774566650390,0.7773468017578125
0.6208774566650390,0.7773468017578125
0.6247272491455078,0.7778915405273438
0.6247272491455078,0.7778915405273438
0.6223308563232421,0.7797231674194336
0.6223308563232421,0.7797231674194336
0.6180152893066406,0.7774435043334961
0.6180152893066406,0.7774435043334961
0.6242162704467773,0.7801151275634766
0.6242162704467773,0.7801151275634766
0.6216030120849609,0.7783224105834960
0.6216030120849609,0.7783224105834960
0.6239004135131836,0.7780494689941406
0.6239004135131836,0.7780494689941406
0.6188100814819336,0.7807302474975586
0.6188100814819336,0.7807302474975586
0.6221179962158203,0.7778274536132812
0.6221179962158203,0.7778274536132812
0.6253297805786132,0.7800670623779297
0.6253297805786132,0.7800670623779297
0.6208248138427734,0.7772329330444335
0.6208248138427734,0.7772329330444335
0.6190481185913086,0.7761737823486328
0.6190481185913086,0.7761737823486328
0.6203990936279297,0.7749132156372071
0.6203990936279297,0.7749132156372071
0.6179780960083008,0.7669538497924805
0.6179780960083008,0.7669538497924805
0.6164205551147460,0.7614841461181641
0.6164205551147460,0.7614841461181641
0.6061586380004883,0.7525314331054688
0.6061586380004883,0.7525314331054688
0.6089246749877929,0.7454893112182617
0.6089246749877929,0.7454893112182617
0.6056419372558594,0.7412858963012695
0.6056419372558594,0.7412858963012695
0.6016370773315429,0.7338569641113281
0.6016370773315429,0.7338569641113281
0.5984006881713867,0.7332532882690429
0.5984006881713867,0.7332532882690429
0.5977415084838867,0.7285509109497070
0.5977415084838867,0.7285509109497070
0.5994792938232422,0.7266466140747070
0.5994792938232422,0.7266466140747070
0.5970932006835937,0.7263221740722656
0.5970932006835937,0.7263221740722656
0.5922552108764648,0.7230503082275390
0.5975269317626953,0.7242805480957031
0.5951642990112305,0.7216838836669922
0.5951642990112305,0.7216838836669922
0.5963899612426757,0.7214635848999024
0.5963899612426757,0.7214635848999024
0.5915193557739258,0.7234863281250000
0.5915193557739258,0.7234863281250000
0.5947700500488281,0.7208713531494141
0.5947700500488281,0.7208713531494141
0.5974067687988281,0.7240940093994140
0.5974067687988281,0.7240940093994140
0.5946470260620117,0.7228958129882812
0.5946470260620117,0.7228958129882812
0.5944576263427734,0.7259576797485351
0.5944576263427734,0.7259576797485351
0.5983137130737305,0.7307847976684571
0.5983137130737305,0.7307847976684571
0.6006734848022460,0.7320241928100586
0.6006734848022460,0.7320241928100586
0.6037359237670898,0.7386720657348632
0.6037359237670898,0.7386720657348632
0.5990175247192383,0.7411588668823242
0.5990175247192383,0.7411588668823242
0.6071731567382812,0.7444639205932617
0.6071731567382812,0.7444639205932617
0.6075960159301758,0.7489311218261718
0.6075960159301758,0.7489311218261718
0.6079319000244140,0.7481248855590820
0.6079319000244140,0.7481248855590820
0.6073167800903320,0.7533857345581054
0.6073167800903320,0.7533857345581054
0.6089172363281250,0.7530286788940429
0.6089172363281250,0.7530286788940429
0.6133535385131835,0.7546480178833007
0.6133535385131835,0.7546480178833007
0.6117084503173827,0.7576011657714844
0.6117084503173827,0.7576011657714844
0.6078111648559570,0.7563617706298827
0.6078111648559570,0.7563617706298827
0.6144304275512695,0.7597526550292969
0.6144304275512695,0.7597526550292969
0.6121461868286132,0.7589687347412110
0.6121461868286132,0.7589687347412110
0.6149288177490234,0.7594282150268554
0.6149288177490234,0.7594282150268554
0.6104393005371094,0.7629987716674804
0.6104393005371094,0.7629987716674804
0.6139268875122070,0.7610864639282227
0.6139268875122070,0.7610864639282227
0.6177011489868164,0.7644006729125976
0.6177011489868164,0.7644006729125976
0.6139303207397461,0.7633844375610351
0.6139303207397461,0.7633844375610351
0.6131275177001952,0.7644624710083008
0.6131275177001952,0.7644624710083008
0.6161218643188476,0.7668445587158202
0.6161218643188476,0.7668445587158202
0.6160743713378906,0.7648057937622070
0.6160743713378906,0.7648057937622070
0.6183963775634765,0.7673927307128906
0.6183963775634765,0.7673927307128906
0.6116758346557617,0.7670820236206054
0.6154026031494141,0.7670820236206054
0.6184587478637695,0.7675769805908202
0.6200071334838867,0.7675769805908202
0.6187608718872070,0.7698612213134766
0.6187608718872070,0.7698612213134766
0.6172525405883789,0.7677789688110351
0.6172525405883789,0.7677789688110351
0.6159204483032227,0.7710233688354492
0.6159204483032227,0.7710233688354492
0.6169864654541015,0.7696031570434571
0.6169864654541015,0.7696031570434571
0.6200963973999023,0.7701004028320312
0.6200963973999023,0.7701004028320312
0.6189165115356445,0.7718650817871093
0.6189165115356445,0.7718650817871093
0.6145214080810547,0.7704511642456054
0.6145214080810547,0.7704511642456054
0.6209215164184571,0.7729906082153321
0.6209215164184571,0.7729906082153321
0.6190670013427734,0.7717203140258789
0.6190670013427734,0.7717203140258789
0.6208019256591797,0.7720676422119140
0.6208019256591797,0.7720676422119140
0.6158632278442383,0.7746076583862305
0.6158632278442383,0.7746076583862305
0.6194292068481445,0.7720602035522460
0.6194292068481445,0.7720602035522460
0.6220201492309571,0.7747993469238281
0.6220201492309571,0.7747993469238281
0.6187471389770508,0.7729362487792969
0.6187471389770508,0.7729362487792969
0.6175449371337890,0.7741338729858398
0.6175449371337890,0.7741338729858398
0.6206926345825196,0.7760547637939453
0.6206926345825196,0.7760547637939453
0.6212081909179688,0.7737213134765625
0.6212081909179688,0.7737213134765625
0.6224029541015624,0.7762979507446289
0.6204969406127929,0.7762979507446289
0.6154500961303710,0.7752490997314453
0.6154500961303710,0.7752490997314453
0.6221878051757812,0.7752187728881835
0.6221878051757812,0.7752187728881835
0.6215658187866211,0.7773439407348632
0.6215658187866211,0.7773439407348632
0.6200763702392578,0.7743289947509765
0.6198898315429687,0.7743289947509765
0.6191339492797852,0.7779653549194335
0.6191339492797852,0.7779653549194335
0.6199264526367188,0.7762081146240234
0.6199264526367188,0.7762081146240234
0.6237756729125976,0.7766555786132813
0.6237756729125976,0.7766555786132813
0.6217998504638672,0.7785890579223632
0.6217998504638672,0.7785890579223632
0.6171792984008789,0.7763717651367187
0.6171792984008789,0.7763717651367187
0.6236337661743164,0.7788099288940430
0.6236337661743164,0.7788099288940430
0.6208047866821289,0.7774354934692382
0.6208047866821289,0.7774354934692382
0.6231777191162109,0.7769153594970702
0.6231777191162109,0.7769153594970702
0.6182567596435546,0.7798112869262696
0.6182567596435546,0.7798112869262696
0.6215990066528320,0.7770383834838867
0.6215990066528320,0.7770383834838867
0.6249715805053710,0.7791418075561524
0.6249715805053710,0.7791418075561524
0.6236927032470703,0.7770160675048828
0.6236927032470703,0.7770160675048828
0.6155061721801758,0.7758504867553710
0.6155061721801758,0.7758504867553710
0.6206148147583007,0.7748977661132812
0.6247426986694335,0.7748977661132812
0.6178613662719726,0.7665945053100586
0.6178613662719726,0.7665945053100586
0.6158746719360352,0.7594081878662109
0.6158746719360352,0.7594081878662109
0.6040140151977539,0.7487800598144531
0.6040140151977539,0.7487800598144531
0.6060201644897460,0.7392213821411132
0.6060201644897460,0.7392213821411132
0.6023769378662109,0.7338626861572265
0.6023769378662109,0.7338626861572265
0.5975864410400390,0.7256401062011718
0.5975864410400390,0.7256401062011718
0.5940261840820312,0.7240373611450195
0.5940261840820312,0.7240373611450195
0.5927410125732422,0.7190803527832031
0.5927410125732422,0.7190803527832031
0.5942596435546875,0.7164527893066406
0.5942596435546875,0.7164527893066406
0.5921373367309570,0.7159761428833008
0.5921373367309570,0.7159761428833008
0.5867408752441406,0.7125228881835938
0.5867408752441406,0.7125228881835938
0.5922557830810546,0.7135877609252930
0.5922557830810546,0.7135877609252930
0.5896179199218750,0.7111461639404296
0.5896179199218750,0.7111461639404296
0.5909185409545898,0.7103027343750000
0.5909185409545898,0.7103027343750000
0.5861869812011719,0.7122871398925781
0.5861869812011719,0.7122871398925781
0.5889873504638672,0.7094083786010742
0.5889873504638672,0.7094083786010742
0.5916612625122070,0.7118528366088867
0.5916612625122070,0.7118528366088867
0.5883773803710938,0.7103731155395507
0.5883773803710938,0.7103731155395507
0.5876976013183594,0.7121297836303710
0.5876976013183594,0.7121297836303710
0.5916074752807617,0.7156425476074219
0.5916074752807617,0.7156425476074219
0.5930471420288086,0.7160493850708007
0.5930471420288086,0.7160493850708007
0.5960575103759765,0.7219991683959961
0.5960575103759765,0.7219991683959961
0.5909671783447266,0.7249397277832031
0.5909671783447266,0.7249397277832031
0.5995193481445312,0.7285652160644531
0.5995193481445312,0.7285652160644531
0.6008600234985352,0.7343061447143554
0.6008600234985352,0.7343061447143554
0.6012651443481445,0.7343273162841797
0.6012651443481445,0.7343273162841797
0.6010929107666015,0.7400436401367188
0.6010929107666015,0.7400436401367188
0.6027946472167969,0.7407148361206054
0.6027946472167969,0.7407148361206054
0.6074821472167968,0.7425521850585938
0.6074821472167968,0.7425521850585938
0.6066221237182617,0.7462177276611328
0.6066221237182617,0.7462177276611328
0.6026058197021484,0.7456460952758789
0.6026058197021484,0.7456460952758789
0.6096347808837891,0.7493322372436523
0.6096347808837891,0.7493322372436523
0.6073093414306641,0.7494409561157226
0.6073093414306641,0.7494409561157226
0.6102956771850586,0.7502260208129883
0.6102956771850586,0.7502260208129883
0.6066055297851562,0.7543991088867187
0.6079502105712891,0.7543991088867187
0.6102224349975586,0.7528701782226562
0.6102224349975586,0.7528701782226562
0.6142547607421874,0.7565774917602539
0.6142547607421874,0.7565774917602539
0.6104175567626953,0.7563949584960937
0.6104175567626953,0.7563949584960937
0.6095701217651367,0.7577505111694336
0.6095701217651367,0.7577505111694336
0.6136516571044922,0.7606916427612305
0.6136516571044922,0.7606916427612305
0.6133604049682617,0.7590980529785156
0.6133604049682617,0.7590980529785156
0.6158718109130860,0.7618160247802734
0.6158718109130860,0.7618160247802734
0.6089223861694336,0.7621793746948242
0.6089223861694336,0.7621793746948242
0.6161378860473633,0.7625856399536133
0.6161378860473633,0.7625856399536133
0.6169023513793945,0.7653728485107422
0.6169023513793945,0.7653728485107422
0.6152103424072265,0.7634410858154297
0.6152103424072265,0.7634410858154297
0.6139017105102539,0.7666831970214844
0.6139017105102539,0.7666831970214844
0.6148572921752929,0.7657648086547851
0.6148572921752929,0.7657648086547851
0.6180513381958007,0.7661424636840820
0.6180513381958007,0.7661424636840820
0.6175449371337890,0.7682424545288086
0.6175449371337890,0.7682424545288086
0.6127315521240234,0.7669258117675781
0.6127315521240234,0.7669258117675781
0.6217329025268554,0.7672885894775391
0.6217329025268554,0.7672885894775391
0.6217329025268554,0.7678155899047852
0.6194990158081054,0.7692604064941406
0.6187837600708007,0.7692604064941406
0.6168994903564453,0.7680644989013672
0.6168994903564453,0.7680644989013672
0.6199865341186523,0.7706880569458008
0.6199865341186523,0.7706880569458008
0.6213798522949219,0.7715738296508788
0.6213798522949219,0.7715738296508788
0.6189050674438477,0.7684507369995117
0.6170963287353516,0.7684507369995117
0.6204534530639648,0.7729104995727539
0.6204534530639648,0.7729104995727539
0.6177154541015625,0.7700723648071289
0.6177154541015625,0.7700723648071289
0.6249938964843750,0.7725648880004883
0.6249938964843750,0.7725648880004883
0.6185211181640625,0.7718673706054687
0.6185211181640625,0.7718673706054687
0.6197547912597656,0.7717609405517578
0.6197547912597656,0.7717609405517578
0.6210891723632812,0.7749853134155273
0.6210891723632812,0.7749853134155273
0.6226753234863281,0.7720178604125977
0.6226753234863281,0.7720178604125977
0.6219463348388672,0.7727153778076171
0.6219463348388672,0.7727153778076171
0.6192661285400390,0.7749097824096679
0.6192661285400390,0.7749097824096679
0.6201908111572265,0.7733448028564452
0.6201908111572265,0.7733448028564452
0.6259145736694336,0.7764369964599609
0.6259145736694336,0.7764369964599609
0.6195024490356446,0.7717048645019531
0.6195024490356446,0.7717048645019531
0.6225225448608398,0.7755432128906250
0.6225225448608398,0.7755432128906250
0.6196271896362304,0.7763935089111328
0.6196271896362304,0.7763935089111328
0.6250619888305664,0.7747283935546875
0.6250619888305664,0.7747283935546875
0.6235010147094726,0.7772970199584961
0.6235010147094726,0.7772970199584961
0.6194417953491210,0.7742179870605469
0.6194417953491210,0.7742179870605469
0.6239782333374023,0.7771144866943359
0.6239782333374023,0.7771144866943359
0.6241184234619140,0.7784334182739258
0.6241184234619140,0.7784334182739258
0.6217191696166992,0.7738449096679687
0.6217191696166992,0.7738449096679687
0.6242031097412110,0.7799732208251953
0.6242031097412110,0.7799732208251953
0.6193164825439453,0.7756193161010742
0.6193164825439453,0.7756193161010742
0.6286605834960938,0.7782217025756836
0.6286605834960938,0.7782217025756836
0.6207263946533202,0.7776929855346679
0.6207263946533202,0.7776929855346679
0.6217180252075195,0.7757102966308593
0.6217180252075195,0.7757102966308593
0.6227903366088867,0.7758653640747070
0.6227903366088867,0.7750837326049804
0.6232137680053711,0.7722633361816406
0.6168806076049804,0.7638256072998046
0.6168806076049804,0.7652858734130860
0.6149711608886719,0.7652858734130860
0.6058341979980468,0.7445005416870117
0.6058341979980468,0.7453199386596679
0.6044506072998047,0.7338220596313476
0.6044506072998047,0.7338220596313476
0.5995553970336914,0.7284055709838867
0.5995553970336914,0.7284055709838867
0.5900436401367187,0.7183828353881836
0.5900436401367187,0.7183828353881836
0.5955001831054687,0.7173477172851562
0.5955001831054687,0.7173477172851562
0.5893941879272461,0.7120302200317382
0.5893941879272461,0.7120302200317382
0.5905048370361328,0.7081008911132812
0.5905048370361328,0.7081008911132812
0.5854162216186524,0.7096893310546875
0.5854162216186524,0.7096893310546875
0.5858379364013672,0.7029161453247070
0.5858379364013672,0.7029161453247070
0.5893632888793945,0.7051837921142577
0.5893632888793945,0.7051837921142577
0.5832761764526367,0.7014003753662109
0.5832761764526367,0.7014003753662109
0.5825414657592773,0.6998033523559570
0.5825414657592773,0.6998033523559570
0.5855804443359375,0.7019033432006836
0.5902341842651367,0.7019033432006836
0.5836521148681640,0.6964176177978515
0.5836521148681640,0.6964176177978515
0.5866453170776367,0.6997077941894531
0.5866453170776367,0.6997077941894531
0.5775266647338867,0.6979253768920898
0.5775266647338867,0.6979253768920898
0.5851575851440429,0.6968130111694336
0.5851575851440429,0.6968130111694336
0.5855609893798828,0.7007938385009765
0.5855609893798828,0.7007938385009765
0.5832166671752930,0.6966688156127929
0.5832166671752930,0.6966688156127929
0.5844274520874023,0.7030385971069336
0.5844274520874023,0.7030385971069336
0.5844371795654296,0.7041515350341797
0.5844371795654296,0.7041515350341797
0.5907760620117187,0.7066263198852539
0.5907760620117187,0.7066263198852539
0.5916669845581054,0.7142435073852539
0.5916669845581054,0.7142435073852539
0.5872095108032226,0.7137771606445312
0.5872095108032226,0.7137771606445312
0.5972316741943359,0.7214332580566406
0.5972316741943359,0.7214332580566406
0.5942304611206054,0.7231910705566406
0.5942304611206054,0.7231910705566406
0.5991336822509765,0.7251857757568360
0.5991336822509765,0.7251857757568360
0.5960208892822265,0.7309387207031249
0.5960208892822265,0.7309387207031249
0.5995222091674804,0.7299196243286132
0.5995222091674804,0.7299196243286132
0.6043344497680664,0.7346683502197265
0.6043344497680664,0.7346683502197265
0.6004915237426758,0.7350122451782226
0.6004915237426758,0.7350122451782226
0.5999948501586914,0.7365428924560546
0.5999948501586914,0.7365428924560546
0.6047573089599609,0.7406656265258789
0.6047573089599609,0.7406656265258789
0.6035276412963867,0.7383304595947265
0.6035276412963867,0.7383304595947265
0.6084211349487304,0.7434762954711914
0.6084211349487304,0.7434762954711914
0.6001161575317383,0.7444393157958984
0.6001161575317383,0.7444393157958984
0.6085836410522460,0.7448375701904296
0.6085836410522460,0.7448375701904296
0.6105239868164062,0.7503244400024414
0.6105239868164062,0.7503244400024414
0.6073493957519531,0.7471046447753906
0.6073493957519531,0.7471046447753906
0.6085298538208007,0.7528713226318359
0.6085298538208007,0.7528713226318359
0.6080572128295898,0.7525234222412109
0.6080572128295898,0.7525234222412109
0.6124351501464843,0.7527242660522461
0.6124351501464843,0.7527242660522461
0.6127893447875976,0.7569963455200195
0.6127893447875976,0.7569963455200195
0.6064767837524414,0.7539258956909179
0.6064767837524414,0.7539258956909179
0.6154827117919922,0.7588954925537109
0.6154827117919922,0.7588954925537109
0.6118846893310547,0.7582185745239257
0.6118846893310547,0.7582185745239257
0.6146306991577148,0.7578020095825195
0.6146306991577148,0.7578020095825195
0.6108856201171875,0.7625982284545898
0.6108856201171875,0.7625982284545898
0.6127801895141601,0.7583427429199219
0.6127801895141601,0.7583427429199219
0.6177721023559570,0.7631921768188477
0.6177721023559570,0.7631921768188477
0.6126543045043945,0.7616987228393555
0.6126543045043945,0.7616987228393555
0.6122652053833008,0.7618165969848633
0.6095237731933594,0.7618165969848633
0.6169441223144531,0.7659931182861328
0.6169441223144531,0.7659931182861328
0.6153791427612304,0.7616712570190429
0.6153791427612304,0.7616712570190429
0.6189468383789062,0.7661252975463867
0.6189468383789062,0.7661252975463867
0.6097864151000977,0.7653476715087890
0.6097864151000977,0.7653476715087890
0.6177932739257812,0.7644121170043945
0.6177932739257812,0.7644121170043945
0.6183723449707031,0.7686235427856445
0.6183723449707031,0.7686235427856445
0.6154764175415038,0.7636144638061523
0.6154764175415038,0.7636144638061523
0.6159101486206054,0.7688810348510742
0.6159101486206054,0.7688810348510742
0.6152069091796875,0.7675111770629882
0.6152069091796875,0.7675111770629882
0.6198440551757812,0.7666231155395508
0.6198440551757812,0.7666231155395508
0.6191505432128906,0.7706565856933594
0.6191505432128906,0.7706565856933594
0.6121576309204101,0.7665149688720703
0.6121576309204101,0.7665149688720703
0.6210886001586914,0.7705724716186523
0.6210886001586914,0.7705724716186523
0.6163061141967773,0.7695779800415039
0.6163061141967773,0.7695779800415039
0.6195425033569336,0.7679574966430663
0.6195425033569336,0.7679574966430663
0.6157287597656250,0.7727445602416992
0.6157287597656250,0.7727445602416992
0.6173303604125976,0.7681440353393555
0.6173303604125976,0.7681440353393555
0.6228515625000000,0.7723239898681641
0.6228515625000000,0.7723239898681641
0.6167844772338867,0.7710760116577148
0.6167844772338867,0.7710760116577148
0.6159828186035156,0.7702371597290039
0.6159828186035156,0.7702371597290039
0.6207281112670898,0.7742122650146485
0.6207281112670898,0.7742122650146485
0.6182373046874999,0.7696334838867187
0.6182373046874999,0.7696334838867187
0.6224607467651367,0.7733018875122070
0.6224607467651367,0.7733018875122070
0.6133226394653321,0.7729202270507812
0.6133226394653321,0.7729202270507812
0.6210067749023437,0.7714376449584961
0.6210067749023437,0.7714376449584961
0.6225700378417969,0.7755535125732421
0.6225700378417969,0.7755535125732421
0.6185462951660156,0.7707967758178711
0.6185462951660156,0.7707967758178711
0.6186864852905273,0.7752960205078124
0.6186864852905273,0.7752960205078124
0.6181652069091796,0.7739748001098633
0.6181652069091796,0.7739748001098633
0.6218061447143555,0.7726959228515625
0.6218061447143555,0.7726959228515625
0.6218055725097656,0.7760261535644531
0.6218055725097656,0.7760261535644531
0.6145729064941406,0.7720865249633789
0.6145729064941406,0.7720865249633789
0.6233156204223632,0.7755569458007813
0.6233156204223632,0.7755569458007813
0.6190933227539063,0.7736103057861328
0.6190933227539063,0.7736103057861328
0.6206073760986328,0.7705976486206054
0.6206073760986328,0.7705976486206054
0.6153522491455078,0.7713266372680664
0.6153522491455078,0.7713266372680664
0.6139434814453125,0.7590803146362305
0.6139434814453125,0.7590803146362305
0.6140018463134765,0.7528203964233399
0.6140018463134765,0.7528203964233399
0.6035408020019531,0.7400470733642578
0.6035408020019531,0.7400470733642578
0.5979509353637695,0.7298835754394531
0.5979509353637695,0.7298835754394531
0.5986341476440430,0.7262506484985352
0.5986341476440430,0.7262506484985352
0.5939718246459961,0.7160448074340821
0.5939718246459961,0.7160448074340821
0.5948547363281250,0.7156574249267578
0.5948547363281250,0.7156574249267578
0.5842889785766602,0.7114179611206054
0.5842889785766602,0.7114179611206054
0.5899532318115234,0.7072414398193360
0.5899532318115234,0.7072414398193360
0.5895051956176758,0.7091056823730468
0.5895051956176758,0.7091056823730468
0.5856130599975585,0.7021808624267578
0.5856130599975585,0.7021808624267578
0.5853675842285156,0.7054275512695313
0.5853675842285156,0.7054275512695313
0.5839937210083007,0.7030008316040038
0.5839937210083007,0.7030008316040038
0.5876993179321289,0.7007280349731445
0.5876993179321289,0.7007280349731445
0.5867151260375977,0.7037916183471680
0.5867151260375977,0.7037916183471680
0.5796787261962890,0.6987258911132812
0.5796787261962890,0.6987258911132812
0.5878286361694336,0.7021705627441406
0.5878286361694336,0.7021705627441406
0.5832921981811523,0.7008041381835938
0.5832921981811523,0.7008041381835938
0.5863140106201171,0.6993204116821289
0.5863140106201171,0.6993204116821289
0.5831342697143554,0.7048742294311523
0.5831342697143554,0.7048742294311523
0.5850448608398438,0.7016418457031249
0.5850448608398438,0.7016418457031249
0.5917224884033203,0.7083503723144531
0.5917224884033203,0.7083503723144531
0.5876752853393554,0.7107948303222656
0.5876752853393554,0.7107948303222656
0.5887928009033203,0.7140552520751953
0.5887928009033203,0.7140552520751953
0.5956323623657226,0.7224248886108399
0.5956323623657226,0.7224248886108399
0.5952232360839843,0.7220964431762695
0.5952232360839843,0.7220964431762695
0.5987846374511718,0.7280199050903320
0.5987846374511718,0.7280199050903320
0.5987846374511718,0.7283163070678711
0.6031929016113281,0.7362304687500000
0.6031311035156249,0.7362304687500000
0.6036397933959960,0.7345699310302735
0.6036397933959960,0.7345699310302735
0.6057008743286133,0.7376901626586914
0.6057008743286133,0.7376901626586914
0.6041095733642577,0.7428611755371094
0.6041095733642577,0.7428611755371094
0.6046949386596679,0.7411308288574219
0.6046949386596679,0.7411308288574219
0.6126194000244141,0.7475526809692382
0.6126194000244141,0.7475526809692382
0.6050233840942383,0.7430196762084961
0.6050233840942383,0.7430196762084961
0.6098876953125000,0.7483400344848633
0.6098876953125000,0.7483400344848633
0.6081768035888672,0.7507919311523438
0.6110813140869140,0.7507919311523438
0.6128374099731445,0.7497665405273437
0.6128374099731445,0.7497665405273437
0.6120643615722656,0.7529840469360352
0.6120643615722656,0.7529840469360352
0.6091724395751953,0.7518602371215820
0.6091724395751953,0.7518602371215820
0.6127252578735352,0.7552288055419921
0.6127252578735352,0.7552288055419921
0.6151668548583984,0.7573991775512695
0.6151668548583984,0.7573991775512695
0.6119201660156249,0.7541982650756835
0.6119201660156249,0.7541982650756835
0.6146438598632812,0.7598419189453125
0.6146438598632812,0.7598419189453125
0.6114234924316406,0.7568933486938476
0.6114234924316406,0.7568933486938476
0.6193284988403320,0.7599695205688476
0.6193284988403320,0.7599695205688476
0.6134531021118164,0.7607408523559570
0.6165967941284179,0.7607408523559570
0.6137197494506835,0.7590562820434570
0.6137197494506835,0.7590562820434570
0.6168273925781250,0.7645597457885742
0.6168273925781250,0.7645597457885742
0.6163501739501953,0.7606327056884765
0.6163501739501953,0.7606327056884765
0.6172937393188477,0.7618572235107421
0.6172937393188477,0.7618572235107421
0.6151571273803711,0.7655490875244141
0.6151571273803711,0.7655490875244141
0.6149688720703125,0.7622509002685547
0.6149688720703125,0.7622509002685547
0.6222713470458984,0.7675266265869141
0.6222713470458984,0.7675266265869141
0.6141328811645508,0.7620117187500000
0.6141328811645508,0.7620117187500000
0.6185514450073242,0.7659158706665039
0.6185514450073242,0.7659158706665039
0.6161024093627929,0.7682882308959961
0.6161024093627929,0.7682882308959961
0.6201038360595703,0.7647565841674805
0.6201038360595703,0.7647565841674805
0.6197038650512695,0.7685016632080078
0.6197038650512695,0.7685016632080078
0.6149087905883789,0.7655107498168945
0.6149087905883789,0.7655107498168945
0.6192838668823242,0.7681291580200195
0.6192838668823242,0.7681291580200195
0.6212368011474609,0.7704431533813476
0.6212368011474609,0.7704431533813476
0.6173223495483399,0.7651536941528320
0.6173223495483399,0.7651536941528320
0.6206251144409179,0.7718204498291016
0.6206251144409179,0.7718204498291016
0.6156806945800781,0.7676805496215821
0.6156806945800781,0.7676805496215821
0.6241756439208984,0.7700929641723633
0.6241756439208984,0.7700929641723633
0.6182813644409180,0.7708242416381835
0.6214015960693359,0.7708242416381835
0.6179878234863281,0.7682859420776367
0.6179878234863281,0.7682859420776367
0.6211091995239257,0.7734918594360352
0.6211091995239257,0.7734918594360352
0.6204500198364258,0.7694046020507812
0.6204500198364258,0.7694046020507812
0.6211984634399413,0.7700649261474609
0.6211984634399413,0.7700649261474609
0.6189720153808593,0.7737218856811523
0.6189720153808593,0.7737218856811523
0.6184198379516601,0.7699390411376953
0.6184198379516601,0.7699390411376953
0.6259117126464844,0.7750728607177734
0.6259117126464844,0.7750728607177734
0.6172428131103516,0.7693376541137695
0.6172428131103516,0.7693376541137695
0.6216831207275391,0.7728361129760742
0.6216831207275391,0.7728361129760742
0.6194618225097656,0.7750877380371094
0.6194618225097656,0.7750877380371094
0.6230100631713867,0.7711652755737305
0.6230100631713867,0.7711652755737305
0.6227342605590820,0.7747821807861328
0.6227342605590820,0.7747821807861328
0.6179019927978515,0.7718770980834960
0.6179019927978515,0.7718770980834960
0.6219285964965821,0.7741619110107422
0.6219285964965821,0.7741619110107422
0.6240274429321289,0.7763391494750976
0.6240274429321289,0.7763391494750976
0.6197954177856445,0.7706737518310547
0.6197954177856445,0.7706737518310547
0.6230449676513672,0.7770149230957031
0.6230449676513672,0.7770149230957031
0.6179088592529297,0.7725488662719726
0.6179088592529297,0.7725488662719726
0.6260725021362304,0.7742740631103515
0.6260725021362304,0.7742740631103515
0.6199047088623046,0.7738866806030273
0.6199047088623046,0.7738866806030273
0.6186950683593749,0.7693988800048828
0.6186950683593749,0.7693988800048828
0.6204362869262695,0.7711647033691406
0.6204362869262695,0.7711647033691406
0.6168891906738281,0.7600341796875000
0.6168891906738281,0.7600341796875000
0.6133598327636719,0.7513761520385742
0.6133598327636719,0.7513761520385742
0.6067680358886719,0.7453994750976562
0.6067680358886719,0.7453994750976562
0.6018115997314453,0.7326496124267577
0.6018115997314453,0.7326496124267577
0.6055377960205078,0.7310468673706054
0.6055377960205078,0.7310468673706054
0.5945589065551757,0.7202087402343750
0.5945589065551757,0.7202087402343750
0.5967830657958985,0.7196342468261718
0.5967830657958985,0.7196342468261718
0.5928056716918945,0.7189647674560546
0.5928056716918945,0.7189647674560546
0.5948078155517578,0.7124502182006835
0.5891670227050781,0.7124502182006835
0.5936771392822265,0.7144432067871094
0.5936771392822265,0.7144432067871094
0.5882085800170899,0.7098621368408203
0.5882085800170899,0.7098621368408203
0.5916715621948242,0.7107765197753906
0.5916715621948242,0.7107765197753906
0.5930494308471680,0.7123981475830078
0.5930494308471680,0.7123981475830078
0.5887046813964844,0.7062229156494141
0.5887046813964844,0.7062229156494141
0.5919416427612304,0.7125904083251953
0.5919416427612304,0.7125904083251953
0.5869966506958008,0.7084671020507812
0.5869966506958008,0.7084671020507812
0.5951076507568359,0.7107318878173828
0.5951076507568359,0.7107318878173828
0.5901580810546875,0.7126001358032227
0.5901580810546875,0.7126001358032227
0.5902582168579101,0.7111118316650390
0.5902582168579101,0.7111118316650390
0.5946865081787109,0.7191484451293945
0.5946865081787109,0.7191484451293945
0.5954772949218750,0.7189086914062500
0.5954772949218750,0.7189086914062500
0.5983623504638672,0.7237518310546874
0.5983623504638672,0.7237518310546874
0.5985048294067382,0.7318822860717773
0.5985048294067382,0.7318822860717773
0.5999547958374023,0.7320133209228515
0.5999547958374023,0.7320133209228515
0.6084096908569335,0.7400630950927735
0.6084096908569335,0.7400630950927735
0.6023054122924805,0.7379350662231445
0.6023054122924805,0.7379350662231445
0.6073390960693359,0.7433269500732421
0.6073390960693359,0.7433269500732421
0.6062072753906250,0.7476963043212891
0.6062072753906250,0.7476963043212891
0.6103797912597656,0.7451808929443359
0.6103797912597656,0.7451808929443359
0.6109004974365234,0.7504537582397460
0.6109004974365234,0.7504537582397460
0.6067892074584961,0.7489528656005859
0.6067892074584961,0.7489528656005859
0.6113496780395508,0.7520936965942383
0.6113496780395508,0.7520936965942383
0.6139480590820312,0.7556419372558594
0.6139480590820312,0.7556419372558594
0.6101486206054687,0.7508972167968749
0.6101486206054687,0.7508972167968749
0.6140087127685546,0.7584852218627930
0.6131286621093750,0.7584852218627930
0.6096176147460938,0.7552797317504882
0.6096176147460938,0.7552797317504882
0.6181142807006835,0.7580217361450196
0.6181142807006835,0.7580217361450196
0.6131092071533203,0.7597743988037109
0.6131092071533203,0.7597743988037109
0.6126829147338867,0.7575593948364258
0.6126829147338867,0.7575593948364258
0.6161155700683594,0.7635732650756836
0.6161155700683594,0.7635732650756836
0.6157642364501953,0.7601005554199218
0.6157642364501953,0.7601005554199218
0.6164646148681641,0.7608530044555664
0.6164646148681641,0.7608530044555664
0.6149791717529297,0.7652338027954101
0.6149791717529297,0.7652338027954101
0.6142644882202148,0.7614429473876952
0.6142644882202148,0.7614429473876952
0.6219200134277344,0.7673543930053711
0.6219200134277344,0.7673543930053711
0.6138587951660156,0.7620592117309570
0.6138587951660156,0.7620592117309570
0.6179821014404296,0.7654684066772460
0.6179821014404296,0.7654684066772460
0.6162528991699219,0.7685113906860351
0.6162528991699219,0.7685113906860351
0.6196249008178710,0.7644927978515624
0.6196249008178710,0.7644927978515624
0.6195762634277343,0.7685354232788085
0.6195762634277343,0.7685354232788085
0.6150609970092773,0.7660709381103515
0.6150609970092773,0.7660709381103515
0.6189754486083984,0.7680456161499023
0.6189754486083984,0.7680456161499023
0.6213712692260742,0.7708751678466796
0.6213712692260742,0.7708751678466796
0.6171054840087891,0.7651828765869141
