REDsignal,IRsignal
0.4013454437255859,0.5878749847412109
0.4013454437255859,0.5878749847412109
0.3944028854370117,0.5836956024169921
0.3944028854370117,0.5836956024169921
0.3996191024780273,0.5840841293334961
0.3996191024780273,0.5840841293334961
0.3971969604492188,0.5878915786743164
0.3971969604492188,0.5878915786743164
0.3965126037597656,0.5818536758422851
0.3965126037597656,0.5818536758422851
0.4013980865478515,0.5904985427856445
0.4013980865478515,0.5904985427856445
0.3951089859008789,0.5837739944458008
0.3951089859008789,0.5837739944458008
0.4000368118286133,0.5856462478637695
0.4000368118286133,0.5856462478637695
0.3985851287841797,0.5897598266601562
0.3985851287841797,0.5897598266601562
0.3967884063720703,0.5851369857788086
0.3967884063720703,0.5851369857788086
0.4021997451782227,0.5904384613037109
0.4021997451782227,0.5904384613037109
0.3955610275268555,0.5852491378784179
0.3955610275268555,0.5852491378784179
0.4014478683471679,0.5867025375366210
0.4014478683471679,0.5867025375366210
0.3987327575683594,0.5921613693237304
0.3987327575683594,0.5921613693237304
0.3972925186157226,0.5845819473266601
0.3972925186157226,0.5845819473266601
0.4020795822143555,0.5910884857177734
0.4020795822143555,0.5910884857177734
0.3965475082397461,0.5862556457519531
0.3965475082397461,0.5862556457519531
0.4014444351196289,0.5889261245727538
0.4014444351196289,0.5889261245727538
0.3990812301635742,0.5914432525634765
0.3990812301635742,0.5914432525634765
0.3974281311035156,0.5853389739990235
0.3974281311035156,0.5853389739990235
0.4035232543945312,0.5921144485473633
0.4035232543945312,0.5921144485473633
0.3963460922241211,0.5887842178344727
0.3963460922241211,0.5887842178344727
0.4019136428833008,0.5882217407226562
0.4019136428833008,0.5882217407226562
0.3991046905517578,0.5925458908081055
0.3991046905517578,0.5925458908081055
0.3985759735107422,0.5863895416259766
0.3985759735107422,0.5863895416259766
0.4034505844116211,0.5946687698364258
0.4034505844116211,0.5946687698364258
0.3967071533203125,0.5884059906005860
0.3967071533203125,0.5884059906005860
0.4023330688476562,0.5891223907470703
0.4023330688476562,0.5891223907470703
0.4006021499633789,0.5937561035156250
0.4006021499633789,0.5937561035156250
0.3985433578491211,0.5891578674316406
0.3985433578491211,0.5891578674316406
0.4040393829345703,0.5942745208740234
0.4040393829345703,0.5942745208740234
0.3968461990356445,0.5897901535034179
0.3968461990356445,0.5897901535034179
0.4033761978149414,0.5902891159057617
0.4033761978149414,0.5902891159057617
0.4008710861206055,0.5963081359863281
0.4044490814208984,0.5963081359863281
0.3990749359130859,0.5886795043945312
0.3981822967529297,0.5886795043945312
0.4044038772583008,0.5951637268066406
0.4044038772583008,0.5951637268066406
0.3983922958374023,0.5909934997558594
0.3983922958374023,0.5909934997558594
0.4033802032470703,0.5928995132446289
0.3970659255981445,0.5928995132446289
0.4013929367065430,0.5957668304443359
0.4013929367065430,0.5957668304443359
0.3990234375000000,0.5897169113159180
0.3990234375000000,0.5897169113159180
0.4054967880249024,0.5961158752441406
0.4054967880249024,0.5961158752441406
0.3982263565063476,0.5934728622436524
0.3982263565063476,0.5934728622436524
0.4037303924560547,0.5917013168334960
0.4037303924560547,0.5917013168334960
0.4014015197753906,0.5957324981689452
0.4014015197753906,0.5957324981689452
0.3996047973632812,0.5886646270751953
0.3996047973632812,0.5886646270751953
0.4040290832519531,0.5950092315673828
0.4040290832519531,0.5950092315673828
0.3964141845703125,0.5884334564208984
0.3964141845703125,0.5884334564208984
0.4011795043945313,0.5869468688964844
0.4011795043945313,0.5869468688964844
0.3995590209960938,0.5907108306884765
0.3995590209960938,0.5907108306884765
0.3964651107788086,0.5849819183349609
0.3964651107788086,0.5849819183349609
0.4018123626708984,0.5887899398803711
0.4018123626708984,0.5887899398803711
0.3941711425781250,0.5842929840087890
0.3941711425781250,0.5842929840087890
0.4004253387451172,0.5832618713378906
0.4004253387451172,0.5832618713378906
0.3976203918457031,0.5894205093383789
0.3976203918457031,0.5894205093383789
0.3952634811401367,0.5810525894165038
0.3924997329711914,0.5879693984985351
0.4003910064697265,0.5867551803588867
0.3949802398681641,0.5867551803588867
0.3940074920654297,0.5829700469970703
0.3993175506591797,0.5837928771972656
0.3993175506591797,0.5837928771972656
0.3973989486694336,0.5871551513671874
0.3973989486694336,0.5871551513671874
0.3950443267822266,0.5808294296264648
0.3950443267822266,0.5808294296264648
0.4014970779418945,0.5869571685791015
0.4014970779418945,0.5869571685791015
0.3938232421875000,0.5853240966796874
0.3938232421875000,0.5853240966796874
0.3997535705566406,0.5832698822021484
0.3997535705566406,0.5832698822021484
0.3976015090942382,0.5885272979736328
0.3976015090942382,0.5885272979736328
0.3963747024536133,0.5824447631835937
0.3963747024536133,0.5824447631835937
0.4017551422119141,0.5897689819335937
0.4017551422119141,0.5897689819335937
0.3945699691772461,0.5853269577026367
0.3945699691772461,0.5853269577026367
0.4002038955688477,0.5846511840820312
0.3941831588745117,0.5846511840820312
0.3992992401123047,0.5897569656372070
0.4018730163574218,0.5897569656372070
0.3963844299316406,0.5852233886718750
0.3963844299316406,0.5852233886718750
0.4023050308227539,0.5893804550170898
0.4023050308227539,0.5893804550170898
0.3946397781372070,0.5864398956298827
0.3946397781372070,0.5864398956298827
0.4012138366699219,0.5857360839843749
0.4012138366699219,0.5857360839843749
0.3992368698120117,0.5924177169799805
0.3992368698120117,0.5924177169799805
0.3968627929687500,0.5845956802368164
0.3968627929687500,0.5845956802368164
0.4025138854980468,0.5900945663452148
0.4025138854980468,0.5900945663452148
0.3958671569824219,0.5874504089355469
0.3958671569824219,0.5874504089355469
0.4010885238647461,0.5881816864013671
0.4010885238647461,0.5881816864013671
0.3997501373291015,0.5917757034301757
0.3997501373291015,0.5917757034301757
0.3968233108520507,0.5856210708618164
0.3968233108520507,0.5856210708618164
0.4037160873413086,0.5912395477294922
0.4037160873413086,0.5912395477294922
0.3959232330322265,0.5903142929077149
0.3959232330322265,0.5903142929077149
0.4015096664428711,0.5878120422363281
0.4015096664428711,0.5878120422363281
0.4003040313720703,0.5928857803344726
0.4003040313720703,0.5928857803344726
0.3981971740722656,0.5866802215576171
0.3981971740722656,0.5866802215576171
0.4035123825073242,0.5935523986816406
0.4035123825073242,0.5935523986816406
0.3960348129272461,0.5894279479980469
0.3960348129272461,0.5894279479980469
0.4012086868286133,0.5884849548339843
0.4012086868286133,0.5884849548339843
0.4014020919799804,0.5939048767089844
0.4014020919799804,0.5939048767089844
0.3979894638061524,0.5893203735351562
0.3979894638061524,0.5893203735351562
0.4039770126342773,0.5932926177978516
0.4039770126342773,0.5932926177978516
0.3964576721191406,0.5908206939697266
0.3964576721191406,0.5908206939697266
0.4028617858886719,0.5899635314941406
0.4028617858886719,0.5899635314941406
0.4015079498291015,0.5966674804687500
0.4015079498291015,0.5966674804687500
0.3984621047973633,0.5888368606567382
0.3984621047973633,0.5888368606567382
0.4041229248046875,0.5944581985473633
0.4041229248046875,0.5944581985473633
0.3973508834838867,0.5917974472045898
0.3973508834838867,0.5917974472045898
0.4025413513183594,0.5921808242797851
0.4025413513183594,0.5921808242797851
0.4017511367797851,0.5955373764038085
0.4017511367797851,0.5955373764038085
0.3981691360473633,0.5884626388549804
0.3981691360473633,0.5884626388549804
0.4044273376464844,0.5929916381835937
0.4044273376464844,0.5929916381835937
0.3955678939819336,0.5907714843749999
0.3955678939819336,0.5907714843749999
0.4005809783935547,0.5869136810302734
0.4005809783935547,0.5869136810302734
0.3993341445922852,0.5912429809570312
0.3993341445922852,0.5912429809570312
0.3966190338134766,0.5839359283447265
0.3966190338134766,0.5839359283447265
0.4018186569213867,0.5906192779541015
0.4018186569213867,0.5906192779541015
0.3938306808471679,0.5859300613403320
0.3938306808471679,0.5859300613403320
0.3990617752075195,0.5842546463012696
0.3990617752075195,0.5842546463012696
0.3992923736572265,0.5891052246093750
0.3992923736572265,0.5891052246093750
0.3950969696044922,0.5837900161743164
0.3950969696044922,0.5837900161743164
0.4009832382202148,0.5877256393432617
0.4009832382202148,0.5877256393432617
0.3927824020385742,0.5850654602050781
0.3927824020385742,0.5850654602050781
0.3992116928100586,0.5836830139160156
0.3992116928100586,0.5836830139160156
0.3988082885742187,0.5907457351684570
0.3988082885742187,0.5907457351684570
0.3951313018798828,0.5825826644897460
0.3951313018798828,0.5825826644897460
0.4012573242187500,0.5884763717651367
0.4012573242187500,0.5884763717651367
0.3943593978881836,0.5864290237426758
0.3943593978881836,0.5864290237426758
0.3993141174316406,0.5868495941162110
0.3993141174316406,0.5868495941162110
0.3997352600097656,0.5910375595092773
0.3997352600097656,0.5910375595092773
0.3955615997314453,0.5844909667968750
0.3955615997314453,0.5844909667968750
0.4027467727661133,0.5906707763671875
0.4027467727661133,0.5906707763671875
0.3948308944702149,0.5900922775268554
0.3948308944702149,0.5900922775268554
0.4001398086547852,0.5873044967651367
0.4001398086547852,0.5873044967651367
0.4006925582885742,0.5929063796997071
0.4006925582885742,0.5929063796997071
0.3972507476806640,0.5860839843750000
0.3972507476806640,0.5860839843750000
0.4031032562255859,0.5938264846801757
0.4031032562255859,0.5938264846801757
0.3956193923950195,0.5899972915649414
0.3956193923950195,0.5899972915649414
0.4002468109130859,0.5884672164916992
0.4002468109130859,0.5884672164916992
0.4020183563232422,0.5941257476806641
0.4020183563232422,0.5941257476806641
0.3973062515258789,0.5888317108154296
0.3973062515258789,0.5888317108154296
0.4035312652587891,0.5933120727539062
0.4035312652587891,0.5933120727539062
0.3960285186767578,0.5911211013793946
0.3960285186767578,0.5911211013793946
0.4016384124755859,0.5895492553710937
0.4016384124755859,0.5895492553710937
0.4020944595336914,0.5968809127807617
0.4020944595336914,0.5968809127807617
0.3977880477905273,0.5884220123291015
0.3977880477905273,0.5884220123291015
0.4036886215209961,0.5944833755493164
0.4036886215209961,0.5944833755493164
0.3973892211914062,0.5925167083740234
0.3973892211914062,0.5925167083740234
0.4015857696533203,0.5923673629760742
0.4015857696533203,0.5923673629760742
0.4026712417602539,0.5966114044189453
0.4026712417602539,0.5966114044189453
0.3983007431030273,0.5897483825683594
0.3983007431030273,0.5897483825683594
0.4053005218505859,0.5959774017333984
0.4053005218505859,0.5959774017333984
0.3977205276489258,0.5957422256469727
0.3977205276489258,0.5957422256469727
0.4022684097290039,0.5923370361328125
0.4022684097290039,0.5923370361328125
0.4031152725219727,0.5981986999511718
0.4031152725219727,0.5981986999511718
0.3995624542236328,0.5911685943603515
0.3995624542236328,0.5911685943603515
0.4055339813232422,0.5990501403808594
0.4055339813232422,0.5990501403808594
0.3984403610229492,0.5954984664916992
0.3984403610229492,0.5954984664916992
0.4028331756591797,0.5935432434082031
0.4028331756591797,0.5935432434082031
0.4047203063964844,0.5995931625366211
0.4047203063964844,0.5995931625366211
0.3996185302734375,0.5940988540649413
0.3996185302734375,0.5940988540649413
0.4061433792114258,0.5985197067260742
0.4061433792114258,0.5985197067260742
0.3985101699829102,0.5963447570800781
0.3985101699829102,0.5963447570800781
0.4034374237060547,0.5936525344848632
0.4034374237060547,0.5936525344848632
0.4040079116821289,0.6003833770751953
0.4040079116821289,0.6003833770751953
0.3986177444458008,0.5901969909667969
0.3986177444458008,0.5901969909667969
0.4044347763061523,0.5949319839477539
0.4044347763061523,0.5949319839477539
0.3975231170654297,0.5919816970825195
0.3975231170654297,0.5919816970825195
0.4004556655883789,0.5901334762573242
0.4004556655883789,0.5901334762573242
0.4014982223510742,0.5934740066528320
0.4014982223510742,0.5934740066528320
0.3957298278808594,0.5851902008056641
0.3991184234619141,0.5851902008056641
0.4027336120605469,0.5902009963989258
0.4027336120605469,0.5902009963989258
0.3951124191284179,0.5897392272949219
0.3951124191284179,0.5897392272949219
0.3986680984497070,0.5849378585815429
0.3986680984497070,0.5849378585815429
0.3999183654785156,0.5904659271240235
0.3999183654785156,0.5904659271240235
0.3953916549682617,0.5827468872070313
0.3953916549682617,0.5827468872070313
0.4012081146240234,0.5900876998901367
0.4012081146240234,0.5900876998901367
0.3944543838500976,0.5869937896728515
0.3944543838500976,0.5869937896728515
0.3978641510009766,0.5842214584350586
0.3978641510009766,0.5842214584350586
0.4003412246704102,0.5902994155883788
0.4003412246704102,0.5902994155883788
0.3950374603271484,0.5844480514526367
0.3950374603271484,0.5844480514526367
0.4015966415405273,0.5888666152954102
0.4015966415405273,0.5888666152954102
0.3947410583496094,0.5876712799072266
0.3947410583496094,0.5876712799072266
0.3992300033569336,0.5851793289184570
0.3992300033569336,0.5851793289184570
0.4006267547607422,0.5932102203369141
0.4006267547607422,0.5932102203369141
0.3956056594848633,0.5841899871826172
0.3956056594848633,0.5841899871826172
0.4019691467285156,0.5902559280395507
0.4019691467285156,0.5902559280395507
0.3961612701416016,0.5896242141723632
0.3961612701416016,0.5896242141723632
0.3994743347167969,0.5884094238281250
0.3994743347167969,0.5884094238281250
0.4013774871826172,0.5930814743041992
0.4013774871826172,0.5930814743041992
0.3962779998779297,0.5856582641601562
0.3962779998779297,0.5856582641601562
0.4035140991210938,0.5914472579956055
0.4035140991210938,0.5914472579956055
0.3963478088378906,0.5925951004028320
0.3963478088378906,0.5925951004028320
0.3998720169067383,0.5876941680908203
0.3998720169067383,0.5876941680908203
0.4013900756835938,0.5940416336059570
0.4013900756835938,0.5940416336059570
0.3972747802734375,0.5866252899169921
0.3972747802734375,0.5866252899169921
0.4033098220825195,0.5938053131103516
0.4033098220825195,0.5938053131103516
0.3967134475708008,0.5920171737670898
0.3967134475708008,0.5920171737670898
0.4001970291137695,0.5886812210083008
0.4001970291137695,0.5886812210083008
0.4028137207031250,0.5950309753417968
0.4028137207031250,0.5950309753417968
0.3972696304321289,0.5892162322998047
0.3972696304321289,0.5892162322998047
0.4038053512573242,0.5931816101074219
0.4038053512573242,0.5931816101074219
0.3967586517333984,0.5931180953979492
0.3967586517333984,0.5931180953979492
0.4012596130371094,0.5896110534667969
0.4012596130371094,0.5896110534667969
0.4027599334716797,0.5977724075317382
0.4027599334716797,0.5977724075317382
0.3976593017578125,0.5884815216064453
0.3976593017578125,0.5884815216064453
0.4041549682617188,0.5939237594604492
0.4041549682617188,0.5939237594604492
0.3980644226074219,0.5942316055297852
0.3980644226074219,0.5942316055297852
0.4010496139526367,0.5922351837158203
0.4010496139526367,0.5922351837158203
0.4032337188720703,0.5970239639282227
0.4032337188720703,0.5970239639282227
0.3976587295532226,0.5894290924072265
0.3976587295532226,0.5894290924072265
0.4051139831542969,0.5948953628540039
0.4051139831542969,0.5948953628540039
0.3980335235595703,0.5971326828002930
0.3980335235595703,0.5971326828002930
0.4015937805175781,0.5915422439575195
0.4015937805175781,0.5915422439575195
0.4037658691406250,0.5981094360351562
0.4037658691406250,0.5981094360351562
0.4019044876098632,0.5999708175659180
0.4019044876098632,0.5999708175659180
0.4019044876098632,0.5977947235107421
0.3998817443847656,0.5915760040283203
0.3989198684692383,0.5915760040283203
0.4038728713989257,0.5977483749389648
0.4038728713989257,0.5977483749389648
0.3980129241943359,0.5926076889038085
0.3980129241943359,0.5926076889038085
0.4034185409545898,0.5918209075927734
0.4034185409545898,0.5918209075927734
0.4005374908447266,0.5953119277954101
0.4005374908447266,0.5953119277954101
0.3965429306030273,0.5875202178955078
0.3965429306030273,0.5875202178955078
0.4031633377075195,0.5927976608276367
0.4031633377075195,0.5927976608276367
0.3956342697143554,0.5873937606811523
0.3956342697143554,0.5873937606811523
0.4008407592773438,0.5864004135131836
0.4008407592773438,0.5864004135131836
0.3967580795288086,0.5902891159057617
0.3967580795288086,0.5902891159057617
0.3959009170532227,0.5832378387451171
0.3959009170532227,0.5832378387451171
0.4013900756835938,0.5889867782592774
0.4013900756835938,0.5889867782592774
0.3938615798950195,0.5845315933227538
0.3938615798950195,0.5845315933227538
0.3981084823608398,0.5837997436523438
0.3981084823608398,0.5837997436523438
0.3975002288818359,0.5883670806884765
0.3975002288818359,0.5883670806884765
0.3953447341918945,0.5816608428955078
0.3953447341918945,0.5816608428955078
0.4007886886596679,0.5878108978271485
0.4007886886596679,0.5878108978271485
0.3922742843627929,0.5837768554687500
0.3922742843627929,0.5837768554687500
0.3994520187377930,0.5834403991699219
0.3994520187377930,0.5834403991699219
0.3975185394287109,0.5883928298950195
0.3975185394287109,0.5883928298950195
0.3953567504882812,0.5821403503417969
0.3953567504882812,0.5821403503417969
0.3996837615966797,0.5883150100708008
0.3996837615966797,0.5883150100708008
0.3940618515014648,0.5848869323730469
0.3940618515014648,0.5848869323730469
0.4001621246337890,0.5844755172729492
0.4001621246337890,0.5844755172729492
0.3981164932250976,0.5896654129028320
0.3981164932250976,0.5896654129028320
0.3944395065307617,0.5833820343017578
0.3944395065307617,0.5833820343017578
0.4017276763916016,0.5894084930419922
0.4017276763916016,0.5894084930419922
0.3946529388427734,0.5862052917480468
0.3946529388427734,0.5862052917480468
0.4005054473876953,0.5855901718139648
0.4005054473876953,0.5855901718139648
0.3972393035888672,0.5907222747802734
0.3972393035888672,0.5907222747802734
0.3962791442871094,0.5844497680664062
0.3962791442871094,0.5844497680664062
0.4024950027465820,0.5903057098388672
0.4024950027465820,0.5903057098388672
0.3949424743652344,0.5872072219848633
0.3949424743652344,0.5872072219848633
0.3992586135864258,0.5863809585571289
0.3992586135864258,0.5863809585571289
0.3990932464599609,0.5916807174682617
0.3990932464599609,0.5916807174682617
0.3967277526855469,0.5853492736816406
0.3967277526855469,0.5853492736816406
0.4027227401733398,0.5912309646606445
0.4027227401733398,0.5912309646606445
0.3939868927001953,0.5882308959960937
0.3939868927001953,0.5882308959960937
0.4011651992797852,0.5873617172241211
0.4011651992797852,0.5873617172241211
0.4000185012817383,0.5927101135253906
0.4000185012817383,0.5927101135253906
0.3970630645751953,0.5864616394042969
0.3970630645751953,0.5864616394042969
0.4017906188964844,0.5919038772583007
0.4017906188964844,0.5919038772583007
0.3957578659057617,0.5892625808715820
0.3957578659057617,0.5892625808715820
0.4015680313110351,0.5881771087646485
0.4015680313110351,0.5881771087646485
0.4003080368041992,0.5936519622802734
0.4003080368041992,0.5936519622802734
0.3959043502807617,0.5871591567993164
0.3959043502807617,0.5871591567993164
0.4035816192626953,0.5926431655883789
0.4035816192626953,0.5926431655883789
0.3961715698242188,0.5899532318115234
0.3961715698242188,0.5899532318115234
0.4015960693359375,0.5889318466186523
0.4015960693359375,0.5889318466186523
0.3991979598999023,0.5943283081054688
0.3991979598999023,0.5943283081054688
0.3975917816162109,0.5879133224487304
0.3975917816162109,0.5879133224487304
0.4039844512939453,0.5935220718383789
0.4039844512939453,0.5935220718383789
0.3963277816772461,0.5912263870239257
0.3963277816772461,0.5912263870239257
0.4007068634033203,0.5901374816894531
0.4007068634033203,0.5901374816894531
0.4014312744140625,0.5958967208862305
0.4014312744140625,0.5958967208862305
0.3984117507934570,0.5894502639770508
0.3984117507934570,0.5894502639770508
0.4046350479125976,0.5950372695922851
0.3983705520629883,0.5950372695922851
0.3953361511230469,0.5921939849853516
0.3953361511230469,0.5921939849853516
0.4021516799926758,0.5902135848999023
0.4021516799926758,0.5902135848999023
0.4012132644653320,0.5946773529052735
0.4012132644653320,0.5946773529052735
0.3971414566040039,0.5868787765502930
0.3971414566040039,0.5868787765502930
0.4015159606933594,0.5909482955932617
0.4015159606933594,0.5909482955932617
0.3946340560913086,0.5875717163085937
0.3946340560913086,0.5875717163085937
0.3998788833618164,0.5852348327636718
0.3998788833618164,0.5852348327636718
0.3990983963012695,0.5902410507202148
0.3990983963012695,0.5902410507202148
0.3936578750610352,0.5826776504516601
0.3936578750610352,0.5826776504516601
0.4012945175170898,0.5876512527465820
0.4012945175170898,0.5876512527465820
0.3931840896606445,0.5847959518432617
0.3931840896606445,0.5847959518432617
0.3984495162963867,0.5828172683715820
0.3984495162963867,0.5828172683715820
0.3968273162841797,0.5879190444946288
0.3968273162841797,0.5879190444946288
0.3942443847656250,0.5808992385864258
0.3942443847656250,0.5808992385864258
0.4007572174072265,0.5861658096313477
0.4007572174072265,0.5861658096313477
0.3926576614379882,0.5840188980102539
0.3926576614379882,0.5840188980102539
0.3965709686279297,0.5821563720703125
0.3965709686279297,0.5821563720703125
0.3983058929443359,0.5880146026611328
0.3983058929443359,0.5880146026611328
0.3942964553833008,0.5813432693481445
0.3942964553833008,0.5813432693481445
0.4006422042846680,0.5870121002197265
0.4006422042846680,0.5870121002197265
0.3920356750488281,0.5852926254272460
0.3920356750488281,0.5852926254272460
0.3985273361206055,0.5837305068969726
0.3985273361206055,0.5837305068969726
0.3993879318237304,0.5895000457763672
0.3993879318237304,0.5895000457763672
0.3952136993408203,0.5830730438232422
0.3952136993408203,0.5830730438232422
0.4002227783203125,0.5886915206909179
0.4002227783203125,0.5886915206909179
0.3943210601806640,0.5870824813842773
0.3943210601806640,0.5870824813842773
0.3993370056152344,0.5852663040161132
0.3993370056152344,0.5852663040161132
0.4002050399780273,0.5913408279418945
0.4002050399780273,0.5913408279418945
0.3945144653320312,0.5842197418212890
0.3945144653320312,0.5842197418212890
0.4024005889892578,0.5902410507202148
0.4024005889892578,0.5902410507202148
0.3949470520019531,0.5881931304931640
0.3949470520019531,0.5881931304931640
0.3997049331665039,0.5863265991210938
0.3997049331665039,0.5863265991210938
0.3994726181030273,0.5923112869262696
0.3994726181030273,0.5923112869262696
0.3962625503540039,0.5851816177368164
0.3962625503540039,0.5851816177368164
0.4029447555541992,0.5911525726318360
0.4029447555541992,0.5911525726318360
0.3953058242797852,0.5893518447875976
0.3953058242797852,0.5893518447875976
0.3986852645874023,0.5870899200439453
0.3986852645874023,0.5870899200439453
0.4014450073242187,0.5933034896850585
0.4014450073242187,0.5933034896850585
0.3969171524047851,0.5861452102661132
0.3969171524047851,0.5861452102661132
0.4033178329467773,0.5924240112304687
0.4033178329467773,0.5924240112304687
0.3944572448730468,0.5905002593994141
0.3944572448730468,0.5905002593994141
0.4006324768066406,0.5881662368774414
0.4006324768066406,0.5881662368774414
0.4021379470825195,0.5945732116699218
0.4021379470825195,0.5945732116699218
0.3972776412963867,0.5872575759887695
0.3972776412963867,0.5872575759887695
0.4024961471557617,0.5932634353637695
0.4024961471557617,0.5932634353637695
0.3965297698974609,0.5915662765502929
0.3965297698974609,0.5915662765502929
0.4012247085571289,0.5891956329345703
0.4012247085571289,0.5891956329345703
0.4026266098022461,0.5955345153808593
0.4026266098022461,0.5955345153808593
0.3961950302124023,0.5880065917968750
0.3961950302124023,0.5880065917968750
0.4042345046997070,0.5940330505371093
0.3973274230957031,0.5940330505371093
0.3969818115234375,0.5924680709838867
0.3969818115234375,0.5924680709838867
0.4013185501098633,0.5900356292724609
0.4013185501098633,0.5900356292724609
0.4016836166381836,0.5963184356689453
0.4016836166381836,0.5963184356689453
0.3979019165039062,0.5890417098999023
0.3979019165039062,0.5890417098999023
0.4049303054809570,0.5950590133666992
0.4049303054809570,0.5950590133666992
0.3974985122680664,0.5933115005493164
0.3974985122680664,0.5933115005493164
0.3998949050903320,0.5898393630981446
0.3998949050903320,0.5898393630981446
0.4026718139648438,0.5952089309692382
0.4026718139648438,0.5952089309692382
0.3968976974487304,0.5863803863525391
0.3968976974487304,0.5863803863525391
0.4029407501220703,0.5912904739379883
0.4029407501220703,0.5912904739379883
0.3940698623657227,0.5884883880615234
0.3940698623657227,0.5884883880615234
0.3988786697387695,0.5848062515258788
0.3988786697387695,0.5848062515258788
0.4005804061889648,0.5902484893798828
0.4005804061889648,0.5902484893798828
0.3946403503417968,0.5821277618408203
0.3946403503417968,0.5821277618408203
0.3998210906982422,0.5873371124267578
0.3998210906982422,0.5873371124267578
0.3939485549926758,0.5855220794677735
0.3939485549926758,0.5855220794677735
0.3976169586181640,0.5821437835693359
0.3976169586181640,0.5821437835693359
0.3993736267089844,0.5883939743041992
0.3993736267089844,0.5883939743041992
0.3926067352294922,0.5804855346679687
0.3926067352294922,0.5804855346679687
0.4007440567016601,0.5861474990844726
0.4007440567016601,0.5861474990844726
0.3940017700195312,0.5850889205932617
0.3940017700195312,0.5850889205932617
0.3974630355834961,0.5821701049804687
0.3974630355834961,0.5821701049804687
0.3981582641601563,0.5885581970214844
0.3981582641601563,0.5885581970214844
0.3940830230712891,0.5809278488159180
0.3940830230712891,0.5809278488159180
0.4010169982910156,0.5866991043090820
0.4010169982910156,0.5866991043090820
0.3942466735839844,0.5862728118896484
0.3942466735839844,0.5862728118896484
0.3966064453125000,0.5831199645996094
0.3966064453125000,0.5831199645996094
0.4002422332763672,0.5898948669433594
0.4002422332763672,0.5898948669433594
0.3950323104858398,0.5823451995849609
0.3950323104858398,0.5823451995849609
0.4017408370971680,0.5883367538452148
0.4017408370971680,0.5883367538452148
0.3937791824340820,0.5879373550415039
0.3937791824340820,0.5879373550415039
0.3984998703002929,0.5845396041870117
0.3984998703002929,0.5845396041870117
0.4009071350097656,0.5912029266357421
0.4009071350097656,0.5912029266357421
0.3953184127807617,0.5835113525390625
0.3953184127807617,0.5835113525390625
0.4008081436157226,0.5890995025634765
0.4008081436157226,0.5890995025634765
0.3954397201538086,0.5888986587524414
0.3954397201538086,0.5888986587524414
0.3991127014160156,0.5852972030639648
0.3991127014160156,0.5852972030639648
0.4012372970581055,0.5920394897460938
0.4012372970581055,0.5920394897460938
0.3942621231079101,0.5842695236206055
0.3942621231079101,0.5842695236206055
0.4024950027465820,0.5897598266601562
0.4024950027465820,0.5897598266601562
0.3958517074584961,0.5899349212646484
0.3958517074584961,0.5899349212646484
0.3991962432861328,0.5862813949584961
0.3991962432861328,0.5862813949584961
0.4014455795288086,0.5863082885742187
0.4014455795288086,0.5883207321166992
0.3998205184936524,0.5927587509155273
0.3998205184936524,0.5927587509155273
0.3976346969604492,0.5879362106323242
0.3976346969604492,0.5879362106323242
0.4031496047973633,0.5931352615356446
0.4031496047973633,0.5931352615356446
0.3962974548339844,0.5884689331054688
0.3962974548339844,0.5884689331054688
0.4023170471191406,0.5894193649291992
0.4023170471191406,0.5894193649291992
0.3999956130981445,0.5956878662109375
0.3999956130981445,0.5956878662109375
0.3980747222900390,0.5875305175781250
0.3980747222900390,0.5875305175781250
0.4038785934448242,0.5944129943847656
0.4038785934448242,0.5944129943847656
0.3974658966064453,0.5897472381591796
0.4056655883789063,0.5897472381591796
0.4025762557983398,0.5919404983520508
0.3956645965576172,0.5919404983520508
0.4004110336303711,0.5950876235961914
0.4004110336303711,0.5950876235961914
0.3981508255004882,0.5885169982910156
0.3981508255004882,0.5885169982910156
0.4047998428344726,0.5954074859619141
0.4047998428344726,0.5954074859619141
0.3973537445068359,0.5925888061523438
0.3973537445068359,0.5925888061523438
0.4029916763305664,0.5911857604980468
0.4029916763305664,0.5911857604980468
0.4009408950805664,0.5959230422973633
0.4009408950805664,0.5959230422973633
0.3992065429687500,0.5890874862670898
0.3992065429687500,0.5890874862670898
0.4042390823364257,0.5966417312622070
0.4042390823364257,0.5966417312622070
0.3965538024902344,0.5893335342407227
0.3965538024902344,0.5893335342407227
0.4013093948364257,0.5880329132080078
0.4013093948364257,0.5880329132080078
0.3995069503784179,0.5917333602905274
0.3995069503784179,0.5917333602905274
0.3962070465087891,0.5855798721313477
0.3962070465087891,0.5855798721313477
0.4016378402709961,0.5893049240112305
0.4016378402709961,0.5893049240112305
0.3939245223999023,0.5843187332153320
0.3939245223999023,0.5843187332153320
0.3998868942260742,0.5833311080932617
0.3998868942260742,0.5833311080932617
0.3972496032714843,0.5895189285278321
0.3972496032714843,0.5895189285278321
0.3945957183837890,0.5807733535766602
0.3945957183837890,0.5807733535766602
0.4000288009643554,0.5866590499877929
0.4000288009643554,0.5866590499877929
0.3933660507202149,0.5824235916137696
0.3933660507202149,0.5824235916137696
0.3987236022949219,0.5832487106323242
0.3987236022949219,0.5832487106323242
0.3966699600219726,0.5866950988769531
0.3966699600219726,0.5866950988769531
0.3941076278686523,0.5800060272216797
0.3941076278686523,0.5800060272216797
0.4006937026977539,0.5861715316772461
0.4006937026977539,0.5861715316772461
0.3929220199584961,0.5840629577636719
0.3929220199584961,0.5840629577636719
0.3987762451171875,0.5818416595458984
0.3987762451171875,0.5818416595458984
0.3965715408325195,0.5871974945068359
0.3965715408325195,0.5871974945068359
0.3950466156005859,0.5808168411254883
0.3950466156005859,0.5808168411254883
0.4007612228393554,0.5887887954711913
0.4007612228393554,0.5887887954711913
0.3933151245117187,0.5837310791015625
0.3933151245117187,0.5837310791015625
0.3992918014526367,0.5829631805419921
0.3992918014526367,0.5829631805419921
0.3980072021484375,0.5885135650634765
0.3980072021484375,0.5885135650634765
0.3950300216674805,0.5836818695068359
0.3950300216674805,0.5836818695068359
0.4012802124023437,0.5880889892578125
0.4012802124023437,0.5880889892578125
0.3933717727661133,0.5848852157592773
0.3933717727661133,0.5848852157592773
0.4002347946166992,0.5839759826660156
0.4002347946166992,0.5839759826660156
0.3980901718139648,0.5911279678344726
0.3980901718139648,0.5911279678344726
0.3953979492187500,0.5828550338745117
0.3953979492187500,0.5828550338745117
0.4016263961791992,0.5888236999511719
0.4016263961791992,0.5888236999511719
0.4009437561035156,0.5906599044799804
0.4009437561035156,0.5900030136108398
0.4000911712646484,0.5853555679321288
0.4000911712646484,0.5870716094970703
0.4023828506469727,0.5892723083496093
0.3976661682128906,0.5820247650146484
0.3942684173583984,0.5882560729980468
0.4037143707275391,0.5882560729980468
0.4001787185668945,0.5852657318115234
0.4001787185668945,0.5852657318115234
0.3988786697387695,0.5910095214843750
0.3988786697387695,0.5910095214843750
0.3964410781860351,0.5846620559692383
0.3964410781860351,0.5846620559692383
0.4025379180908203,0.5920457839965820
0.4025379180908203,0.5920457839965820
0.3948600769042969,0.5877714157104492
0.3948600769042969,0.5877714157104492
0.4003194808959961,0.5865823745727539
0.4003194808959961,0.5865823745727539
0.4001106262207031,0.5922780990600586
0.4001106262207031,0.5922780990600586
0.3965955734252929,0.5873874664306641
0.3965955734252929,0.5873874664306641
0.4029682159423828,0.5914375305175781
0.4029682159423828,0.5914375305175781
0.3952800750732422,0.5889209747314453
0.3952800750732422,0.5889209747314453
0.4015130996704102,0.5875717163085937
0.4015130996704102,0.5875717163085937
0.4003114700317383,0.5950887680053710
0.4003114700317383,0.5950887680053710
0.3970521926879882,0.5868450164794922
0.3970521926879882,0.5868450164794922
0.4031112670898437,0.5922712326049805
0.4031112670898437,0.5922712326049805
0.3962310791015625,0.5899257659912109
0.4053022384643555,0.5899257659912109
0.4014495849609375,0.5899726867675781
0.4014495849609375,0.5899726867675781
0.4006639480590820,0.5937005996704101
0.4006639480590820,0.5937005996704101
0.3968090057373047,0.5864078521728515
0.3968090057373047,0.5864078521728515
0.4033618927001953,0.5906925201416016
0.4033618927001953,0.5906925201416016
0.3944583892822265,0.5886222839355468
0.3944583892822265,0.5886222839355468
0.3993810653686523,0.5840206146240234
0.3993810653686523,0.5840206146240234
0.3979299545288086,0.5884220123291015
0.3979299545288086,0.5884220123291015
0.3945442199707031,0.5804975509643554
0.3945442199707031,0.5804975509643554
0.3999973297119140,0.5864593505859375
0.3999973297119140,0.5864593505859375
0.3917575836181640,0.5814765930175781
0.3917575836181640,0.5814765930175781
0.3966733932495117,0.5789623260498047
0.3966733932495117,0.5789623260498047
0.3968135833740234,0.5840972900390625
0.3968135833740234,0.5840972900390625
0.3921953201293945,0.5781978607177735
0.3921953201293945,0.5781978607177735
0.3984884262084961,0.5815040588378906
0.3984884262084961,0.5815040588378906
0.3899837493896484,0.5789857864379883
0.3899837493896484,0.5789857864379883
0.3959884643554688,0.5766620635986328
0.3959884643554688,0.5766620635986328
0.3956651687622070,0.5838638305664062
0.3956651687622070,0.5838638305664062
0.3914377212524414,0.5750427246093750
0.3914377212524414,0.5750427246093750
0.3978200912475586,0.5802881240844726
0.3978200912475586,0.5802881240844726
0.3904409408569336,0.5780931472778320
0.3904409408569336,0.5780931472778320
0.3953001022338867,0.5778184890747070
0.3953001022338867,0.5778184890747070
0.3957143783569336,0.5821529388427734
0.3957143783569336,0.5821529388427734
0.3911361694335938,0.5752630233764648
0.3911361694335938,0.5752630233764648
0.3985565185546875,0.5810554504394531
0.3985565185546875,0.5810554504394531
0.3904306411743164,0.5807950973510742
0.3904306411743164,0.5807950973510742
0.3955816268920898,0.5771713256835938
0.3955816268920898,0.5771713256835938
0.3962505340576172,0.5833065032958984
0.3962505340576172,0.5833065032958984
0.3923950195312500,0.5763668060302735
0.3923950195312500,0.5763668060302735
0.3985851287841797,0.5837093353271484
0.3985851287841797,0.5837093353271484
0.3908506393432617,0.5801410675048828
0.3908506393432617,0.5801410675048828
0.3954568862915039,0.5779214859008789
0.3954568862915039,0.5779214859008789
0.3973308563232422,0.5840520858764648
0.3973308563232422,0.5840520858764648
0.3922651290893555,0.5786327362060547
0.3922651290893555,0.5786327362060547
0.3988758087158203,0.5827795028686523
0.3988758087158203,0.5827795028686523
0.3910869598388672,0.5809787750244141
0.3910869598388672,0.5809787750244141
0.3965200424194336,0.5788370132446289
0.3965200424194336,0.5788370132446289
0.3972999572753906,0.5865686416625976
0.3972999572753906,0.5865686416625976
0.3926765441894531,0.5778396606445312
0.3926765441894531,0.5778396606445312
0.3988798141479492,0.5837345123291016
0.3988798141479492,0.5837345123291016
0.3921466827392578,0.5820602416992188
0.3921466827392578,0.5820602416992188
0.3965377807617188,0.5816202163696289
0.3965377807617188,0.5816202163696289
0.3980564117431640,0.5863712310791015
0.3980564117431640,0.5863712310791015
0.3931835174560547,0.5792066574096679
0.3931835174560547,0.5792066574096679
0.4004201889038086,0.5854059219360351
0.4004201889038086,0.5854059219360351
0.3925237655639648,0.5854167938232422
0.4022529602050781,0.5854167938232422
0.3971946716308594,0.5814714431762695
0.3971946716308594,0.5814714431762695
0.3983882904052734,0.5877559661865234
0.3983882904052734,0.5877559661865234
0.3942232131958008,0.5806285858154296
0.3942232131958008,0.5806285858154296
0.4004968643188476,0.5882835388183594
0.4004968643188476,0.5882835388183594
0.3931194305419922,0.5849687576293945
0.3931194305419922,0.5849687576293945
0.3975688934326172,0.5824979782104492
0.3975688934326172,0.5824979782104492
0.3998165130615234,0.5888832092285156
0.3998165130615234,0.5888832092285156
0.3942998886108398,0.5831766128540039
0.3942998886108398,0.5831766128540039
0.4010284423828125,0.5876129150390624
0.4010284423828125,0.5876129150390624
0.3933214187622070,0.5861595153808593
0.3933214187622070,0.5861595153808593
0.3984466552734375,0.5836389541625976
0.3984466552734375,0.5836389541625976
0.3998891830444336,0.5916040420532226
0.3998891830444336,0.5916040420532226
0.3945819854736328,0.5819389343261718
0.3945819854736328,0.5819389343261718
0.4008579254150391,0.5871196746826172
0.4008579254150391,0.5871196746826172
0.3936584472656250,0.5843919754028321
0.3936584472656250,0.5843919754028321
0.3966556549072265,0.5819149017333984
0.3966556549072265,0.5819149017333984
0.3978921890258789,0.5854700088500976
0.3978921890258789,0.5854700088500976
0.3916831970214844,0.5767559051513672
0.3916831970214844,0.5767559051513672
0.3987911224365234,0.5815120697021484
0.3987911224365234,0.5815120697021484
0.3909461975097656,0.5809078216552734
0.3909461975097656,0.5809078216552734
0.3943061828613281,0.5757745742797852
0.3943061828613281,0.5757745742797852
0.3958929061889648,0.5813112258911133
0.3958929061889648,0.5813112258911133
0.3908311843872070,0.5731601715087891
0.3908311843872070,0.5731601715087891
0.3967374801635742,0.5799322128295898
0.3967374801635742,0.5799322128295898
0.3898263931274414,0.5767576217651367
0.3898263931274414,0.5767576217651367
0.3927589416503906,0.5733289718627930
0.3927589416503906,0.5733289718627930
0.3954076766967773,0.5793754577636718
0.3954076766967773,0.5793754577636718
0.3896181106567383,0.5732786178588867
0.3896181106567383,0.5732786178588867
0.3961732864379883,0.5770769119262695
0.3961732864379883,0.5770769119262695
0.3895877838134765,0.5764497756958008
0.3895877838134765,0.5764497756958008
0.3934822082519531,0.5732597351074219
0.3934822082519531,0.5732597351074219
0.3952737808227539,0.5814943313598633
0.3952737808227539,0.5814943313598633
0.3899322509765625,0.5724683761596679
0.3899322509765625,0.5724683761596679
0.3962991714477539,0.5782505035400390
0.3962991714477539,0.5782505035400390
0.3971168518066406,0.5803590774536133
0.3920436859130859,0.5803590774536133
0.3906074523925781,0.5750427246093750
0.3983047485351562,0.5750427246093750
0.3945384979248047,0.5767816543579102
0.3945384979248047,0.5767816543579102
0.3935623168945312,0.5808774948120117
0.3935623168945312,0.5808774948120117
0.3921827316284179,0.5745655059814453
0.3921827316284179,0.5745655059814453
0.3976461410522461,0.5816854476928711
0.3976461410522461,0.5816854476928711
0.3898475646972656,0.5763467788696289
0.3898475646972656,0.5763467788696289
0.3962888717651367,0.5778968811035156
0.3962888717651367,0.5778968811035156
0.3942781448364258,0.5821792602539062
0.3942781448364258,0.5821792602539062
0.3924917221069336,0.5757963180541992
0.3924917221069336,0.5757963180541992
0.3969120025634765,0.5827131271362305
0.3969120025634765,0.5827131271362305
0.3916557312011719,0.5778562545776367
0.3916557312011719,0.5778562545776367
0.3971254348754883,0.5790338516235352
0.3971254348754883,0.5790338516235352
0.3948772430419922,0.5836114883422852
0.3948772430419922,0.5836114883422852
0.3918645858764648,0.5771484375000000
0.3918645858764648,0.5771484375000000
0.3988191604614258,0.5840600967407227
0.3939262390136719,0.5840600967407227
0.3922319412231445,0.5791746139526367
0.3922319412231445,0.5791746139526367
0.3975740432739258,0.5802251815795898
0.3975740432739258,0.5802251815795898
0.3942895889282226,0.5846883773803710
0.3942895889282226,0.5846883773803710
0.3936830520629883,0.5783815383911133
0.3936830520629883,0.5783815383911133
0.3997432708740234,0.5853252410888672
0.3997432708740234,0.5853252410888672
0.3927486419677734,0.5807561874389648
0.3927486419677734,0.5807561874389648
0.3969669342041016,0.5814834594726562
0.3969669342041016,0.5814834594726562
0.3963375091552734,0.5862916946411133
0.3963375091552734,0.5862916946411133
0.3944423675537109,0.5799808502197266
0.3944423675537109,0.5799808502197266
0.4001855850219727,0.5868003845214843
0.4001855850219727,0.5868003845214843
0.3920866012573242,0.5822725296020508
0.3920866012573242,0.5822725296020508
0.3989816665649414,0.5826587677001953
0.3989816665649414,0.5826587677001953
0.3972484588623047,0.5876449584960938
0.3972484588623047,0.5876449584960938
0.3948537826538086,0.5813032150268554
0.3948537826538086,0.5813032150268554
0.3994194030761719,0.5877119064331054
0.3994194030761719,0.5877119064331054
0.3934684753417969,0.5829626083374023
0.3934684753417969,0.5829626083374023
0.3989553451538086,0.5823612213134766
0.3989553451538086,0.5823612213134766
0.3963420867919922,0.5862173080444336
0.3963420867919922,0.5862173080444336
0.3922513961791992,0.5783157348632812
0.3922513961791992,0.5783157348632812
0.3987201690673828,0.5833539962768555
0.3987201690673828,0.5833539962768555
0.3911338806152344,0.5779512405395507
0.3911338806152344,0.5779512405395507
0.3961635589599609,0.5766683578491211
0.3961635589599609,0.5766683578491211
0.3925769805908203,0.5807212829589844
0.3925769805908203,0.5807212829589844
0.3910160064697266,0.5733713150024414
0.3910160064697266,0.5733713150024414
0.3967569351196289,0.5789337158203125
0.3967569351196289,0.5789337158203125
0.3891408920288086,0.5744379043579101
0.3891408920288086,0.5744379043579101
0.3933145523071289,0.5731647491455077
0.3933145523071289,0.5731647491455077
0.3925529479980469,0.5780307769775390
0.3925529479980469,0.5780307769775390
0.3901107788085937,0.5712324142456054
0.3901107788085937,0.5712324142456054
0.3958179473876953,0.5770935058593750
0.3958179473876953,0.5770935058593750
0.3870941162109375,0.5729667663574218
0.3870941162109375,0.5729667663574218
0.3940555572509766,0.5719556808471680
0.3940555572509766,0.5719556808471680
0.3921792984008789,0.5772468566894531
0.3921792984008789,0.5772468566894531
0.3895568847656250,0.5706298828124999
0.3895568847656250,0.5706298828124999
0.3944995880126953,0.5766672134399414
0.3944995880126953,0.5766672134399414
0.3883152008056641,0.5732797622680664
0.3883152008056641,0.5732797622680664
0.3944126129150390,0.5723796844482422
0.3944126129150390,0.5723796844482422
0.3925941467285156,0.5781629562377929
0.3925941467285156,0.5781629562377929
0.3887145996093750,0.5715934753417968
0.3887145996093750,0.5715934753417968
0.3961521148681640,0.5776233673095703
0.3961521148681640,0.5776233673095703
0.3886871337890625,0.5745815277099610
0.3886871337890625,0.5745815277099610
0.3947021484375000,0.5736928939819336
0.3947021484375000,0.5736928939819336
0.3919486999511719,0.5792942047119141
0.3919486999511719,0.5792942047119141
0.3904684066772461,0.5728837966918945
0.3904684066772461,0.5728837966918945
0.3969028472900391,0.5787265777587890
0.3969028472900391,0.5787265777587890
0.3893228530883789,0.5759914398193359
0.3893228530883789,0.5759914398193359
0.3939342498779297,0.5748035430908203
0.3939342498779297,0.5748035430908203
0.3938192367553711,0.5805759429931641
0.3938192367553711,0.5805759429931641
0.3910703659057617,0.5741243362426758
0.3910703659057617,0.5741243362426758
0.3972621917724609,0.5798669815063476
0.3972621917724609,0.5798669815063476
0.3883798599243164,0.5769950866699218
0.3883798599243164,0.5769950866699218
0.3894281387329102,0.5757259368896485
0.3894281387329102,0.5757259368896485
0.3970350265502929,0.5799036026000977
0.3909708023071289,0.5805484771728515
0.3909708023071289,0.5805484771728515
0.3929271697998047,0.5751148223876953
0.3929271697998047,0.5751148223876953
0.3973371505737305,0.5821826934814452
0.3973371505737305,0.5821826934814452
0.3906286239624023,0.5773332595825195
0.3970430374145508,0.5773332595825195
0.3975254058837890,0.5794137954711914
0.3975254058837890,0.5794137954711914
0.3916957855224609,0.5818267822265625
0.3916957855224609,0.5818267822265625
0.3942335128784180,0.5764394760131836
0.3942335128784180,0.5764394760131836
0.3976530075073242,0.5853057861328125
0.3976530075073242,0.5853057861328125
0.3912334442138672,0.5769733428955078
0.3912334442138672,0.5769733428955078
0.3977268218994141,0.5806388854980469
0.3977268218994141,0.5806388854980469
0.3929552078247070,0.5831920623779296
0.3929552078247070,0.5831920623779296
0.3942747116088867,0.5795093536376953
0.3942747116088867,0.5795093536376953
0.3983047485351562,0.5848468780517578
0.3983047485351562,0.5848468780517578
0.3917884826660156,0.5783535003662109
0.3917884826660156,0.5783535003662109
0.3991527557373047,0.5819417953491210
0.3991527557373047,0.5819417953491210
0.3934186935424804,0.5860948562622070
0.3934186935424804,0.5860948562622070
0.3946781158447266,0.5788026809692383
0.3946781158447266,0.5788026809692383
0.3982086181640625,0.5851770401000976
0.3982086181640625,0.5851770401000976
0.3920740127563476,0.5777698516845703
0.3920740127563476,0.5777698516845703
0.3979442596435547,0.5814949035644531
0.3979442596435547,0.5814949035644531
0.3921403884887695,0.5810245513916016
0.3921403884887695,0.5810245513916016
0.3924533843994141,0.5741191864013672
0.3924533843994141,0.5741191864013672
0.3965772628784179,0.5796855926513672
0.3965772628784179,0.5796855926513672
0.3891059875488281,0.5736534118652343
0.3891059875488281,0.5736534118652343
0.3953321456909180,0.5742502212524414
0.3953321456909180,0.5742502212524414
0.3894767761230469,0.5758478164672851
0.3894767761230469,0.5758478164672851
0.3906131744384765,0.5694608688354492
0.3906131744384765,0.5694608688354492
0.3942792892456055,0.5772377014160156
0.3942792892456055,0.5772377014160156
0.3874105453491211,0.5682220458984375
0.3874105453491211,0.5682220458984375
0.3937196731567383,0.5710012435913085
0.3937196731567383,0.5710012435913085
0.3892147064208984,0.5733335494995117
0.3892147064208984,0.5733335494995117
0.3890333175659180,0.5689023971557617
0.3890333175659180,0.5689023971557617
0.3935789108276367,0.5738456726074218
0.3935789108276367,0.5738456726074218
0.3864641189575195,0.5668624877929688
0.3864641189575195,0.5668624877929688
0.3937059402465820,0.5700256347656250
0.3937059402465820,0.5700256347656250
0.3886648178100586,0.5741935729980469
0.3886648178100586,0.5741935729980469
0.3886276245117187,0.5668584823608398
0.3886276245117187,0.5668584823608398
0.3934633255004883,0.5738903045654297
0.3934633255004883,0.5738903045654297
0.3875003814697265,0.5673757553100586
0.3875003814697265,0.5673757553100586
0.3936143875122070,0.5724477767944336
0.3936143875122070,0.5724477767944336
0.3893480300903320,0.5738536834716796
0.3893480300903320,0.5738536834716796
0.3889183044433593,0.5682964324951172
0.3889183044433593,0.5682964324951172
0.3947010040283203,0.5753282546997071
0.3947010040283203,0.5753282546997071
0.3877567291259765,0.5704044342041016
0.3877567291259765,0.5704044342041016
0.3941539764404297,0.5720432281494140
0.3941539764404297,0.5720432281494140
0.3900678634643555,0.5750553131103515
0.3900678634643555,0.5750553131103515
0.3902034759521484,0.5693578720092773
0.3902034759521484,0.5693578720092773
0.3947902679443359,0.5779958724975586
0.3947902679443359,0.5779958724975586
0.3882671356201172,0.5695547103881836
0.3882671356201172,0.5695547103881836
0.3941780090332031,0.5729106903076172
0.3865367889404297,0.5729106903076172
0.3909851074218750,0.5758615493774414
0.3909851074218750,0.5758615493774414
0.3900255203247070,0.5718000411987304
0.3900255203247070,0.5718000411987304
0.3952062606811523,0.5771169662475586
0.3952062606811523,0.5771169662475586
0.3886831283569336,0.5707242965698242
0.3886831283569336,0.5707242965698242
0.3953641891479492,0.5740493774414063
0.3953641891479492,0.5740493774414063
0.3912717819213867,0.5787586212158203
0.3912717819213867,0.5787586212158203
0.3906509399414063,0.5712999343872071
0.3906509399414063,0.5712999343872071
0.3954437255859375,0.5782161712646484
0.3954437255859375,0.5782161712646484
0.3897977828979492,0.5717948913574219
0.3897977828979492,0.5717948913574219
0.3953807830810547,0.5767398834228515
0.3953807830810547,0.5767398834228515
0.3918365478515625,0.5782934188842773
0.3918365478515625,0.5782934188842773
0.3910062789916992,0.5723304748535156
0.3910062789916992,0.5723304748535156
0.3967643737792969,0.5794029235839844
0.3967643737792969,0.5794029235839844
0.3898738861083984,0.5747640609741210
0.3898738861083984,0.5747640609741210
0.3958665847778320,0.5761957168579102
0.3958665847778320,0.5761957168579102
0.3921958923339844,0.5795373916625977
0.3921958923339844,0.5795373916625977
0.3920219421386719,0.5735469818115234
0.3920219421386719,0.5735469818115234
0.3970436096191406,0.5822393417358398
0.3970436096191406,0.5822393417358398
0.3906051635742188,0.5743520736694335
0.3906051635742188,0.5743520736694335
0.3962717056274414,0.5773378372192383
0.3962717056274414,0.5773378372192383
0.3936613082885742,0.5808677673339844
0.3936613082885742,0.5808677673339844
0.3921592712402344,0.5762889862060546
0.3921592712402344,0.5762889862060546
0.3975214004516601,0.5813810348510742
0.3975214004516601,0.5813810348510742
0.3902154922485351,0.5744007110595702
0.3902154922485351,0.5744007110595702
0.3961412429809570,0.5758878707885742
0.3961412429809570,0.5758878707885742
0.3922496795654297,0.5797925949096679
0.3922496795654297,0.5797925949096679
0.3903470993041992,0.5704135894775391
0.3903470993041992,0.5704135894775391
0.3951158523559570,0.5759685516357421
0.3951158523559570,0.5759685516357421
0.3885681152343750,0.5688314437866211
0.3885681152343750,0.5688314437866211
0.3930192947387695,0.5717107772827148
0.3930192947387695,0.5717107772827148
0.3925203323364257,0.5711832046508789
0.3925203323364257,0.5711832046508789
0.3957098007202148,0.5693601608276367
0.3936378479003906,0.5693601608276367
0.3898864746093750,0.5656196594238281
0.3898864746093750,0.5656196594238281
0.3915246963500976,0.5714344024658203
0.3915246963500976,0.5714344024658203
0.3847892761230469,0.5629308700561523
0.3847892761230469,0.5629308700561523
0.3924797058105469,0.5683227539062500
0.3924797058105469,0.5683227539062500
0.3856361389160156,0.5670490264892578
0.3856361389160156,0.5670490264892578
0.3888050079345703,0.5634040832519531
0.3888050079345703,0.5634040832519531
0.3895219802856445,0.5694442749023437
0.3895219802856445,0.5694442749023437
0.3851640701293945,0.5614374160766601
0.3851640701293945,0.5614374160766601
0.3918828964233398,0.5669483184814453
0.3918828964233398,0.5669483184814453
0.3851566314697266,0.5665185928344726
0.3851566314697266,0.5665185928344726
0.3875032424926758,0.5630641937255859
0.3875032424926758,0.5630641937255859
0.3909032821655273,0.5698007583618164
0.3902698516845703,0.5698007583618164
0.3856716156005859,0.5621469497680663
0.3856716156005859,0.5621469497680663
0.3923383712768554,0.5679782867431641
0.3923383712768554,0.5679782867431641
0.3845655441284180,0.5677539825439453
0.3845655441284180,0.5677539825439453
0.3891906738281250,0.5642377853393554
0.3891906738281250,0.5642377853393554
0.3916213989257812,0.5709314346313477
0.3916213989257812,0.5709314346313477
0.3861396789550781,0.5633886337280273
0.3861396789550781,0.5633886337280273
0.3917289733886719,0.5687747955322265
0.3917289733886719,0.5687747955322265
0.3862752914428711,0.5690797805786133
0.3862752914428711,0.5690797805786133
0.3898487091064453,0.5651847839355468
0.3898487091064453,0.5651847839355468
0.3920928955078125,0.5718744277954101
0.3920928955078125,0.5718744277954101
0.3854358673095703,0.5642829895019531
0.3854358673095703,0.5642829895019531
0.3934329986572265,0.5695959091186523
0.3934329986572265,0.5695959091186523
0.3866907119750976,0.5703168869018554
0.3866907119750976,0.5703168869018554
0.3901033401489258,0.5663658142089844
0.3901033401489258,0.5663658142089844
0.3914709091186523,0.5730800628662109
0.3914709091186523,0.5730800628662109
0.3871902465820312,0.5654605865478516
0.3871902465820312,0.5654605865478516
0.3942861557006836,0.5709297180175781
0.3942861557006836,0.5709297180175781
0.3874563217163086,0.5720798492431640
0.3874563217163086,0.5720798492431640
0.3897291183471679,0.5679050445556640
0.3897291183471679,0.5679050445556640
0.3936103820800781,0.5748121261596679
0.3936103820800781,0.5748121261596679
0.3882064819335938,0.5675371170043945
0.3882064819335938,0.5675371170043945
0.3950191497802734,0.5728551864624023
0.3950191497802734,0.5728551864624023
0.3872005462646484,0.5739429473876952
0.3872005462646484,0.5739429473876952
0.3918079376220703,0.5698047637939453
0.3918079376220703,0.5698047637939453
0.3947313308715820,0.5766901016235352
0.3947313308715820,0.5766901016235352
0.3890956878662109,0.5694723129272461
0.3890956878662109,0.5694723129272461
0.3947725296020508,0.5745334625244141
0.3947725296020508,0.5745334625244141
0.3893440246582031,0.5761470794677734
0.3893440246582031,0.5761470794677734
0.3927715301513672,0.5718000411987304
0.3927715301513672,0.5718000411987304
0.3955638885498047,0.5786962509155273
0.3955638885498047,0.5786962509155273
0.3887746810913086,0.5713382720947265
0.3887746810913086,0.5713382720947265
0.3967735290527344,0.5763107299804687
0.3967735290527344,0.5763107299804687
0.3902887344360351,0.5778665542602539
0.3902887344360351,0.5778665542602539
0.3933889389038086,0.5731567382812500
0.3933889389038086,0.5731567382812500
0.3948274612426758,0.5792530059814452
0.3948274612426758,0.5792530059814452
0.3898029327392578,0.5709537506103516
0.3898029327392578,0.5709537506103516
0.3961235046386719,0.5744293212890624
0.3961235046386719,0.5744293212890624
0.3887706756591797,0.5747549057006835
0.3887706756591797,0.5747549057006835
0.3901571273803711,0.5684389114379883
0.3901571273803711,0.5684389114379883
0.3936555862426758,0.5739011764526367
0.3936555862426758,0.5739011764526367
0.3874345779418945,0.5655487060546874
0.3874345779418945,0.5655487060546874
0.3935382843017578,0.5692136764526367
0.3935382843017578,0.5692136764526367
0.3854816436767578,0.5699392318725586
0.3854816436767578,0.5699392318725586
0.3892324447631836,0.5642269134521484
0.3892324447631836,0.5642269134521484
0.3919990539550781,0.5702476501464844
0.3919990539550781,0.5702476501464844
0.3855812072753906,0.5625000000000000
0.3855812072753906,0.5625000000000000
0.3911052703857422,0.5661357879638672
0.3911052703857422,0.5661357879638672
0.3855291366577148,0.5675354003906250
0.3855291366577148,0.5675354003906250
0.3883146286010742,0.5620731353759766
0.3883146286010742,0.5620731353759766
0.3911813735961914,0.5686552047729492
0.3911813735961914,0.5686552047729492
0.3837535858154297,0.5612422943115234
0.3837535858154297,0.5612422943115234
0.3917221069335937,0.5653593063354492
0.3917221069335937,0.5653593063354492
0.3854284286499023,0.5674421310424804
0.3854284286499023,0.5674421310424804
0.3882036209106445,0.5623083114624023
0.3882036209106445,0.5623083114624023
0.3904895782470703,0.5693716049194336
0.3904895782470703,0.5693716049194336
0.3853878021240234,0.5626276016235351
0.3853878021240234,0.5626276016235351
0.3925638198852539,0.5667961120605468
0.3848934173583984,0.5667961120605468
0.3863056182861328,0.5692537307739257
0.3863056182861328,0.5692537307739257
0.3878288269042969,0.5641222000122070
0.3878288269042969,0.5641222000122070
0.3925746917724609,0.5711631774902344
0.3925746917724609,0.5711631774902344
0.3863988876342773,0.5646068572998046
0.3863988876342773,0.5646068572998046
0.3932968139648437,0.5686449050903321
0.3932968139648437,0.5686449050903321
0.3862392425537109,0.5708822250366211
0.3862392425537109,0.5708822250366211
0.3897548675537109,0.5657180786132813
0.3897548675537109,0.5657180786132813
0.3934970855712890,0.5727441787719726
0.3934970855712890,0.5727441787719726
0.3869997024536133,0.5661535263061523
0.3869997024536133,0.5661535263061523
0.3928207397460937,0.5698402404785156
0.3928207397460937,0.5698402404785156
0.3881795883178711,0.5722566604614258
0.3881795883178711,0.5722566604614258
0.3903024673461914,0.5669866561889648
0.3903024673461914,0.5669866561889648
0.3940097808837891,0.5739011764526367
0.3940097808837891,0.5739011764526367
0.3931011199951172,0.5673454284667968
0.3931011199951172,0.5673454284667968
0.3945693969726562,0.5711362838745117
0.3872846603393554,0.5711362838745117
0.3891328811645507,0.5735773086547852
0.3964061737060547,0.5735773086547852
0.3907396316528320,0.5682781219482421
0.3907396316528320,0.5682781219482421
0.3935554504394531,0.5752304077148437
0.3935554504394531,0.5752304077148437
0.3881996154785156,0.5687061309814453
0.3881996154785156,0.5687061309814453
0.3951335906982422,0.5724300384521485
0.3951335906982422,0.5724300384521485
0.3898921966552734,0.5749437332153320
0.3898921966552734,0.5749437332153320
0.3901834487915039,0.5695243835449219
0.3901834487915039,0.5695243835449219
0.3954643249511718,0.5766798019409179
0.3954643249511718,0.5766798019409179
0.3892118453979492,0.5701583862304688
0.3892118453979492,0.5701583862304688
0.3958236694335938,0.5737901687622070
0.3958236694335938,0.5737901687622070
0.3895671844482422,0.5764537811279297
0.3895671844482422,0.5764537811279297
0.3918846130371094,0.5710407257080078
0.3918846130371094,0.5710407257080078
0.3962717056274414,0.5781045913696289
0.3962717056274414,0.5781045913696289
0.3897182464599609,0.5715625762939452
0.3897182464599609,0.5715625762939452
0.3953424453735351,0.5750284194946289
0.3953424453735351,0.5750284194946289
0.3915292739868164,0.5775953292846679
0.3915292739868164,0.5775953292846679
0.3924402236938476,0.5718618392944336
0.3924402236938476,0.5718618392944336
0.3963340759277343,0.5782505035400390
0.3963340759277343,0.5782505035400390
0.3882310867309570,0.5704507827758789
0.3882310867309570,0.5704507827758789
0.3955873489379882,0.5727058410644531
0.3955873489379882,0.5727058410644531
0.3901359558105469,0.5740419387817383
0.3901359558105469,0.5740419387817383
0.3900289535522461,0.5672515869140625
0.3900289535522461,0.5672515869140625
0.3929111480712891,0.5728889465332031
0.3929111480712891,0.5728889465332031
0.3870197296142578,0.5651395797729492
0.3870197296142578,0.5651395797729492
0.3932876586914062,0.5676383972167969
0.3932876586914062,0.5676383972167969
0.3881332397460938,0.5695821762084960
0.3881332397460938,0.5695821762084960
0.3868709564208984,0.5630578994750977
0.3868709564208984,0.5630578994750977
0.3923274993896484,0.5692165374755859
0.3923274993896484,0.5692165374755859
0.3855646133422851,0.5619586944580078
0.3855646133422851,0.5619586944580078
0.3918113708496094,0.5647859573364258
0.3918113708496094,0.5647859573364258
0.3860818862915039,0.5672052383422851
0.3860818862915039,0.5672052383422851
0.3869819641113281,0.5611089706420899
0.3869819641113281,0.5611089706420899
0.3918920516967773,0.5677831649780273
0.3918920516967773,0.5677831649780273
0.3850782394409180,0.5610202789306641
0.3850782394409180,0.5610202789306641
0.3903167724609375,0.5641714096069336
0.3903167724609375,0.5641714096069336
0.3873229980468750,0.5671812057495117
0.3873229980468750,0.5671812057495117
0.3870958328247070,0.5614791870117187
0.3870958328247070,0.5614791870117187
0.3921546936035156,0.5686826705932617
0.3921546936035156,0.5686826705932617
0.3846439361572265,0.5621131896972656
0.3922262191772461,0.5621131896972656
0.3919801712036133,0.5654405593872071
0.3919801712036133,0.5654405593872071
0.3883804321289062,0.5685945510864258
0.3883804321289062,0.5685945510864258
0.3876674652099609,0.5629503250122070
0.3876674652099609,0.5629503250122070
0.3917243957519531,0.5697601318359374
0.3917243957519531,0.5697601318359374
0.3864246368408203,0.5633457183837890
0.3864246368408203,0.5633457183837890
0.3925586700439453,0.5665054321289062
0.3850444793701172,0.5665054321289062
0.3888776779174805,0.5698356628417969
0.3888776779174805,0.5698356628417969
0.3870283126831054,0.5637748718261718
0.3870283126831054,0.5637748718261718
0.3934209823608398,0.5708341598510742
0.3934209823608398,0.5708341598510742
0.3871175765991211,0.5643522262573242
0.3871175765991211,0.5643522262573242
0.3929517745971680,0.5676733016967773
0.3929517745971680,0.5676733016967773
0.3884262084960937,0.5709314346313477
0.3884262084960937,0.5709314346313477
0.3886676788330078,0.5649581909179687
0.3886676788330078,0.5649581909179687
0.3940137863159179,0.5720575332641601
0.3940137863159179,0.5720575332641601
0.3876445770263672,0.5658542633056640
0.3876445770263672,0.5658542633056640
0.3922777175903320,0.5688932418823242
0.3922777175903320,0.5688932418823242
0.3903905868530274,0.5723093032836913
0.3903905868530274,0.5723093032836913
0.3893835067749024,0.5662742614746094
0.3893835067749024,0.5662742614746094
0.3948274612426758,0.5734725952148437
0.3948274612426758,0.5734725952148437
0.3871232986450195,0.5671886444091797
0.3871232986450195,0.5671886444091797
0.3939691543579101,0.5700004577636718
0.3939691543579101,0.5700004577636718
0.3910274505615234,0.5736145019531250
0.3910274505615234,0.5736145019531250
0.3897583007812500,0.5674381256103516
0.3897583007812500,0.5674381256103516
0.3942369461059570,0.5744756698608399
0.3942369461059570,0.5744756698608399
0.3888490676879883,0.5684223175048828
0.3888490676879883,0.5684223175048828
0.3946208953857422,0.5710573196411133
0.3889789581298828,0.5691375732421875
0.3915910720825195,0.5748178482055664
0.3963020324707031,0.5748178482055664
0.3892175674438477,0.5684429168701172
0.3892175674438477,0.5684429168701172
0.3958963394165039,0.5756034851074219
0.3958963394165039,0.5756034851074219
0.3894556045532226,0.5696605682373047
0.3894556045532226,0.5696605682373047
0.3948772430419922,0.5721130371093750
0.3948772430419922,0.5721130371093750
0.3909908294677734,0.5757883071899413
0.3909908294677734,0.5757883071899413
0.3907602310180664,0.5693515777587891
0.3907602310180664,0.5693515777587891
0.3964473724365234,0.5760149002075196
0.3964473724365234,0.5760149002075196
0.3893457412719726,0.5695449829101562
0.3893457412719726,0.5695449829101562
0.3930061340332031,0.5702814102172852
0.3930061340332031,0.5702814102172852
0.3908889770507812,0.5728654861450195
0.3908889770507812,0.5728654861450195
0.3887437820434570,0.5648832321166992
0.3887437820434570,0.5648832321166992
0.3937150955200195,0.5704376220703125
0.3937150955200195,0.5704376220703125
0.3853769302368164,0.5635951995849610
0.3853769302368164,0.5635951995849610
0.3911533355712891,0.5641113281250000
0.3911533355712891,0.5641113281250000
0.3885480880737305,0.5669797897338867
0.3885480880737305,0.5669797897338867
0.3861974716186523,0.5596870422363281
0.3861974716186523,0.5596870422363281
0.3903139114379883,0.5655481338500976
0.3903139114379883,0.5655481338500976
0.3843967437744141,0.5595691680908202
0.3843967437744141,0.5595691680908202
0.3893789291381836,0.5602741241455078
0.3893789291381836,0.5602741241455078
0.3868560791015625,0.5639362335205078
0.3868560791015625,0.5639362335205078
0.3837198257446289,0.5568008422851562
0.3837198257446289,0.5568008422851562
0.3903814315795898,0.5633205413818360
0.3903814315795898,0.5633205413818360
0.3836168289184570,0.5579383850097656
0.3915767669677734,0.5579383850097656
0.3886110305786133,0.5587308883666992
0.3886110305786133,0.5587308883666992
0.3852561950683593,0.5628192901611327
0.3852561950683593,0.5628192901611327
0.3844596862792969,0.5562303543090820
0.3844596862792969,0.5562303543090820
0.3903448104858399,0.5630481719970702
0.3903448104858399,0.5630481719970702
0.3834720611572265,0.5583023071289063
0.3834720611572265,0.5583023071289063
0.3877893447875976,0.5590238571166992
0.3877893447875976,0.5590238571166992
0.3868526458740234,0.5636455535888671
0.3868526458740234,0.5636455535888671
0.3850673675537109,0.5572368621826171
0.3850673675537109,0.5572368621826171
0.3906503677368164,0.5640604019165039
0.3906503677368164,0.5640604019165039
0.3826686859130859,0.5592338562011718
0.3826686859130859,0.5592338562011718
0.3893325805664062,0.5598878860473633
0.3893325805664062,0.5598878860473633
0.3872760772705078,0.5645507812500000
0.3872760772705078,0.5645507812500000
0.3852035522460938,0.5581575393676758
0.3852035522460938,0.5581575393676758
0.3899545669555664,0.5648334503173827
0.3899545669555664,0.5648334503173827
0.3840688705444336,0.5604011535644531
0.3840688705444336,0.5604011535644531
0.3899013519287109,0.5606672286987304
0.3899013519287109,0.5606672286987304
0.3877779006958008,0.5656991958618164
0.3877779006958008,0.5656991958618164
0.3844722747802734,0.5591199874877929
0.3844722747802734,0.5591199874877929
0.3916288375854492,0.5658044815063477
0.3916288375854492,0.5658044815063477
0.3845735549926758,0.5617303848266602
0.3845735549926758,0.5617303848266602
0.3903745651245117,0.5618556976318360
0.3903745651245117,0.5618556976318360
0.3873075485229492,0.5669368743896485
0.3873075485229492,0.5669368743896485
0.3862604141235351,0.5606031417846680
0.3862604141235351,0.5606031417846680
0.3925352096557617,0.5671577453613281
0.3925352096557617,0.5671577453613281
0.3850713729858398,0.5633680343627929
0.3850713729858398,0.5633680343627929
0.3898469924926758,0.5629835128784180
0.3898469924926758,0.5629835128784180
0.3891334533691406,0.5682695388793945
0.3891334533691406,0.5682695388793945
0.3868675231933594,0.5619031906127929
0.3868675231933594,0.5619031906127929
0.3929271697998047,0.5684331893920899
0.3929271697998047,0.5684331893920899
0.3844453811645508,0.5646692276000976
0.3844453811645508,0.5646692276000976
0.3915916442871094,0.5642148971557617
0.3915916442871094,0.5642148971557617
0.3898756027221680,0.5696428298950195
0.3898756027221680,0.5696428298950195
0.3873767852783203,0.5634103775024414
0.3873767852783203,0.5634103775024414
0.3923223495483398,0.5695804595947266
0.3923223495483398,0.5695804595947266
0.3860830307006836,0.5660888671875000
0.3860830307006836,0.5660888671875000
0.3922674179077149,0.5654760360717773
0.3922674179077149,0.5654760360717773
0.3903631210327148,0.5711065292358398
0.3903631210327148,0.5711065292358398
0.3868120193481445,0.5646011352539062
0.3868120193481445,0.5646011352539062
0.3941373825073242,0.5707717895507812
0.3941373825073242,0.5707717895507812
0.3867959976196289,0.5672178268432617
0.3867959976196289,0.5672178268432617
0.3923532485961914,0.5659595489501953
0.3923532485961914,0.5659595489501953
0.3890796661376953,0.5703334808349609
0.3890796661376953,0.5703334808349609
0.3870552062988281,0.5625555038452148
0.3870552062988281,0.5625555038452148
0.3925598144531250,0.5671222686767577
0.3925598144531250,0.5671222686767577
0.3843194961547852,0.5624679565429688
0.3843194961547852,0.5624679565429688
0.3885366439819336,0.5600938796997070
0.3885366439819336,0.5600938796997070
0.3873670578002930,0.5644008636474609
0.3873670578002930,0.5644008636474609
0.3842891693115234,0.5566646575927734
0.3842891693115234,0.5566646575927734
0.3900157928466797,0.5616239547729492
0.3900157928466797,0.5616239547729492
0.3806768417358398,0.5574811935424805
0.3806768417358398,0.5574811935424805
0.3872440338134766,0.5556283950805664
0.3872440338134766,0.5556283950805664
0.3855411529541016,0.5604995727539063
0.3855411529541016,0.5604995727539063
0.3824197769165039,0.5534385681152344
0.3829954147338867,0.5534385681152344
0.3874231338500976,0.5584247589111327
0.3874231338500976,0.5584247589111327
0.3806173324584961,0.5551626205444335
0.3806173324584961,0.5551626205444335
0.3863525390625000,0.5535026550292969
0.3863525390625000,0.5535026550292969
0.3848253250122070,0.5587383270263672
0.3848253250122070,0.5587383270263672
0.3805000305175781,0.5517345428466797
0.3805000305175781,0.5517345428466797
0.3879798889160156,0.5571493148803711
0.3879798889160156,0.5571493148803711
0.3801223754882813,0.5543323516845703
0.3801223754882813,0.5543323516845703
0.3858930587768555,0.5530998229980468
0.3858930587768555,0.5530998229980468
0.3838045120239258,0.5587383270263672
0.3838045120239258,0.5587383270263672
0.3817955017089844,0.5523662567138672
0.3817955017089844,0.5523662567138672
0.3884387969970703,0.5578903198242188
0.3884387969970703,0.5578903198242188
0.3806785583496093,0.5557125091552734
0.3806785583496093,0.5557125091552734
0.3852642059326172,0.5544118881225586
0.3852642059326172,0.5544118881225586
0.3857505798339844,0.5602157592773437
0.3857505798339844,0.5602157592773437
0.3825141906738281,0.5538585662841796
0.3825141906738281,0.5538585662841796
0.3890453338623047,0.5595119476318359
0.3890453338623047,0.5595119476318359
0.3800714492797851,0.5572065353393555
0.3800714492797851,0.5572065353393555
0.3869173049926758,0.5557806015014648
0.3869173049926758,0.5557806015014648
0.3866872787475586,0.5616634368896484
0.3866872787475586,0.5616634368896484
0.3830417633056640,0.5553697586059571
0.3830417633056640,0.5553697586059571
0.3884582519531250,0.5607622146606445
0.3884582519531250,0.5607622146606445
0.3819631576538086,0.5586959838867187
0.3819631576538086,0.5586959838867187
0.3874917984008789,0.5571372985839843
0.3874917984008789,0.5571372985839843
0.3873773574829101,0.5631391525268554
0.3873773574829101,0.5631391525268554
0.3825771331787109,0.5566034317016602
0.3825771331787109,0.5566034317016602
0.3902418136596680,0.5622539520263672
0.3902418136596680,0.5622539520263672
0.3827762603759766,0.5602535247802735
0.3827762603759766,0.5602535247802735
0.3880714416503906,0.5588104248046875
0.3880714416503906,0.5588104248046875
0.3871198654174804,0.5647951126098633
0.3871198654174804,0.5647951126098633
0.3842823028564453,0.5581071853637695
0.3842823028564453,0.5581071853637695
0.3908060073852539,0.5636146545410156
0.3908060073852539,0.5636146545410156
0.3834766387939453,0.5620800018310547
0.3834766387939453,0.5620800018310547
0.3875673294067383,0.5605865478515625
0.3875673294067383,0.5605865478515625
0.3890670776367187,0.5662542343139648
0.3890670776367187,0.5662542343139648
0.3854621887207031,0.5599239349365234
0.3854621887207031,0.5599239349365234
0.3917243957519531,0.5657678604125976
0.3917243957519531,0.5657678604125976
0.3833112716674805,0.5638423919677734
0.3833112716674805,0.5638423919677734
0.3895208358764649,0.5623970031738281
0.3895208358764649,0.5623970031738281
0.3901107788085937,0.5682008743286132
0.3901107788085937,0.5682008743286132
0.3861923217773438,0.5618991851806641
0.3861923217773438,0.5618991851806641
0.3913879394531250,0.5673563003540039
0.3913879394531250,0.5673563003540039
0.3852893829345703,0.5657289505004882
0.3852893829345703,0.5657289505004882
0.3904563903808594,0.5639825820922851
0.3904563903808594,0.5639825820922851
0.3910194396972656,0.5696256637573242
0.3910194396972656,0.5696256637573242
0.3854072570800781,0.5624279022216797
0.3854072570800781,0.5624279022216797
0.3924293518066406,0.5671400070190430
0.3924293518066406,0.5671400070190430
0.3846754074096679,0.5641010284423827
0.3846754074096679,0.5641010284423827
0.3887758255004883,0.5609504699707031
0.3887758255004883,0.5609504699707031
0.3879936218261719,0.5652042388916015
0.3879936218261719,0.5652042388916015
0.3840980529785156,0.5572889328002929
0.3840980529785156,0.5572889328002929
0.3900959014892578,0.5618368148803711
0.3900959014892578,0.5618368148803711
0.3822240829467773,0.5592018127441406
0.3822240829467773,0.5592018127441406
0.3853357315063476,0.5560352325439453
0.3853357315063476,0.5560352325439453
0.3871456146240234,0.5611787796020508
0.3871456146240234,0.5611787796020508
0.3823482513427734,0.5536680221557617
0.3823482513427734,0.5536680221557617
0.3883649826049805,0.5587789535522460
0.3883649826049805,0.5587789535522460
0.3798631668090820,0.5564346313476562
0.3798631668090820,0.5564346313476562
0.3852230072021484,0.5537652969360352
0.3852230072021484,0.5537652969360352
0.3864406585693359,0.5591817855834961
0.3864406585693359,0.5591817855834961
0.3815723419189453,0.5520435333251953
0.3815723419189453,0.5520435333251953
0.3865705490112304,0.5573850631713867
0.3865705490112304,0.5573850631713867
0.3806402206420899,0.5554985046386719
0.3806402206420899,0.5554985046386719
0.3848733901977539,0.5531988143920898
0.3848733901977539,0.5531988143920898
0.3863348007202148,0.5592996597290039
0.3863348007202148,0.5592996597290039
0.3806356430053711,0.5523365020751952
0.3806356430053711,0.5523365020751952
0.3881853103637695,0.5582965850830078
0.3881853103637695,0.5582965850830078
0.3815368652343750,0.5569850921630859
0.3815368652343750,0.5569850921630859
0.3855440139770508,0.5548009872436523
0.3855440139770508,0.5548009872436523
0.3861785888671875,0.5609424591064452
0.3861785888671875,0.5609424591064452
0.3824987411499023,0.5541080474853516
0.3824987411499023,0.5541080474853516
0.3891036987304687,0.5599164962768555
0.3891036987304687,0.5599164962768555
0.3823139190673828,0.5586650848388671
0.3823139190673828,0.5586650848388671
0.3826623916625976,0.5560604095458984
0.3826623916625976,0.5560604095458984
0.3826623916625976,0.5555328369140625
0.3887729644775391,0.5584968566894531
0.3818120956420898,0.5584968566894531
0.3853872299194336,0.5634601593017577
0.3853872299194336,0.5634601593017577
0.3845243453979492,0.5560163497924805
0.3845243453979492,0.5560163497924805
0.3894126892089844,0.5628885269165039
0.3894126892089844,0.5628885269165039
0.3837163925170898,0.5570795059204101
0.3837163925170898,0.5570795059204101
0.3891008377075195,0.5616651535034179
0.3891008377075195,0.5616651535034179
0.3862529754638672,0.5634298324584961
0.3862529754638672,0.5634298324584961
0.3851451873779297,0.5574680328369140
0.3851451873779297,0.5574680328369140
0.3908592224121094,0.5645404815673828
0.3908592224121094,0.5645404815673828
0.3841529846191406,0.5605888366699219
0.3841529846191406,0.5605888366699219
0.3897588729858398,0.5615312576293945
0.3897588729858398,0.5615312576293945
0.3867656707763672,0.5650211334228515
0.3867656707763672,0.5650211334228515
0.3863800048828125,0.5589998245239257
0.3863800048828125,0.5589998245239257
0.3913192749023438,0.5679113388061523
0.3913192749023438,0.5679113388061523
0.3850833892822266,0.5605173110961914
0.3850833892822266,0.5605173110961914
0.3904781341552734,0.5630344390869141
0.3904781341552734,0.5630344390869141
0.3883260726928711,0.5666759490966796
0.3883260726928711,0.5666759490966796
0.3868022918701172,0.5623386383056640
0.3868022918701172,0.5623386383056640
0.3921295166015625,0.5676836013793946
0.3921295166015625,0.5676836013793946
0.3854461669921875,0.5622053146362305
0.3854461669921875,0.5622053146362305
0.3914714813232422,0.5644901275634765
0.3914714813232422,0.5644901275634765
0.3889177322387695,0.5701549530029296
0.3889177322387695,0.5701549530029296
0.3875959396362305,0.5624216079711913
0.3875959396362305,0.5624216079711913
0.3929803848266601,0.5695301055908203
0.3929803848266601,0.5695301055908203
0.3870632171630859,0.5641862869262695
0.3870632171630859,0.5641862869262695
0.3919160842895508,0.5676235198974610
0.3919160842895508,0.5676235198974610
0.3894905090332031,0.5692766189575195
0.3894905090332031,0.5692766189575195
0.3871181488037109,0.5619157791137696
0.3871181488037109,0.5619157791137696
0.3926353454589844,0.5675771713256835
0.3874225616455078,0.5675771713256835
0.3852561950683593,0.5627340316772461
0.3852561950683593,0.5627340316772461
0.3897142410278320,0.5612010955810547
0.3897142410278320,0.5612010955810547
0.3868635177612305,0.5640083312988281
0.3868635177612305,0.5640083312988281
0.3851148605346680,0.5565822601318359
0.3851148605346680,0.5565822601318359
0.3897268295288086,0.5640489578247070
0.3897268295288086,0.5640489578247070
0.3828002929687500,0.5564792633056640
0.3828002929687500,0.5564792633056640
0.3872543334960937,0.5569599151611327
0.3872543334960937,0.5569599151611327
0.3855846405029297,0.5604000091552734
0.3855846405029297,0.5604000091552734
0.3833009719848633,0.5551420211791992
0.3833009719848633,0.5551420211791992
0.3884428024291992,0.5597539901733398
0.3884428024291992,0.5597539901733398
0.3815637588500976,0.5543437957763672
0.3815637588500976,0.5543437957763672
0.3870014190673828,0.5548948287963867
0.3870014190673828,0.5548948287963867
0.3844717025756836,0.5604686737060547
0.3844717025756836,0.5604686737060547
0.3824541091918945,0.5520870208740234
0.3824541091918945,0.5520870208740234
0.3875473022460937,0.5585872650146484
0.3875473022460937,0.5585872650146484
0.3815551757812500,0.5538351058959960
0.3815551757812500,0.5538351058959960
0.3864618301391601,0.5562028884887695
0.3864618301391601,0.5562028884887695
0.3845306396484375,0.5590044021606445
0.3845306396484375,0.5590044021606445
0.3826921463012695,0.5527833938598633
0.3826921463012695,0.5527833938598633
0.3886259078979492,0.5596738815307617
0.3886259078979492,0.5596738815307617
0.3817972183227539,0.5570337295532226
0.3817972183227539,0.5570337295532226
0.3872486114501953,0.5560815811157226
0.3872486114501953,0.5560815811157226
0.3851085662841797,0.5607959747314453
0.3851085662841797,0.5607959747314453
0.3838949203491211,0.5546316146850586
0.3838949203491211,0.5546316146850586
0.3893383026123047,0.5630287170410156
0.3893383026123047,0.5630287170410156
0.3826274871826172,0.5571556091308594
0.3826274871826172,0.5571556091308594
0.3879787445068359,0.5574502944946289
0.3879787445068359,0.5574502944946289
0.3866151809692382,0.5623844146728515
0.3866151809692382,0.5623844146728515
0.3842531204223633,0.5578943252563476
0.3842531204223633,0.5578943252563476
0.3899522781372070,0.5627746582031250
0.3899522781372070,0.5627746582031250
0.3828895568847656,0.5587686538696289
0.3828895568847656,0.5587686538696289
0.3890716552734375,0.5589906692504882
0.3890716552734375,0.5589906692504882
0.3870683670043945,0.5657278060913086
0.3870683670043945,0.5657278060913086
0.3849901199340820,0.5578330993652344
0.3849901199340820,0.5578330993652344
0.3908220291137695,0.5646492004394531
0.3908220291137695,0.5646492004394531
0.3844270706176758,0.5610008239746094
0.3844270706176758,0.5610008239746094
0.3898761749267578,0.5628828048706055
0.3898761749267578,0.5628828048706055
0.3882482528686523,0.5664470672607421
0.3882482528686523,0.5664470672607421
0.3857563018798828,0.5602689743041992
0.3857563018798828,0.5602689743041992
0.3922702789306641,0.5666496276855468
0.3922702789306641,0.5666496276855468
0.3850530624389648,0.5649118423461914
0.3850530624389648,0.5649118423461914
0.3907608032226562,0.5627677917480468
0.3907608032226562,0.5627677917480468
0.3890693664550781,0.5678564071655273
0.3890693664550781,0.5678564071655273
0.3872234344482422,0.5616062164306640
0.3872234344482422,0.5616062164306640
0.3927108764648438,0.5696279525756835
0.3927108764648438,0.5696279525756835
0.3857614517211914,0.5643779754638671
0.3857614517211914,0.5643779754638671
0.3910194396972656,0.5638750076293945
0.3910194396972656,0.5638750076293945
0.3901067733764648,0.5691530227661132
0.3901067733764648,0.5691530227661132
0.3873647689819336,0.5646703720092773
0.3873647689819336,0.5646703720092773
0.3933231353759766,0.5691862106323242
0.3933231353759766,0.5691862106323242
0.3863554000854492,0.5660533905029297
0.3863554000854492,0.5660533905029297
0.3924081802368164,0.5653535842895507
0.3924081802368164,0.5653535842895507
0.3904420852661133,0.5721788406372070
0.3904420852661133,0.5721788406372070
0.3876605987548828,0.5635631561279296
0.3876605987548828,0.5635631561279296
0.3928447723388672,0.5684085845947265
0.3928447723388672,0.5684085845947265
0.3858701705932617,0.5642595291137695
0.3858701705932617,0.5642595291137695
0.3904804229736328,0.5636981964111328
0.3904804229736328,0.5636981964111328
0.3883460998535156,0.5661134719848633
0.3883460998535156,0.5661134719848633
0.3851285934448242,0.5584642410278320
0.3851285934448242,0.5584642410278320
0.3909496307373047,0.5630355834960937
0.3909496307373047,0.5630355834960937
0.3829547882080078,0.5607959747314453
0.3829547882080078,0.5607959747314453
0.3880416870117188,0.5571928024291992
0.3880416870117188,0.5571928024291992
0.3858633041381836,0.5615730285644531
0.3858633041381836,0.5615730285644531
0.3834794998168945,0.5543260574340820
0.3834794998168945,0.5543260574340820
0.3889125823974609,0.5608818054199218
0.3889125823974609,0.5608818054199218
0.3812129974365234,0.5560689926147461
0.3812129974365234,0.5560689926147461
0.3865236282348632,0.5544811248779297
0.3865236282348632,0.5544811248779297
0.3855274200439453,0.5594203948974609
0.3855274200439453,0.5594203948974609
0.3821823120117188,0.5545286178588867
0.3821823120117188,0.5545286178588867
0.3881361007690430,0.5578050613403320
0.3881361007690430,0.5578050613403320
0.3804468154907226,0.5551351547241211
0.3804468154907226,0.5551351547241211
0.3865659713745117,0.5536628723144531
0.3865659713745117,0.5536628723144531
0.3852373123168945,0.5606924057006836
0.3852373123168945,0.5606924057006836
0.3822200775146484,0.5526397705078124
0.3822200775146484,0.5526397705078124
0.3882751464843750,0.5580768585205078
0.3882751464843750,0.5580768585205078
0.3814647674560547,0.5559196472167969
0.3814647674560547,0.5559196472167969
0.3866357803344727,0.5565004348754883
0.3866357803344727,0.5565004348754883
0.3859846115112305,0.5602363586425781
0.3859846115112305,0.5602363586425781
0.3825731277465820,0.5540605545043945
0.3825731277465820,0.5540605545043945
0.3895196914672852,0.5593803405761718
0.3895196914672852,0.5593803405761718
0.3818784713745117,0.5591268539428711
0.3818784713745117,0.5591268539428711
0.3872817993164062,0.5560764312744141
0.3872817993164062,0.5560764312744141
0.3867158889770508,0.5615901947021484
0.3867158889770508,0.5615901947021484
0.3838508605957031,0.5553440093994141
0.3838508605957031,0.5553440093994141
0.3897737503051757,0.5624542236328125
0.3897737503051757,0.5624542236328125
0.3825273513793945,0.5586805343627930
0.3825273513793945,0.5586805343627930
0.3873939514160156,0.5573541641235351
0.3873939514160156,0.5573541641235351
0.3878562927246094,0.5629314422607422
0.3878562927246094,0.5629314422607422
0.3841810226440430,0.5583183288574218
0.3841810226440430,0.5583183288574218
0.3904649734497070,0.5620765686035156
0.3904649734497070,0.5620765686035156
0.3831785202026367,0.5602306365966797
0.3831785202026367,0.5602306365966797
0.3887907028198242,0.5587863922119141
0.3887907028198242,0.5587863922119141
0.3884696960449219,0.5662267684936523
0.3884696960449219,0.5662267684936523
0.3849729537963867,0.5583509445190430
0.3849729537963867,0.5583509445190430
0.3908855438232422,0.5636095046997071
0.3908855438232422,0.5636095046997071
0.3843578338623047,0.5618551254272460
0.3843578338623047,0.5618551254272460
0.3891614913940429,0.5620176315307617
0.3891614913940429,0.5620176315307617
0.3892730712890625,0.5658891677856445
0.3909559249877930,0.5658891677856445
0.3855222702026367,0.5595319747924804
0.3871931076049804,0.5595319747924804
0.3922262191772461,0.5648454666137696
0.3922262191772461,0.5648454666137696
0.3846204757690430,0.5649118423461914
0.3846204757690430,0.5649118423461914
0.3896278381347656,0.5615741729736328
0.3896799087524414,0.5671754837036133
0.3865442276000977,0.5610025405883788
0.3865442276000977,0.5610025405883788
0.3925695419311523,0.5681991577148438
0.3925695419311523,0.5681991577148438
0.3854015350341797,0.5648609161376953
0.3854015350341797,0.5648609161376953
0.3902767181396484,0.5630819320678710
0.3902767181396484,0.5630819320678710
0.3913639068603516,0.5689785003662109
0.3913639068603516,0.5689785003662109
0.3869670867919922,0.5641811370849609
0.3869670867919922,0.5641811370849609
0.3931297302246093,0.5674232482910156
0.3931297302246093,0.5674232482910156
0.3852487564086914,0.5651264190673828
0.3852487564086914,0.5651264190673828
0.3901273727416992,0.5621309280395508
0.3901273727416992,0.5621309280395508
0.3900278091430664,0.5682495117187499
0.3900278091430664,0.5682495117187499
0.3851285934448242,0.5585563659667968
0.3851285934448242,0.5585563659667968
0.3906240463256836,0.5625011444091796
0.3906240463256836,0.5625011444091796
0.3832105636596679,0.5594736099243164
0.3832105636596679,0.5594736099243164
0.3868600845336914,0.5579492568969726
0.3868600845336914,0.5579492568969726
0.3873207092285156,0.5608949661254883
0.3873207092285156,0.5608949661254883
0.3821336746215820,0.5532606124877929
0.3821336746215820,0.5532606124877929
0.3887065887451172,0.5579120635986328
0.3887065887451172,0.5579120635986328
0.3876234054565429,0.5582221984863281
0.3876234054565429,0.5582221984863281
0.3798505783081055,0.5513425827026367
0.3798505783081055,0.5513425827026367
0.3868097305297851,0.5538431167602539
0.3868097305297851,0.5538431167602539
0.3828369140625000,0.5561462402343750
0.3828369140625000,0.5561462402343750
0.3821113586425781,0.5503927230834961
0.3821113586425781,0.5503927230834961
0.3858198165893554,0.5564483642578125
0.3858198165893554,0.5564483642578125
0.3804113388061524,0.5500940322875977
0.3804113388061524,0.5500940322875977
0.3863634109497070,0.5529762268066406
0.3863634109497070,0.5529762268066406
0.3826623916625976,0.5559213638305663
0.3826623916625976,0.5559213638305663
0.3809715270996094,0.5501775741577148
0.3809715270996094,0.5501775741577148
0.3870334625244141,0.5568208694458008
0.3870334625244141,0.5568208694458008
0.3809400558471679,0.5509574890136718
0.3809400558471679,0.5509574890136718
0.3867994308471679,0.5541137695312500
0.3867994308471679,0.5541137695312500
0.3824260711669922,0.5572483062744140
0.3824260711669922,0.5572483062744140
0.3826892852783203,0.5517488479614258
0.3826892852783203,0.5517488479614258
0.3879724502563476,0.5585409164428711
0.3879724502563476,0.5585409164428711
0.3815826416015625,0.5527416229248047
0.3815826416015625,0.5527416229248047
0.3863817214965820,0.5555528640747071
0.3863817214965820,0.5555528640747071
0.3843395233154297,0.5589082717895507
0.3843395233154297,0.5589082717895507
0.3836483001708984,0.5532938003540039
0.3836483001708984,0.5532938003540039
0.3887145996093750,0.5601436614990234
0.3887145996093750,0.5601436614990234
0.3813875198364258,0.5543043136596679
0.3813875198364258,0.5543043136596679
0.3880926132202148,0.5571487426757812
0.3880926132202148,0.5571487426757812
0.3853855133056641,0.5604864120483398
0.3853855133056641,0.5604864120483398
0.3843006134033203,0.5548673629760742
0.3843006134033203,0.5548673629760742
0.3884662628173828,0.5615077972412109
0.3884662628173828,0.5615077972412109
0.3833370208740234,0.5557731628417969
0.3833370208740234,0.5557731628417969
0.3889846801757812,0.5585426330566406
0.3889846801757812,0.5585426330566406
0.3862020492553711,0.5620868682861327
0.3862020492553711,0.5620868682861327
0.3840082168579101,0.5561027526855469
0.3840082168579101,0.5561027526855469
0.3902830123901367,0.5631065368652344
0.3902830123901367,0.5631065368652344
0.3842033386230468,0.5574748992919921
0.3842033386230468,0.5574748992919921
0.3895671844482422,0.5600749969482421
0.3830766677856445,0.5600749969482421
0.3859880447387695,0.5634447097778320
0.3859880447387695,0.5634447097778320
0.3859090805053711,0.5576568603515625
0.3859090805053711,0.5576568603515625
0.3913358688354492,0.5645290374755859
0.3913358688354492,0.5645290374755859
0.3848968505859375,0.5592195510864257
0.3848968505859375,0.5592195510864257
0.3891826629638672,0.5615135192871094
0.3891826629638672,0.5615135192871094
0.3879512786865234,0.5651876449584960
0.3879512786865234,0.5651876449584960
0.3865797042846680,0.5592407226562500
0.3865797042846680,0.5592407226562500
0.3919721603393554,0.5663286209106445
0.3919721603393554,0.5663286209106445
0.3846736907958984,0.5608949661254883
0.3846736907958984,0.5608949661254883
0.3910531997680664,0.5632049560546875
0.3910531997680664,0.5632049560546875
0.3890504837036133,0.5670352935791015
0.3890504837036133,0.5670352935791015
0.3875318527221679,0.5611398696899413
0.3875318527221679,0.5611398696899413
0.3917375564575195,0.5677791595458984
0.3917375564575195,0.5677791595458984
0.3865133285522461,0.5623529434204101
0.3865133285522461,0.5623529434204101
0.3912672042846679,0.5633548736572266
0.3912672042846679,0.5633548736572266
0.3886178970336914,0.5662925720214843
0.3886178970336914,0.5662925720214843
0.3853958129882812,0.5586193084716796
0.3853958129882812,0.5586193084716796
0.3911252975463867,0.5639459609985351
0.3911252975463867,0.5639459609985351
0.3843074798583984,0.5574743270874023
0.3843074798583984,0.5574743270874023
0.3886213302612305,0.5579835891723632
0.3886213302612305,0.5579835891723632
0.3849803924560547,0.5606174468994141
0.3849803924560547,0.5606174468994141
0.3838485717773437,0.5533756256103516
0.3838485717773437,0.5533756256103516
0.3888244628906250,0.5592081069946289
0.3888244628906250,0.5592081069946289
0.3821977615356445,0.5534614562988281
0.3821977615356445,0.5534614562988281
0.3856904983520508,0.5540439605712890
0.3856904983520508,0.5540439605712890
0.3844860076904297,0.5575109481811523
0.3844860076904297,0.5575109481811523
0.3826257705688477,0.5505723953247070
0.3826257705688477,0.5505723953247070
0.3876972198486328,0.5568677902221679
0.3876972198486328,0.5568677902221679
0.3800130844116211,0.5514713287353515
0.3800130844116211,0.5514713287353515
0.3859806060791016,0.5520572662353516
0.3859806060791016,0.5520572662353516
0.3839378356933594,0.5560066223144531
0.3839378356933594,0.5560066223144531
0.3819671630859375,0.5496007919311523
0.3819671630859375,0.5496007919311523
0.3863611221313477,0.5560581207275390
0.3863611221313477,0.5560581207275390
0.3810413360595703,0.5514530181884766
0.3810413360595703,0.5514530181884766
0.3861963272094727,0.5523176193237305
0.3861963272094727,0.5523176193237305
0.3842988967895508,0.5568935394287109
0.3842988967895508,0.5568935394287109
0.3814693450927734,0.5507738113403320
0.3814693450927734,0.5507738113403320
0.3880668640136719,0.5574497222900391
0.3880668640136719,0.5574497222900391
0.3818115234375000,0.5531473159790039
0.3818115234375000,0.5531473159790039
0.3868915557861328,0.5539089202880859
0.3868915557861328,0.5539089202880859
0.3841627120971680,0.5584550857543945
0.3841627120971680,0.5584550857543945
0.3831928253173828,0.5522603988647461
0.3831928253173828,0.5522603988647461
0.3889875411987305,0.5588390350341796
0.3889875411987305,0.5588390350341796
0.3824546813964844,0.5547431945800781
0.3824546813964844,0.5547431945800781
0.3865625381469727,0.5549263000488281
0.3865625381469727,0.5549263000488281
0.3859262466430664,0.5596149444580077
0.3859262466430664,0.5596149444580077
0.3838136672973633,0.5533802032470703
0.3838136672973633,0.5533802032470703
0.3895019531250000,0.5600704193115235
0.3895019531250000,0.5600704193115235
0.3819351196289062,0.5559734344482422
0.3819351196289062,0.5559734344482422
0.3882499694824219,0.5562183380126953
0.3882499694824219,0.5562183380126953
0.3867908477783203,0.5611558914184570
0.3867908477783203,0.5611558914184570
0.3845552444458007,0.5550624847412109
0.3845552444458007,0.5550624847412109
0.3892416000366211,0.5615186691284180
0.3840854644775391,0.5615186691284180
0.3836711883544922,0.5577941894531250
0.3836711883544922,0.5577941894531250
0.3891077041625977,0.5577838897705077
0.3891077041625977,0.5577838897705077
0.3875164031982422,0.5628782272338867
0.3875164031982422,0.5628782272338867
0.3842845916748047,0.5566869735717773
0.3842845916748047,0.5566869735717773
0.3911413192749023,0.5631196975708007
0.3911413192749023,0.5631196975708007
0.3847040176391601,0.5594318389892577
0.3847040176391601,0.5594318389892577
0.3899591445922851,0.5594318389892577
0.3899591445922851,0.5594318389892577
0.3873624801635742,0.5645175933837890
0.3873624801635742,0.5645175933837890
0.3862421035766602,0.5585289001464844
0.3862421035766602,0.5585289001464844
0.3920928955078125,0.5648328781127929
0.3920928955078125,0.5648328781127929
0.3854907989501953,0.5614603042602538
0.3854907989501953,0.5614603042602538
0.3898904800415039,0.5610809326171875
0.3898904800415039,0.5610809326171875
0.3893703460693359,0.5663120269775390
0.3893703460693359,0.5663120269775390
0.3872411727905273,0.5602226257324219
0.3872411727905273,0.5602226257324219
0.3929677963256836,0.5664550781250000
0.3929677963256836,0.5664550781250000
0.3851840972900391,0.5628936767578124
0.3851840972900391,0.5628936767578124
0.3916093826293945,0.5622121810913085
0.3916093826293945,0.5622121810913085
0.3898452758789062,0.5670375823974609
0.3898452758789062,0.5670375823974609
0.3870386123657226,0.5599943161010742
0.3870386123657226,0.5599943161010742
0.3912912368774414,0.5646440505981445
0.3912912368774414,0.5646440505981445
0.3848951339721680,0.5601659774780273
0.3848951339721680,0.5601659774780273
0.3898504257202148,0.5579973220825195
0.3898504257202148,0.5579973220825195
0.3875387191772461,0.5620382308959960
0.3875387191772461,0.5620382308959960
0.3833553314208984,0.5544124603271484
0.3833553314208984,0.5544124603271484
0.3897113800048828,0.5591217041015625
0.3897113800048828,0.5591217041015625
0.3824386596679688,0.5550767898559570
0.3824386596679688,0.5550767898559570
0.3873178482055664,0.5533166885375976
0.3873178482055664,0.5533166885375976
0.3844757080078125,0.5576751708984374
0.3844757080078125,0.5576751708984374
0.3825811386108398,0.5507566452026367
0.3825811386108398,0.5507566452026367
0.3883317947387695,0.5556547164916992
0.3883317947387695,0.5556547164916992
0.3810087203979492,0.5523633956909180
0.3810087203979492,0.5523633956909180
0.3850341796875000,0.5507154464721680
0.3850341796875000,0.5507154464721680
0.3844676971435547,0.5554967880249023
0.3844676971435547,0.5554967880249023
0.3817296981811523,0.5489387512207031
0.3817296981811523,0.5489387512207031
0.3875701904296875,0.5542545318603516
0.3875701904296875,0.5542545318603516
0.3795078277587891,0.5514123916625976
0.3795078277587891,0.5514123916625976
0.3856733322143555,0.5503114700317383
0.3856733322143555,0.5503114700317383
0.3846817016601562,0.5555837631225585
0.3846817016601562,0.5555837631225585
0.3818939208984375,0.5495721817016601
0.3818939208984375,0.5495721817016601
0.3868978500366211,0.5550149917602539
0.3868978500366211,0.5550149917602539
0.3809520721435547,0.5526557922363281
0.3809520721435547,0.5526557922363281
0.3862998962402344,0.5515880584716797
0.3862998962402344,0.5515880584716797
0.3853694915771484,0.5571487426757812
0.3853694915771484,0.5571487426757812
0.3814664840698242,0.5509941101074218
0.3814664840698242,0.5509941101074218
0.3886854171752930,0.5564563751220702
0.3886854171752930,0.5564563751220702
0.3818395614624023,0.5542779922485351
0.3818395614624023,0.5542779922485351
0.3869728088378906,0.5531690597534179
0.3869728088378906,0.5531690597534179
0.3851915359497070,0.5585008621215820
0.3851915359497070,0.5585008621215820
0.3832323074340820,0.5524692535400391
0.3832323074340820,0.5524692535400391
0.3893886566162109,0.5578428268432617
0.3893886566162109,0.5578428268432617
0.3824003219604492,0.5558618545532227
0.3824003219604492,0.5558618545532227
0.3865528106689453,0.5545257568359375
0.3865528106689453,0.5545257568359375
0.3869962692260742,0.5601493835449218
0.3869962692260742,0.5601493835449218
0.3841764450073242,0.5540943145751953
0.3841764450073242,0.5540943145751953
0.3902200698852539,0.5594867706298828
0.3902200698852539,0.5594867706298828
0.3821239471435547,0.5573347091674804
0.3821239471435547,0.5573347091674804
0.3882305145263672,0.5560152053833007
0.3882305145263672,0.5560152053833007
0.3879140853881836,0.5616039276123047
0.3879140853881836,0.5616039276123047
0.3846502304077148,0.5556747436523437
0.3846502304077148,0.5556747436523437
0.3898773193359375,0.5608297348022461
0.3898773193359375,0.5608297348022461
0.3837936401367187,0.5590518951416016
0.3837936401367187,0.5590518951416016
0.3891151428222656,0.5576431274414062
0.3891151428222656,0.5576431274414062
0.3887409210205078,0.5633525848388672
0.3887409210205078,0.5633525848388672
0.3854839324951172,0.5625778198242187
0.3854839324951172,0.5625778198242187
0.3841203689575195,0.5575000762939453
0.3841203689575195,0.5575000762939453
0.3910875320434570,0.5659063339233398
0.3910875320434570,0.5659063339233398
0.3849695205688476,0.5582033157348633
0.3849695205688476,0.5582033157348633
0.3914834976196289,0.5614494323730469
0.3914834976196289,0.5614494323730469
0.3869024276733398,0.5639511108398437
0.3869024276733398,0.5639511108398437
0.3877647399902344,0.5607896804809570
0.3877647399902344,0.5607896804809570
0.3918834686279297,0.5657552719116211
0.3918834686279297,0.5657552719116211
0.3853637695312500,0.5598449707031250
0.3853637695312500,0.5598449707031250
0.3926250457763672,0.5630916595458985
0.3926250457763672,0.5630916595458985
0.3874837875366211,0.5672246932983398
0.3874837875366211,0.5672246932983398
0.3882041931152344,0.5598918914794921
0.3882041931152344,0.5598918914794921
0.3919326782226563,0.5655406951904297
0.3919326782226563,0.5655406951904297
0.3854158401489258,0.5583337783813477
0.3854158401489258,0.5583337783813477
0.3909965515136719,0.5618305206298828
0.3909965515136719,0.5618305206298828
0.3856595993041992,0.5612125396728516
0.3856595993041992,0.5612125396728516
0.3853363037109375,0.5546819686889648
0.3853363037109375,0.5546819686889648
0.3896541595458984,0.5600028991699219
0.3896541595458984,0.5600028991699219
0.3824243545532227,0.5542991638183593
0.3824243545532227,0.5542991638183593
0.3883878707885742,0.5547088623046875
0.3883878707885742,0.5547088623046875
0.3833919525146484,0.5563093185424804
0.3833919525146484,0.5563093185424804
0.3837078094482422,0.5503000259399414
0.3837078094482422,0.5503000259399414
0.3874792098999023,0.5577953338623046
0.3874792098999023,0.5577953338623046
0.3808588027954101,0.5492477416992188
0.3808588027954101,0.5492477416992188
0.3866226196289063,0.5515897750854492
0.3866226196289063,0.5515897750854492
0.3826189041137695,0.5538007736206054
0.3826189041137695,0.5538007736206054
0.3823831558227539,0.5496545791625976
0.3823831558227539,0.5496545791625976
0.3866111755371094,0.5541137695312500
0.3866111755371094,0.5541137695312500
0.3800559997558594,0.5474985122680663
0.3800559997558594,0.5474985122680663
0.3866363525390625,0.5502960205078125
0.3866363525390625,0.5502960205078125
0.3821062088012695,0.5547506332397460
0.3821062088012695,0.5547506332397460
0.3820936203002930,0.5476690292358398
0.3820936203002930,0.5476690292358398
0.3863674163818359,0.5542602539062500
0.3863674163818359,0.5542602539062500
0.3807420730590820,0.5482137680053710
0.3807420730590820,0.5482137680053710
0.3867490768432617,0.5530712127685546
0.3867490768432617,0.5530712127685546
0.3827888488769531,0.5543695449829101
0.3827888488769531,0.5543695449829101
0.3826337814331054,0.5490365982055664
0.3826337814331054,0.5490365982055664
0.3878225326538086,0.5558160781860352
0.3878225326538086,0.5558160781860352
0.3812450408935547,0.5515085220336914
0.3877967834472656,0.5515085220336914
0.3874837875366211,0.5529167175292968
0.3874837875366211,0.5529167175292968
0.3833410263061524,0.5558149337768554
0.3833410263061524,0.5558149337768554
0.3836111068725586,0.5504219055175781
0.3836111068725586,0.5504219055175781
0.3881538391113281,0.5587366104125976
0.3881538391113281,0.5587366104125976
0.3818887710571289,0.5510856628417968
0.3818887710571289,0.5510856628417968
0.3879238128662109,0.5540571212768555
0.3879238128662109,0.5540571212768555
0.3846811294555664,0.5571939468383789
0.3846811294555664,0.5571939468383789
0.3839057922363281,0.5534357070922852
0.3839057922363281,0.5534357070922852
0.3888296127319336,0.5585741043090821
0.3851760864257812,0.5585741043090821
0.3822292327880859,0.5526271820068359
0.3822292327880859,0.5526271820068359
0.3889017105102539,0.5555551528930663
0.3889017105102539,0.5555551528930663
0.3852132797241211,0.5605693817138672
0.3852132797241211,0.5605693817138672
0.3845855712890625,0.5534414291381836
0.3845855712890625,0.5534414291381836
0.3896741867065430,0.5600772857666015
0.3896741867065430,0.5600772857666015
0.3837003707885742,0.5544273376464843
0.3837003707885742,0.5544273376464843
0.3894453048706055,0.5590072631835937
0.3894453048706055,0.5590072631835937
0.3861362457275391,0.5606214523315429
0.3861362457275391,0.5606214523315429
0.3850564956665039,0.5550184249877930
0.3850564956665039,0.5550184249877930
0.3909187316894531,0.5618265151977538
0.3909187316894531,0.5618265151977538
0.3843338012695313,0.5577461242675781
0.3843338012695313,0.5577461242675781
0.3901216506958008,0.5589918136596680
0.3901216506958008,0.5589918136596680
0.3870042800903320,0.5622848510742188
0.3870042800903320,0.5622848510742188
0.3864978790283203,0.5567962646484375
0.3864978790283203,0.5567962646484375
0.3914365768432617,0.5653020858764648
0.3914365768432617,0.5653020858764648
0.3851961135864257,0.5579452514648438
0.3851961135864257,0.5579452514648438
0.3906955718994141,0.5608800888061524
0.3906955718994141,0.5608800888061524
0.3884130477905273,0.5644266128540039
0.3884130477905273,0.5644266128540039
0.3871707916259766,0.5606037139892578
0.3871707916259766,0.5606037139892578
0.3925603866577148,0.5657501220703125
0.3925603866577148,0.5657501220703125
0.3861900329589844,0.5598993301391602
0.3861900329589844,0.5598993301391602
0.3918611526489258,0.5621297836303710
0.3918611526489258,0.5621297836303710
0.3884325027465820,0.5662897109985351
0.3884325027465820,0.5662897109985351
0.3867376327514648,0.5575017929077148
0.3867376327514648,0.5575017929077148
0.3910411834716797,0.5629257202148438
0.3910411834716797,0.5629257202148438
0.3845695495605468,0.5557645797729492
0.3845695495605468,0.5557645797729492
0.3891700744628906,0.5586782455444336
0.3891700744628906,0.5586782455444336
0.3858375549316406,0.5593683242797851
0.3858375549316406,0.5593683242797851
0.3841581344604492,0.5521453857421875
0.3841581344604492,0.5521453857421875
0.3893783569335937,0.5580041885375976
0.3893783569335937,0.5580041885375976
0.3823751449584961,0.5532342910766601
0.3823751449584961,0.5532342910766601
0.3871913909912109,0.5531587600708008
0.3871913909912109,0.5531587600708008
0.3842170715332031,0.5560667037963867
0.3842170715332031,0.5560667037963867
0.3832054138183594,0.5494846343994141
0.3832054138183594,0.5494846343994141
0.3880067825317383,0.5573719024658202
0.3880067825317383,0.5573719024658202
0.3813646316528320,0.5496774673461914
0.3813646316528320,0.5496774673461914
0.3864429473876953,0.5515748977661132
0.3864429473876953,0.5515748977661132
0.3843235015869140,0.5549097061157227
0.3843235015869140,0.5549097061157227
0.3825227737426758,0.5504327774047851
0.3825227737426758,0.5504327774047851
0.3878871917724609,0.5554000854492187
0.3878871917724609,0.5554000854492187
0.3812564849853515,0.5501237869262695
0.3881944656372070,0.5501237869262695
0.3871358871459961,0.5521677017211913
0.3871358871459961,0.5521677017211913
0.3845775604248047,0.5578062057495117
0.3845775604248047,0.5578062057495117
0.3832340240478516,0.5501049041748046
0.3832340240478516,0.5501049041748046
0.3885492324829101,0.5570766448974609
0.3885492324829101,0.5570766448974609
0.3827951431274414,0.5518724441528320
0.3827951431274414,0.5518724441528320
0.3877429962158203,0.5555517196655273
0.3877429962158203,0.5555517196655273
0.3855537414550781,0.5578548431396484
0.3855537414550781,0.5578548431396484
0.3837398529052734,0.5517562866210938
0.3837398529052734,0.5517562866210938
0.3897880554199218,0.5587394714355468
0.3897880554199218,0.5587394714355468
0.3832145690917969,0.5553182601928711
0.3832145690917969,0.5553182601928711
0.3883615493774414,0.5553411483764649
0.3883615493774414,0.5553411483764649
0.3862850189208984,0.5593883514404296
0.3862850189208984,0.5593883514404296
0.3851171493530273,0.5533573150634765
0.3851171493530273,0.5533573150634765
0.3902360916137695,0.5619987487792969
0.3902360916137695,0.5619987487792969
0.3840871810913086,0.5554893493652343
0.3840871810913086,0.5554893493652343
0.3887088775634766,0.5568254470825195
0.3887088775634766,0.5568254470825195
0.3875644683837891,0.5611959457397461
0.3875644683837891,0.5611959457397461
0.3856109619140625,0.5568517684936524
0.3856109619140625,0.5568517684936524
0.3911418914794922,0.5619604110717773
0.3911418914794922,0.5619604110717773
0.3848258972167969,0.5573301315307617
0.3848258972167969,0.5573301315307617
0.3903333663940430,0.5586021423339843
0.3903333663940430,0.5586021423339843
0.3881978988647461,0.5646726608276367
0.3881978988647461,0.5646726608276367
0.3863840103149414,0.5567945480346680
0.3863840103149414,0.5567945480346680
0.3916082382202148,0.5635408401489258
0.3916082382202148,0.5635408401489258
0.3859439849853515,0.5591526031494141
0.3859439849853515,0.5591526031494141
0.3907859802246094,0.5618385314941406
0.3907859802246094,0.5618385314941406
0.3889995574951172,0.5646348953247070
0.3889995574951172,0.5646348953247070
0.3871582031250000,0.5585506439208984
0.3871582031250000,0.5585506439208984
0.3930456161499024,0.5652906417846679
0.3930456161499024,0.5652906417846679
0.3864395141601563,0.5626985549926757
0.3864395141601563,0.5626985549926757
0.3916191101074218,0.5617361068725586
0.3916191101074218,0.5617361068725586
0.3895620346069336,0.5664230346679687
0.3895620346069336,0.5664230346679687
0.3882762908935547,0.5603914260864258
0.3882762908935547,0.5603914260864258
0.3936201095581054,0.5688720703125000
0.3936201095581054,0.5688720703125000
0.3872869491577148,0.5630115509033203
0.3872869491577148,0.5630115509033203
0.3925392150878906,0.5636610031127930
0.3925392150878906,0.5636610031127930
0.3911670684814453,0.5683107376098633
0.3911670684814453,0.5683107376098633
0.3887088775634766,0.5636495590209961
0.3887088775634766,0.5636495590209961
0.3940979003906250,0.5677299499511719
0.3940979003906250,0.5677299499511719
0.3868160247802734,0.5625343322753906
0.3868160247802734,0.5625343322753906
0.3920665740966797,0.5616874694824219
0.3920665740966797,0.5616874694824219
0.3894927978515625,0.5667932510375976
0.3894927978515625,0.5667932510375976
0.3868354797363281,0.5575160980224609
0.3868354797363281,0.5575160980224609
0.3918062210083008,0.5626791000366210
0.3918062210083008,0.5626791000366210
0.3849987030029297,0.5575990676879883
0.3849987030029297,0.5575990676879883
0.3894744873046875,0.5584373474121094
0.3894744873046875,0.5584373474121094
0.3872537612915039,0.5605791091918945
0.3872537612915039,0.5605791091918945
0.3845306396484375,0.5534803390502929
0.3845306396484375,0.5534803390502929
0.3904729843139648,0.5592401504516601
0.3904729843139648,0.5592401504516601
0.3833730697631836,0.5564689636230469
0.3833730697631836,0.5564689636230469
0.3884279251098633,0.5541240692138671
0.3884279251098633,0.5541240692138671
0.3864629745483398,0.5586009979248047
0.3864629745483398,0.5586009979248047
0.3843166351318359,0.5518844604492187
0.3835086822509766,0.5518844604492187
0.3896747589111328,0.5595268249511719
0.3896747589111328,0.5595268249511719
0.3827665328979492,0.5539031982421875
0.3827665328979492,0.5539031982421875
0.3877939224243164,0.5534946441650390
0.3877939224243164,0.5534946441650390
0.3867708206176758,0.5585306167602538
0.3867708206176758,0.5585306167602538
0.3842193603515625,0.5540142059326172
0.3842193603515625,0.5540142059326172
0.3900249481201172,0.5586164474487304
0.3900249481201172,0.5586164474487304
0.3833003997802734,0.5552804946899413
0.3833003997802734,0.5552804946899413
0.3891752243041992,0.5544359207153320
0.3891752243041992,0.5544359207153320
0.3838788986206055,0.5576591491699219
0.3849248886108398,0.5576591491699219
0.3833581924438477,0.5592184066772461
0.3833581924438477,0.5592184066772461
0.3869956970214843,0.5549898147583008
0.3869956970214843,0.5549898147583008
0.3899700164794922,0.5611873626708984
0.3899700164794922,0.5611873626708984
0.3845844268798828,0.5551345825195312
0.3845844268798828,0.5551345825195312
0.3895494461059570,0.5587972640991211
0.3895494461059570,0.5587972640991211
0.3850072860717773,0.5606025695800781
0.3850072860717773,0.5606025695800781
0.3877201080322266,0.5562446594238281
0.3877201080322266,0.5562446594238281
0.3905502319335937,0.5625789642333984
0.3905502319335937,0.5625789642333984
0.3841209411621094,0.5565221786499023
0.3841209411621094,0.5565221786499023
0.3911876678466797,0.5603467941284179
0.3911876678466797,0.5603467941284179
0.3857585906982422,0.5620885848999023
0.3857585906982422,0.5620885848999023
0.3882368087768555,0.5578371047973633
0.3882368087768555,0.5578371047973633
0.3902698516845703,0.5641468048095702
0.3890258789062500,0.5641468048095702
0.3857826232910156,0.5583040237426757
0.3857826232910156,0.5583040237426757
0.3922336578369141,0.5620983123779296
0.3922336578369141,0.5620983123779296
0.3866901397705078,0.5646045684814452
0.3866901397705078,0.5646045684814452
0.3881761550903320,0.5598243713378906
0.3881761550903320,0.5598243713378906
0.3923755645751953,0.5665517807006836
0.3923755645751953,0.5665517807006836
0.3867244720458984,0.5604961395263671
0.3867244720458984,0.5604961395263671
0.3930994033813476,0.5643350601196289
0.3930994033813476,0.5643350601196289
0.3865419387817383,0.5665094375610351
0.3865419387817383,0.5665094375610351
0.3900020599365234,0.5617761611938477
0.3900020599365234,0.5617761611938477
0.3934244155883789,0.5683525085449218
0.3934244155883789,0.5683525085449218
0.3874099731445312,0.5626098632812500
0.3874099731445312,0.5626098632812500
0.3929483413696289,0.5661832809448242
0.3929483413696289,0.5661832809448242
0.3883953094482422,0.5687456130981445
0.3883953094482422,0.5687456130981445
0.3908460617065430,0.5640495300292968
0.3908460617065430,0.5640495300292968
0.3942432403564453,0.5708393096923828
0.3942432403564453,0.5708393096923828
0.3873418807983398,0.5648488998413086
0.3928384780883789,0.5648488998413086
0.3948955535888672,0.5686100006103515
0.3884187698364258,0.5686100006103515
0.3896181106567383,0.5711145401000977
0.3896181106567383,0.5711145401000977
0.3916717529296875,0.5664493560791015
0.3916717529296875,0.5664493560791015
0.3939903259277344,0.5727939605712891
0.3939903259277344,0.5727939605712891
0.3887311935424805,0.5663944244384765
0.3887311935424805,0.5663944244384765
0.3949132919311523,0.5689956665039062
0.3949132919311523,0.5689956665039062
0.3890264511108398,0.5705497741699218
0.3890264511108398,0.5705497741699218
0.3894647598266601,0.5645473480224609
0.3894647598266601,0.5645473480224609
0.3934936523437500,0.5702402114868164
0.3934936523437500,0.5702402114868164
0.3870918273925781,0.5634504318237304
0.3870918273925781,0.5634504318237304
0.3930175781250000,0.5661792755126953
0.3860366821289062,0.5661792755126953
0.3864795684814453,0.5676424026489257
0.3864795684814453,0.5676424026489257
0.3887832641601562,0.5620359420776367
0.3887832641601562,0.5620359420776367
0.3921747207641602,0.5680932998657227
0.3921747207641602,0.5680932998657227
0.3858987808227539,0.5617567062377929
0.3858987808227539,0.5617567062377929
0.3912391662597656,0.5643842697143554
0.3912391662597656,0.5643842697143554
0.3867919921875000,0.5662376403808593
0.3867919921875000,0.5662376403808593
0.3882190704345703,0.5600978851318359
0.3882190704345703,0.5600978851318359
0.3916837692260742,0.5664104461669922
0.3916837692260742,0.5664104461669922
0.3843006134033203,0.5599044799804688
0.3843006134033203,0.5599044799804688
0.3917409896850586,0.5630373001098633
0.3917409896850586,0.5630373001098633
0.3866008758544922,0.5654262542724610
0.3866008758544922,0.5654262542724610
0.3880926132202148,0.5602489471435547
0.3880926132202148,0.5602489471435547
0.3910108566284179,0.5668046951293945
0.3910108566284179,0.5668046951293945
0.3857866287231445,0.5609155654907226
0.3857866287231445,0.5609155654907226
0.3926971435546875,0.5642967224121094
0.3926971435546875,0.5642967224121094
0.3876377105712890,0.5672973632812500
0.3876377105712890,0.5672973632812500
0.3880582809448242,0.5620885848999023
0.3880582809448242,0.5620885848999023
0.3926462173461914,0.5686254501342773
0.3926462173461914,0.5686254501342773
0.3868618011474609,0.5625205993652344
0.3868618011474609,0.5625205993652344
0.3934770584106445,0.5664110183715820
0.3934770584106445,0.5664110183715820
0.3872428894042969,0.5682821273803711
0.3872428894042969,0.5682821273803711
0.3899963378906250,0.5636186599731445
0.3899963378906250,0.5636186599731445
0.3935617446899414,0.5700799942016601
0.3935617446899414,0.5700799942016601
0.3874895095825195,0.5639808654785156
0.3874895095825195,0.5639808654785156
0.3930942535400391,0.5676589965820312
0.3930942535400391,0.5676589965820312
0.3888290405273437,0.5697257995605468
0.3888290405273437,0.5697257995605468
0.3904684066772461,0.5648408889770508
0.3904684066772461,0.5648408889770508
0.3940458297729492,0.5715070724487304
0.3940458297729492,0.5715070724487304
0.3869733810424805,0.5648769378662110
0.3869733810424805,0.5648769378662110
0.3947748184204101,0.5688995361328125
0.3947748184204101,0.5688995361328125
0.3896564483642578,0.5708662033081054
0.3896564483642578,0.5708662033081054
0.3909805297851562,0.5661420822143555
0.3909805297851562,0.5661420822143555
0.3938295364379883,0.5727167129516602
0.3938295364379883,0.5727167129516602
0.3886264801025390,0.5660757064819336
0.3886264801025390,0.5660757064819336
0.3955129623413086,0.5701189041137695
0.3955129623413086,0.5701189041137695
0.3903900146484375,0.5723224639892578
0.3903900146484375,0.5723224639892578
0.3906177520751953,0.5672166824340820
0.3906177520751953,0.5672166824340820
0.3954803466796875,0.5739658355712890
0.3954803466796875,0.5739658355712890
0.3895414352416992,0.5672527313232422
0.3895414352416992,0.5672527313232422
0.3961538314819336,0.5712839126586914
0.3961538314819336,0.5712839126586914
0.3900867462158203,0.5731676101684570
0.3900867462158203,0.5731676101684570
0.3919939041137695,0.5681018829345703
0.3919939041137695,0.5681018829345703
0.3960851669311523,0.5747789382934571
0.3960851669311523,0.5747789382934571
0.3899780273437500,0.5685384750366210
0.3899780273437500,0.5685384750366210
0.3956291198730469,0.5722675323486328
0.3956291198730469,0.5722675323486328
0.3917816162109375,0.5746547698974609
0.3917816162109375,0.5746547698974609
0.3927543640136719,0.5700571060180664
0.3927543640136719,0.5700571060180664
0.3967237472534180,0.5773418426513671
0.3967237472534180,0.5773418426513671
0.3893583297729492,0.5707489013671875
0.3893583297729492,0.5707489013671875
0.3968358993530273,0.5748006820678710
0.3968358993530273,0.5748006820678710
0.3918560028076172,0.5770437240600585
0.3918560028076172,0.5770437240600585
0.3922605514526367,0.5718595504760742
0.3922605514526367,0.5718595504760742
0.3952531814575195,0.5782539367675781
0.3920803070068359,0.5782539367675781
0.3896072387695312,0.5709114074707031
0.3896072387695312,0.5709114074707031
0.3957195281982422,0.5740304946899414
0.3957195281982422,0.5740304946899414
0.3903602600097656,0.5752956390380859
0.3903602600097656,0.5752956390380859
0.3893720626831055,0.5691215515136718
0.3893720626831055,0.5691215515136718
0.3940858840942383,0.5751937866210938
0.3940858840942383,0.5751937866210938
0.3875799179077148,0.5680160522460938
0.3875799179077148,0.5680160522460938
0.3936183929443359,0.5714475631713867
0.3862358093261719,0.5714475631713867
0.3878877639770508,0.5731412887573242
0.3878877639770508,0.5731412887573242
0.3888845443725586,0.5679101943969727
0.3888845443725586,0.5679101943969727
0.3932052612304687,0.5746215820312500
0.3932052612304687,0.5746215820312500
0.3867187500000000,0.5678432464599609
0.3867187500000000,0.5678432464599609
0.3920980453491211,0.5713171005249024
0.3920980453491211,0.5713171005249024
0.3883094787597656,0.5732975006103516
0.3883094787597656,0.5732975006103516
0.3882390975952149,0.5676464080810547
0.3882390975952149,0.5676464080810547
0.3926942825317383,0.5742370605468750
0.3926942825317383,0.5742370605468750
0.3856155395507813,0.5676355361938477
0.3856155395507813,0.5676355361938477
0.3928527832031250,0.5716421127319335
0.3928527832031250,0.5716421127319335
0.3891368865966797,0.5744310379028320
0.3891368865966797,0.5744310379028320
0.3893548965454102,0.5697658538818359
0.3893548965454102,0.5697658538818359
0.3935245513916015,0.5770059585571289
0.3935245513916015,0.5770059585571289
0.3884794235229492,0.5709194183349610
0.3884794235229492,0.5709194183349610
0.3949378967285156,0.5748567581176758
0.3949378967285156,0.5748567581176758
0.3912614822387695,0.5775152206420898
0.3912614822387695,0.5775152206420898
0.3904237747192383,0.5721096038818360
0.3904237747192383,0.5721096038818360
0.3960519790649414,0.5786682128906250
0.3960519790649414,0.5786682128906250
0.3902057647705078,0.5722549438476562
0.3902057647705078,0.5722549438476562
0.3959278106689453,0.5757934570312500
0.3959278106689453,0.5757934570312500
0.3914382934570312,0.5780061721801758
0.3914382934570312,0.5780061721801758
0.3920030593872070,0.5723728179931641
0.3920030593872070,0.5723728179931641
0.3966579437255859,0.5788055419921875
0.3966579437255859,0.5788055419921875
0.3905788421630859,0.5725582122802734
0.3905788421630859,0.5725582122802734
0.3954008102416992,0.5756887435913086
0.3954008102416992,0.5756887435913086
0.3929128646850586,0.5780851364135742
0.3929128646850586,0.5780851364135742
0.3925666809082031,0.5725753784179687
0.3925666809082031,0.5725753784179687
0.3972232818603516,0.5793313980102539
0.3972232818603516,0.5793313980102539
0.3902738571166992,0.5728351593017578
0.3970247268676758,0.5728351593017578
0.3971305847167969,0.5764846801757812
0.3971305847167969,0.5764846801757812
0.3937608718872070,0.5791208267211914
0.3991086959838867,0.5791208267211914
0.3936264038085938,0.5736791610717773
0.3914405822753906,0.5736791610717773
0.3975551605224609,0.5804626464843750
0.3975551605224609,0.5804626464843750
0.3921867370605469,0.5740396499633789
0.3921867370605469,0.5740396499633789
0.3982492446899414,0.5772708892822266
0.3982492446899414,0.5772708892822266
0.3948194503784180,0.5798606872558594
0.3948194503784180,0.5798606872558594
0.3932928085327148,0.5740327835083008
0.3932928085327148,0.5740327835083008
0.3989261627197265,0.5807847976684570
0.3989261627197265,0.5807847976684570
0.3929872512817383,0.5745128631591797
0.3929872512817383,0.5745128631591797
0.3984958648681641,0.5777875900268554
0.3984958648681641,0.5777875900268554
0.3945121765136719,0.5804151535034180
0.3945121765136719,0.5804151535034180
0.3948183059692383,0.5747554779052734
0.3948183059692383,0.5747554779052734
0.3996528625488281,0.5815578460693359
0.3958213806152344,0.5815578460693359
0.3936035156250000,0.5756206512451172
0.3936035156250000,0.5756206512451172
0.3980621337890625,0.5785240173339844
0.3980621337890625,0.5785240173339844
0.3960233688354492,0.5814674377441406
0.3960233688354492,0.5814674377441406
0.3954311370849609,0.5756515502929688
0.3954311370849609,0.5756515502929688
0.4002130508422851,0.5825563430786133
0.4002130508422851,0.5825563430786133
0.3932350158691406,0.5762557983398438
0.3989490509033203,0.5826473236083984
0.3961252212524414,0.5746467590332031
0.3961252212524414,0.5827777862548827
0.3999864578247070,0.5811492919921875
0.3999864578247070,0.5811492919921875
0.3926673889160156,0.5768766403198242
0.3926673889160156,0.5768766403198242
0.3957138061523438,0.5729267120361328
0.3909822463989258,0.5729267120361328
0.3969652175903320,0.5775981903076172
0.3969652175903320,0.5775981903076172
0.3915224075317383,0.5705537796020508
0.3915224075317383,0.5705537796020508
0.3973943710327149,0.5736356735229492
0.3973943710327149,0.5736356735229492
0.3900907516479492,0.5712192535400390
0.3900907516479492,0.5712192535400390
0.3938735961914062,0.5676235198974610
0.3938735961914062,0.5676235198974610
0.3946443557739258,0.5741849899291992
0.3946443557739258,0.5741849899291992
0.3895797729492188,0.5644329071044921
0.3895797729492188,0.5644329071044921
0.3952640533447265,0.5694786071777344
0.3952640533447265,0.5694786071777344
0.3889280319213867,0.5677459716796874
0.3889280319213867,0.5677459716796874
0.3922731399536133,0.5659578323364257
0.3922731399536133,0.5659578323364257
0.3934467315673828,0.5696153640747070
0.3934467315673828,0.5696153640747070
0.3885309219360352,0.5618024826049804
0.3885309219360352,0.5618024826049804
0.3949865341186523,0.5671915054321289
0.3949865341186523,0.5671915054321289
0.3880708694458008,0.5677030563354492
0.3880708694458008,0.5677030563354492
0.3918256759643555,0.5631820678710937
0.3918256759643555,0.5631820678710937
0.3929849624633789,0.5690877914428710
0.3929849624633789,0.5690877914428710
0.3887769699096680,0.5618602752685546
0.3887769699096680,0.5618602752685546
0.3949573516845703,0.5691947937011719
0.3949573516845703,0.5691947937011719
0.3884359359741211,0.5668544769287109
0.3884359359741211,0.5668544769287109
0.3921701431274414,0.5639316558837890
0.3921701431274414,0.5639316558837890
0.3940956115722656,0.5699558258056641
0.3940956115722656,0.5699558258056641
0.3890356063842773,0.5642904281616211
0.3890356063842773,0.5642904281616211
0.3953664779663086,0.5682420730590820
0.3953664779663086,0.5682420730590820
0.3885932922363281,0.5676956176757812
0.3885932922363281,0.5676956176757812
0.3929231643676758,0.5645765304565430
0.3929231643676758,0.5645765304565430
0.3943199157714843,0.5721548080444335
0.3943199157714843,0.5721548080444335
0.3895523071289063,0.5633319854736328
