REDsignal,IRsignal
0.5255653381347656,0.6293151855468749
0.5260213851928711,0.6371480941772460
0.5260213851928711,0.6371480941772460
0.5211593627929687,0.6255678176879883
0.5211593627929687,0.6255678176879883
0.5296314239501952,0.6353439331054688
0.5296314239501952,0.6353439331054688
0.5183635711669922,0.6323335647583007
0.5183635711669922,0.6323335647583007
0.5256849288940429,0.6294324874877929
0.5256849288940429,0.6294324874877929
0.5258314132690429,0.6360694885253906
0.5258314132690429,0.6360694885253906
0.5209058761596680,0.6253681182861328
0.5209058761596680,0.6253681182861328
0.5288629531860352,0.6340856552124023
0.5288629531860352,0.6340856552124023
0.5186485290527344,0.6319313049316406
0.5186485290527344,0.6319313049316406
0.5252826690673827,0.6289787292480469
0.5195594787597656,0.6281742095947266
0.5195594787597656,0.6281742095947266
0.5281196594238281,0.6321012496948242
0.5281196594238281,0.6321012496948242
0.5226837158203125,0.6358377456665039
0.5226837158203125,0.6358377456665039
0.5235162734985351,0.6296630859375000
0.5235162734985351,0.6296630859375000
0.5288967132568360,0.6385591506958007
0.5288967132568360,0.6385591506958007
0.5206426620483399,0.6311491012573242
0.5206426620483399,0.6311491012573242
0.5295164108276367,0.6352014541625977
0.5295164108276367,0.6352014541625977
0.5242853164672852,0.6393590927124023
0.5242853164672852,0.6393590927124023
0.5252294540405273,0.6335821151733398
0.5252294540405273,0.6335821151733398
0.5306791305541992,0.6428844451904296
0.5306791305541992,0.6428844451904296
0.5226064682006836,0.6353622436523437
0.5226064682006836,0.6353622436523437
0.5314258575439453,0.6397035598754882
0.5314258575439453,0.6397035598754882
0.5261959075927735,0.6440065383911132
0.5261959075927735,0.6440065383911132
0.5272293090820312,0.6385110855102539
0.5272293090820312,0.6385110855102539
0.5326869964599609,0.6474597930908202
0.5295627593994140,0.6474597930908202
0.5246446609497070,0.6401052474975586
0.5246446609497070,0.6401052474975586
0.5333267211914062,0.6441421508789062
0.5333267211914062,0.6441421508789062
0.5281425476074219,0.6485326766967773
0.5281425476074219,0.6485326766967773
0.5289316177368164,0.6423849105834961
0.5289316177368164,0.6423849105834961
0.5344310760498047,0.6513433456420898
0.5344310760498047,0.6513433456420898
0.5261587142944336,0.6438182830810547
0.5261587142944336,0.6438182830810547
0.5348505020141602,0.6480932235717773
0.5348505020141602,0.6480932235717773
0.5296960830688476,0.6520460128784179
0.5296960830688476,0.6520460128784179
0.5305389404296875,0.6459875106811523
0.5305389404296875,0.6459875106811523
0.5359582901000977,0.6549900054931640
0.5359582901000977,0.6549900054931640
0.5278072357177734,0.6476818084716797
0.5278072357177734,0.6476818084716797
0.5365236282348632,0.6515750885009766
0.5365236282348632,0.6515750885009766
0.5314041137695312,0.6559312820434570
0.5314041137695312,0.6559312820434570
0.5320318222045898,0.6495683670043945
0.5320318222045898,0.6495683670043945
0.5371479034423828,0.6570270538330077
0.5371479034423828,0.6570270538330077
0.5272361755371093,0.6453660964965821
0.5272361755371093,0.6453660964965821
0.5332786560058593,0.6422824859619141
0.5332786560058593,0.6422824859619141
0.5244815826416015,0.6386507034301757
0.5244815826416015,0.6386507034301757
0.5219982147216796,0.6257160186767577
0.5219982147216796,0.6257160186767577
0.5248615264892578,0.6286153793334961
0.5248615264892578,0.6286153793334961
0.5143959045410156,0.6167140960693359
0.5143959045410156,0.6167140960693359
0.5216365814208984,0.6171380996704101
0.5137498855590820,0.6171380996704101
0.5153051376342773,0.6193794250488281
0.5153051376342773,0.6193794250488281
0.5154367446899414,0.6115419387817382
0.5154367446899414,0.6115419387817382
0.5204927444458007,0.6194784164428710
0.5204927444458007,0.6194784164428710
0.5117963790893555,0.6113771438598633
0.5117963790893555,0.6113771438598633
0.5206895828247070,0.6152498245239257
0.5206895828247070,0.6152498245239257
0.5151271820068359,0.6189720153808593
0.5151271820068359,0.6189720153808593
0.5162384033203125,0.6123052597045898
0.5162384033203125,0.6123052597045898
0.5223152160644531,0.6230255126953125
0.5223152160644531,0.6230255126953125
0.5124687194824219,0.6142444610595703
0.5124687194824219,0.6142444610595703
0.5233789443969726,0.6191574096679687
0.5233789443969726,0.6191574096679687
0.5169982910156250,0.6244674682617187
0.5254720687866211,0.6244674682617187
0.5182342529296875,0.6174568176269531
0.5132486343383789,0.6174568176269531
0.5251682281494140,0.6292905807495117
0.5251682281494140,0.6292905807495117
0.5151878356933594,0.6206977844238281
0.5151878356933594,0.6206977844238281
0.5263910293579102,0.6260507583618163
0.5263910293579102,0.6260507583618163
0.5200595855712891,0.6314775466918945
0.5200595855712891,0.6314775466918945
0.5210437774658203,0.6242162704467773
0.5210437774658203,0.6242162704467773
0.5279582977294922,0.6348804473876953
0.5279582977294922,0.6348804473876953
0.5173055648803710,0.6253715515136719
0.5173055648803710,0.6253715515136719
0.5280464172363281,0.6293003082275390
0.5280464172363281,0.6293003082275390
0.5211164474487304,0.6335987091064453
0.5211164474487304,0.6335987091064453
0.5215238571166992,0.6246362686157226
0.5215238571166992,0.6246362686157226
0.5279382705688477,0.6346704483032226
0.5279382705688477,0.6346704483032226
0.5169141769409179,0.6245149612426758
0.5169141769409179,0.6245149612426758
0.5276470184326172,0.6284482955932617
0.5276470184326172,0.6284482955932617
0.5206689834594727,0.6325389862060546
0.5206689834594727,0.6325389862060546
0.5210935592651367,0.6241109848022460
0.5210935592651367,0.6241109848022460
0.5278232574462890,0.6347774505615235
0.5278232574462890,0.6347774505615235
0.5171173095703124,0.6254093170166015
0.5171173095703124,0.6254093170166015
0.5279857635498046,0.6295372009277344
0.5279857635498046,0.6295372009277344
0.5215541839599609,0.6345479965209960
0.5215541839599609,0.6345479965209960
0.5220840454101562,0.6265846252441406
0.5220840454101562,0.6265846252441406
0.5289487838745117,0.6379892349243164
0.5289487838745117,0.6379892349243164
0.5184825897216797,0.6288459777832031
0.5184825897216797,0.6288459777832031
0.5296239852905273,0.6335248947143555
0.5296239852905273,0.6335248947143555
0.5232261657714844,0.6389488220214844
0.5315483093261718,0.6389488220214844
0.5240186691284180,0.6314975738525390
0.5240186691284180,0.6314975738525390
0.5310407638549804,0.6426074981689452
0.5310407638549804,0.6426074981689452
0.5207136154174804,0.6337097167968749
0.5207136154174804,0.6337097167968749
0.5317949295043946,0.6383977890014648
0.5317949295043946,0.6383977890014648
0.5254148483276367,0.6441730499267578
0.5254148483276367,0.6441730499267578
0.5261335372924805,0.6362182617187500
0.5261335372924805,0.6362182617187500
0.5333026885986328,0.6474374771118164
0.5333026885986328,0.6474374771118164
0.5227912902832031,0.6386203765869141
0.5227912902832031,0.6386203765869141
0.5337936401367187,0.6431676864624023
0.5337936401367187,0.6431676864624023
0.5272779464721680,0.6482271194458008
0.5272779464721680,0.6482271194458008
0.5280973434448242,0.6403175354003906
0.5280973434448242,0.6403175354003906
0.5348791122436524,0.6511293411254883
0.5348791122436524,0.6511293411254883
0.5243247985839844,0.6422132492065430
0.5341180801391602,0.6422132492065430
0.5351823806762696,0.6462673187255860
0.5351823806762696,0.6462673187255860
0.5287107467651367,0.6512397766113281
0.5287107467651367,0.6512397766113281
0.5293167114257812,0.6433067321777344
0.5293167114257812,0.6433067321777344
0.5360818862915039,0.6542718887329101
0.5360818862915039,0.6542718887329101
0.5253971099853515,0.6448865890502929
0.5253971099853515,0.6448865890502929
0.5364881515502929,0.6492639541625976
0.5364881515502929,0.6492639541625976
0.5298923492431641,0.6541088104248046
0.5298923492431641,0.6541088104248046
0.5304708480834961,0.6464921951293945
0.5304708480834961,0.6464921951293945
0.5373006820678711,0.6568857192993164
0.5373006820678711,0.6568857192993164
0.5262525558471679,0.6462856292724609
0.5262525558471679,0.6462856292724609
0.5358501434326172,0.6468120574951172
0.5253696441650391,0.6468120574951172
0.5267440795898437,0.6454319000244141
0.5267440795898437,0.6454319000244141
0.5238378524780273,0.6294536590576172
0.5238378524780273,0.6294536590576172
0.5275217056274414,0.6331260681152343
0.5275217056274414,0.6331260681152343
0.5141527175903320,0.6183082580566406
0.5141527175903320,0.6183082580566406
0.5229372024536133,0.6182001113891601
0.5229372024536133,0.6182001113891601
0.5150293350219727,0.6196672439575195
0.5150293350219727,0.6196672439575195
0.5145406723022461,0.6094608306884766
0.5145406723022461,0.6094608306884766
0.5206918716430664,0.6189182281494140
0.5206918716430664,0.6189182281494140
0.5097278594970703,0.6092445373535156
0.5097278594970703,0.6092445373535156
0.5204887390136719,0.6127578735351562
0.5204887390136719,0.6127578735351562
0.5140663146972656,0.6177320480346680
0.5140663146972656,0.6177320480346680
0.5145927429199219,0.6097578048706055
0.5096443176269531,0.6097578048706055
0.5216176986694335,0.6210136413574219
0.5216176986694335,0.6210136413574219
0.5111097335815430,0.6122646331787109
0.5111097335815430,0.6122646331787109
0.5223730087280273,0.6168239593505859
0.5223730087280273,0.6168239593505859
0.5163322448730469,0.6227622985839844
0.5163322448730469,0.6227622985839844
0.5170801162719726,0.6157396316528320
0.5170801162719726,0.6157396316528320
0.5244638442993164,0.6271568298339844
0.5244638442993164,0.6271568298339844
0.5140972137451172,0.6193016052246093
0.5140972137451172,0.6193016052246093
0.5254211425781250,0.6240394592285156
0.5254211425781250,0.6240394592285156
0.5195234298706054,0.6302370071411133
0.5195234298706054,0.6302370071411133
0.5201585769653320,0.6225357055664062
0.5201585769653320,0.6225357055664062
0.5273025512695312,0.6334178924560546
0.5273025512695312,0.6334178924560546
0.5164735794067382,0.6245298385620117
0.5164735794067382,0.6245298385620117
0.5273609161376953,0.6281776428222656
0.5273609161376953,0.6281776428222656
0.5207279205322265,0.6326505661010742
0.5207279205322265,0.6326505661010742
0.5208229064941406,0.6237241744995117
0.5208229064941406,0.6237241744995117
0.5274639129638672,0.6334573745727539
0.5274639129638672,0.6334573745727539
0.5162384033203125,0.6239622116088867
0.5162384033203125,0.6239622116088867
0.5269060134887695,0.6268375396728515
0.5269060134887695,0.6268375396728515
0.5201511383056641,0.6312400817871093
0.5201511383056641,0.6312400817871093
0.5202449798583985,0.6227313995361328
0.5202449798583985,0.6227313995361328
0.5270965576171874,0.6331729888916016
0.5270965576171874,0.6331729888916016
0.5160243988037109,0.6238254547119141
0.5160243988037109,0.6238254547119141
0.5271240234375000,0.6274291992187500
0.5271240234375000,0.6274291992187500
0.5206626892089844,0.6324205398559570
0.5206626892089844,0.6324205398559570
0.5210660934448242,0.6247003555297851
0.5210660934448242,0.6247003555297851
0.5281230926513671,0.6352947235107421
0.5281230926513671,0.6352947235107421
0.5173072814941406,0.6267219543457031
0.5173072814941406,0.6267219543457031
0.5285030364990234,0.6309356689453125
0.5285030364990234,0.6309356689453125
0.5222196578979492,0.6365718841552734
0.5222196578979492,0.6365718841552734
0.5227209091186523,0.6288190841674804
0.5301240921020508,0.6398471832275391
0.5301240921020508,0.6398471832275391
0.5192510604858398,0.6315902709960938
0.5192510604858398,0.6315902709960938
0.5305160522460938,0.6361146926879883
0.5305160522460938,0.6361146926879883
0.5245559692382812,0.6416879653930664
0.5245559692382812,0.6416879653930664
0.5250898361206054,0.6339660644531250
0.5250898361206054,0.6339660644531250
0.5323637008666992,0.6451234817504883
0.5323637008666992,0.6451234817504883
0.5216451644897461,0.6370868682861328
0.5216451644897461,0.6370868682861328
0.5325977325439453,0.6410202026367188
0.5325977325439453,0.6410202026367188
0.5266719818115234,0.6464607238769531
0.5266719818115234,0.6464607238769531
0.5270261764526367,0.6385522842407226
0.5270261764526367,0.6385522842407226
0.5342267990112305,0.6493331909179687
0.5342267990112305,0.6493331909179687
0.5231626510620117,0.6407009124755859
0.5231626510620117,0.6407009124755859
0.5342782974243164,0.6442977905273437
0.5342782974243164,0.6442977905273437
0.5280910491943359,0.6495775222778321
0.5280910491943359,0.6495775222778321
0.5282323837280273,0.6416736602783203
0.5282323837280273,0.6416736602783203
0.5355028152465821,0.6520071029663086
0.5355028152465821,0.6520071029663086
0.5244426727294922,0.6434234619140625
0.5244426727294922,0.6434234619140625
0.5354284286499024,0.6470226287841797
0.5354284286499024,0.6470226287841797
0.5292354583740234,0.6526348114013671
0.5292354583740234,0.6526348114013671
0.5295793533325195,0.6443206787109375
0.5295793533325195,0.6443206787109375
0.5367044448852539,0.6547863006591796
0.5367044448852539,0.6547863006591796
0.5256563186645508,0.6463949203491210
0.5256563186645508,0.6463949203491210
0.5363691329956054,0.6489274978637695
0.5363691329956054,0.6489274978637695
0.5289979934692383,0.6506383895874023
0.5289979934692383,0.6506383895874023
0.5268894195556640,0.6362823486328125
0.5268894195556640,0.6362823486328125
0.5304588317871094,0.6389036178588867
0.5304588317871094,0.6389036178588867
0.5161834716796875,0.6235805511474609
0.5161834716796875,0.6235805511474609
0.5243373870849609,0.6208665847778320
0.5243373870849609,0.6208665847778320
0.5161720275878906,0.6215114593505859
0.5161720275878906,0.6215114593505859
0.5146751403808594,0.6098293304443360
0.5146751403808594,0.6098293304443360
0.5207382202148437,0.6180433273315430
0.5207382202148437,0.6180433273315430
0.5089090347290038,0.6078128814697266
0.5089090347290038,0.6078128814697266
0.5195451736450195,0.6103998184204101
0.5195451736450195,0.6103998184204101
0.5131210327148438,0.6150272369384765
0.5131210327148438,0.6150272369384765
0.5132286071777343,0.6069076538085937
0.5132286071777343,0.6069076538085937
0.5203479766845703,0.6170986175537109
0.5203479766845703,0.6170986175537109
0.5095235824584960,0.6087890625000000
0.5095235824584960,0.6087890625000000
0.5205036163330078,0.6131515502929688
0.5205036163330078,0.6131515502929688
0.5144502639770507,0.6181177139282227
0.5144502639770507,0.6181177139282227
0.5155214309692383,0.6116798400878906
0.5155214309692383,0.6116798400878906
0.5218231201171875,0.6214536666870117
0.5218231201171875,0.6214536666870117
0.5126255035400390,0.6148927688598632
0.5126255035400390,0.6148927688598632
0.5226819992065429,0.6193199157714844
0.5226819992065429,0.6193199157714844
0.5177381515502929,0.6244812011718750
0.5177381515502929,0.6244812011718750
0.5186262130737305,0.6187671661376953
0.5146883010864257,0.6187671661376953
0.5248666763305664,0.6280157089233398
0.5248666763305664,0.6280157089233398
0.5156576156616210,0.6216442108154296
0.5156576156616210,0.6216442108154296
0.5251276016235351,0.6246940612792968
0.5251276016235351,0.6246940612792968
0.5199234008789062,0.6290222167968750
0.5199234008789062,0.6290222167968750
0.5200126647949218,0.6218496322631836
0.5160432815551758,0.6218496322631836
0.5258508682250976,0.6301666259765625
0.5258508682250976,0.6301666259765625
0.5162378311157226,0.6222072601318359
0.5162378311157226,0.6222072601318359
0.5250738143920898,0.6244628906249999
0.5250738143920898,0.6244628906249999
0.5197156906127930,0.6281639099121094
0.5197156906127930,0.6281639099121094
0.5197196960449219,0.6209924697875976
0.5197196960449219,0.6209924697875976
0.5254177093505860,0.6289369583129882
0.5254177093505860,0.6289369583129882
0.5157892227172851,0.6215801239013672
0.5157892227172851,0.6215801239013672
0.5249639511108398,0.6242740631103515
0.5249639511108398,0.6242740631103515
0.5198421478271484,0.6287658691406249
0.5263315200805664,0.6270503997802734
0.5201471328735351,0.6218605041503906
0.5161582946777343,0.6218605041503906
0.5260580062866210,0.6304870605468750
0.5260580062866210,0.6304870605468750
0.5166057586669922,0.6238506317138671
0.5166057586669922,0.6238506317138671
0.5262182235717773,0.6273834228515625
0.5262182235717773,0.6273834228515625
0.5213401794433593,0.6320852279663086
0.5213401794433593,0.6320852279663086
0.5218751907348632,0.6259643554687500
0.5218751907348632,0.6259643554687500
0.5279977798461913,0.6349308013916015
0.5279977798461913,0.6349308013916015
0.5187618255615234,0.6290130615234375
0.5187618255615234,0.6290130615234375
0.5284767150878906,0.6323684692382813
0.5284767150878906,0.6323684692382813
0.5236112594604492,0.6374164581298828
0.5236112594604492,0.6374164581298828
0.5241079330444336,0.6313007354736327
0.5241079330444336,0.6313007354736327
0.5303707122802734,0.6403861999511719
0.5303707122802734,0.6403861999511719
0.5209653854370117,0.6339637756347656
0.5209653854370117,0.6339637756347656
0.5305549621582031,0.6373146057128906
0.5305549621582031,0.6373146057128906
0.5256866455078125,0.6421457290649414
0.5256866455078125,0.6421457290649414
0.5261529922485352,0.6361055374145508
0.5261529922485352,0.6361055374145508
0.5321067810058594,0.6444431304931640
0.5321067810058594,0.6444431304931640
0.5228107452392577,0.6380172729492187
0.5228107452392577,0.6380172729492187
0.5320180892944336,0.6408187866210937
0.5320180892944336,0.6408187866210937
0.5273099899291992,0.6456493377685547
0.5273099899291992,0.6456493377685547
0.5273368835449218,0.6390272140502929
0.5273368835449218,0.6390272140502929
0.5334817886352539,0.6472606658935547
0.5334817886352539,0.6472606658935547
0.5241485595703125,0.6411998748779296
0.5241485595703125,0.6411998748779296
0.5330183029174804,0.6438858032226562
0.5330183029174804,0.6438858032226562
0.5288503646850585,0.6487060546875000
0.5288503646850585,0.6487060546875000
0.5286998748779297,0.6422275543212891
0.5286998748779297,0.6422275543212891
0.5349111557006836,0.6504083633422851
0.5349111557006836,0.6504083633422851
0.5255281448364257,0.6446674346923827
0.5255281448364257,0.6446674346923827
0.5345415115356446,0.6470174789428711
0.5345415115356446,0.6470174789428711
0.5301544189453125,0.6514520645141602
0.5301544189453125,0.6514520645141602
0.5291158676147460,0.6425428390502930
0.5291158676147460,0.6425428390502930
0.5335710525512695,0.6461986541748047
0.5335710525512695,0.6461986541748047
0.5210083007812499,0.6322523117065429
0.5210083007812499,0.6322523117065429
0.5264511108398438,0.6268049240112304
0.5264511108398438,0.6268049240112304
0.5187326431274414,0.6246814727783203
0.5187326431274414,0.6246814727783203
0.5161674499511718,0.6126514434814453
0.5161674499511718,0.6126514434814453
0.5201837539672851,0.6166282653808594
0.5201837539672851,0.6166282653808594
0.5092889785766601,0.6072847366333007
0.5092889785766601,0.6072847366333007
0.5173559188842773,0.6076990127563476
0.5173559188842773,0.6076990127563476
0.5123479843139648,0.6113800048828125
0.5123479843139648,0.6113800048828125
0.5118021011352539,0.6037382125854492
0.5118021011352539,0.6037382125854492
0.5178050994873047,0.6115236282348633
0.5178050994873047,0.6115236282348633
0.5082092285156250,0.6050279617309570
0.5082092285156250,0.6050279617309570
0.5173204421997070,0.6077671051025391
0.5101575851440430,0.6077671051025391
0.5129241943359375,0.6124179840087890
0.5129241943359375,0.6124179840087890
0.5129367828369140,0.6060441970825196
0.5129367828369140,0.6060441970825196
0.5192230224609374,0.6147748947143554
0.5192230224609374,0.6147748947143554
0.5098428726196289,0.6091850280761718
0.5098428726196289,0.6091850280761718
0.5195503234863281,0.6123424530029297
0.5195503234863281,0.6123424530029297
0.5152633666992187,0.6178562164306640
0.5152633666992187,0.6178562164306640
0.5155986785888672,0.6119745254516601
0.5155986785888672,0.6119745254516601
0.5221801757812500,0.6214920043945312
0.5221801757812500,0.6214920043945312
0.5127153396606445,0.6156229019165039
0.5127153396606445,0.6156229019165039
0.5225423812866211,0.6189765930175781
0.5225423812866211,0.6189765930175781
0.5179790496826172,0.6240612030029297
0.5179790496826172,0.6240612030029297
0.5180248260498047,0.6174654006958008
0.5180248260498047,0.6174654006958008
0.5244352340698242,0.6258001327514648
0.5244352340698242,0.6258001327514648
0.5142316818237305,0.6186504364013672
0.5142316818237305,0.6186504364013672
0.5237051010131836,0.6210805892944335
0.5237051010131836,0.6210805892944335
0.5186445236206054,0.6253761291503906
0.5186445236206054,0.6253761291503906
0.5182874679565429,0.6175180435180664
0.5182874679565429,0.6175180435180664
0.5245302200317382,0.6258298873901367
0.5245302200317382,0.6258298873901367
0.5140737533569336,0.6183917999267577
0.5235174179077148,0.6183917999267577
0.5236999511718750,0.6211830139160156
0.5236999511718750,0.6211830139160156
0.5185546875000000,0.6255500793457031
0.5185546875000000,0.6255500793457031
0.5186119079589844,0.6181612014770508
0.5186119079589844,0.6181612014770508
0.5251190185546875,0.6271677017211914
0.5251190185546875,0.6271677017211914
0.5148027420043945,0.6205484390258789
0.5148027420043945,0.6205484390258789
0.5247968673706055,0.6236160278320312
0.5247968673706055,0.6236160278320312
0.5198392868041992,0.6289100646972656
0.5198392868041992,0.6289100646972656
0.5201425552368164,0.6220138549804687
0.5201425552368164,0.6220138549804687
0.5269414901733398,0.6318786621093749
0.5269414901733398,0.6318786621093749
0.5165428161621094,0.6251615524291992
0.5165428161621094,0.6251615524291992
0.5271183013916015,0.6288105010986328
0.5271183013916015,0.6288105010986328
0.5222579956054687,0.6345033645629883
0.5222579956054687,0.6345033645629883
0.5224531173706054,0.6277124404907226
0.5224531173706054,0.6277124404907226
0.5294345855712891,0.6374948501586913
0.5294345855712891,0.6374948501586913
0.5189632415771485,0.6308338165283203
0.5189632415771485,0.6308338165283203
0.5294643402099609,0.6342847824096679
0.5294643402099609,0.6342847824096679
0.5245193481445313,0.6401281356811523
0.5245193481445313,0.6401281356811523
0.5247247695922851,0.6326213836669922
0.5247247695922851,0.6326213836669922
0.5318435668945313,0.6426818847656249
0.5318435668945313,0.6426818847656249
0.5209402084350586,0.6356958389282227
0.5314624786376952,0.6356958389282227
0.5316616058349609,0.6391868591308594
0.5316616058349609,0.6391868591308594
0.5266061782836914,0.6444774627685547
0.5335893630981445,0.6444774627685547
0.5265254974365234,0.6365758895874023
0.5265254974365234,0.6365758895874023
0.5335515975952149,0.6464332580566406
0.5335515975952149,0.6464332580566406
0.5223815917968749,0.6394186019897461
0.5223815917968749,0.6394186019897461
0.5330657958984375,0.6422241210937499
0.5330657958984375,0.6422241210937499
0.5279537200927734,0.6476966857910156
0.5279537200927734,0.6476966857910156
0.5274421691894531,0.6394117355346679
0.5274421691894531,0.6394117355346679
0.5348402023315429,0.6493892669677734
0.5348402023315429,0.6493892669677734
0.5236804962158202,0.6418939590454101
0.5236804962158202,0.6418939590454101
0.5342313766479492,0.6448499679565429
0.5342313766479492,0.6448499679565429
0.5291999816894531,0.6503734588623047
0.5291999816894531,0.6503734588623047
0.5288360595703124,0.6424747467041015
0.5288360595703124,0.6424747467041015
0.5360727310180664,0.6522211074829102
0.5360727310180664,0.6522211074829102
0.5248855590820313,0.6445753097534179
0.5248855590820313,0.6445753097534179
0.5347738265991211,0.6453111648559570
0.5347738265991211,0.6453111648559570
0.5278610229492188,0.6459646224975586
0.5278610229492188,0.6459646224975586
0.5245502471923827,0.6303983688354492
0.5245502471923827,0.6303983688354492
0.5279994964599609,0.6317996978759766
0.5279994964599609,0.6317996978759766
0.5133161544799805,0.6174825668334961
0.5133161544799805,0.6174825668334961
0.5212554931640625,0.6147542953491211
0.5212554931640625,0.6147542953491211
0.5142957687377929,0.6156726837158203
0.5142957687377929,0.6156726837158203
0.5124086380004883,0.6045495986938476
0.5124086380004883,0.6045495986938476
0.5185947418212891,0.6121759414672852
0.5185947418212891,0.6121759414672852
0.5068370819091796,0.6040294647216796
0.5068370819091796,0.6040294647216796
0.5169725418090820,0.6059309005737304
0.5169725418090820,0.6059309005737304
0.5119760513305663,0.6107957839965820
0.5119760513305663,0.6107957839965820
0.5114736557006836,0.6027740478515625
0.5114736557006836,0.6027740478515625
0.5184768676757813,0.6125696182250976
0.5184768676757813,0.6125696182250976
0.5077611923217773,0.6058736801147461
0.5077611923217773,0.6058736801147461
0.5182359695434570,0.6090248107910156
0.5182359695434570,0.6090248107910156
0.5137395858764648,0.6146621704101562
0.5137395858764648,0.6146621704101562
0.5137063980102539,0.6077344894409179
0.5137063980102539,0.6077344894409179
0.5209630966186524,0.6178201675415039
0.5209630966186524,0.6178201675415039
0.5105421066284179,0.6118097305297852
0.5105421066284179,0.6118097305297852
0.5211679458618164,0.6154369354248047
0.5211679458618164,0.6154369354248047
0.5167917251586914,0.6216447830200195
0.5167917251586914,0.6216447830200195
0.5167488098144531,0.6144727706909180
0.5167488098144531,0.6144727706909180
0.5238870620727539,0.6244337081909179
0.5238870620727539,0.6244337081909179
0.5131999969482421,0.6179100036621094
0.5131999969482421,0.6179100036621094
0.5234041213989258,0.6206308364868164
0.5234041213989258,0.6206308364868164
0.5187887191772461,0.6254928588867187
0.5251659393310547,0.6254928588867187
0.5180694580078125,0.6168708801269531
0.5180694580078125,0.6168708801269531
0.5247528076171875,0.6256977081298828
0.5247528076171875,0.6256977081298828
0.5133756637573242,0.6184936523437500
0.5133756637573242,0.6184936523437500
0.5235111236572265,0.6201061248779297
0.5235111236572265,0.6201061248779297
0.5184785842895507,0.6247146606445312
0.5184785842895507,0.6247146606445312
0.5177536010742188,0.6162031173706054
0.5177536010742188,0.6162031173706054
0.5245903015136718,0.6255432128906250
0.5245903015136718,0.6255432128906250
0.5133647918701172,0.6182527542114258
0.5133647918701172,0.6182527542114258
0.5236278533935547,0.6205472946166992
0.5236278533935547,0.6205472946166992
0.5190055847167968,0.6259311676025391
0.5190055847167968,0.6259311676025391
0.5183441162109375,0.6179780960083008
0.5183441162109375,0.6179780960083008
0.5255596160888671,0.6276329040527343
0.5255596160888671,0.6276329040527343
0.5145257949829102,0.6210096359252929
0.5145257949829102,0.6210096359252929
0.5249330520629882,0.6238912582397461
0.5249330520629882,0.6238912582397461
0.5206083297729492,0.6297483444213867
0.5206083297729492,0.6297483444213867
0.5201889038085937,0.6220956802368164
0.5201889038085937,0.6220956802368164
0.5273483276367187,0.6318523406982421
0.5273483276367187,0.6318523406982421
0.5167413711547851,0.6258762359619140
0.5167413711547851,0.6258762359619140
0.5267755508422851,0.6290222167968750
0.5267755508422851,0.6290222167968750
0.5229978561401367,0.6345073699951171
0.5229978561401367,0.6345073699951171
0.5224788665771484,0.6272478103637695
0.5224788665771484,0.6272478103637695
0.5294946670532227,0.6370067596435547
0.5251556396484375,0.6370067596435547
0.5191452026367187,0.6313058853149414
0.5191452026367187,0.6313058853149414
0.5289184570312500,0.6338504791259766
0.5289184570312500,0.6338504791259766
0.5314636230468750,0.6374067306518555
0.5314636230468750,0.6374067306518555
0.5314636230468750,0.6374467849731446
0.5216760635375977,0.6380596160888672
0.5216760635375977,0.6380596160888672
0.5277271270751953,0.6347688674926758
0.5277271270751953,0.6347688674926758
0.5301063537597656,0.6435802459716796
0.5301063537597656,0.6435802459716796
0.5232925415039062,0.6321104049682617
0.5232925415039062,0.6321104049682617
0.5333919525146484,0.6413492202758789
0.5333919525146484,0.6413492202758789
0.5226774215698242,0.6410665512084961
0.5226774215698242,0.6410665512084961
0.5289447784423827,0.6371355056762695
0.5289447784423827,0.6371355056762695
0.5312170028686524,0.6456201553344726
0.5312170028686524,0.6456201553344726
0.5244375228881836,0.6349657058715820
0.5244375228881836,0.6349657058715820
0.5343515396118164,0.6436586380004883
0.5343515396118164,0.6436586380004883
0.5238578796386718,0.6433645248413086
0.5238578796386718,0.6433645248413086
0.5299541473388671,0.6391525268554688
0.5299541473388671,0.6391525268554688
0.5323253631591797,0.6485744476318359
0.5328563690185547,0.6485744476318359
0.5257146835327148,0.6378358840942383
0.5257146835327148,0.6378358840942383
0.5355325698852539,0.6464303970336914
0.5355325698852539,0.6464303970336914
0.5249147415161133,0.6448448181152343
0.5249147415161133,0.6448448181152343
0.5299667358398438,0.6387754440307617
0.5299667358398438,0.6387754440307617
0.5301944732666015,0.6418819427490234
0.5301944732666015,0.6418819427490234
0.5204658508300781,0.6236063003540039
0.5204658508300781,0.6236063003540039
0.5256620407104492,0.6231885910034179
0.5256620407104492,0.6231885910034179
0.5137756347656249,0.6173309326171875
0.5137756347656249,0.6173309326171875
0.5162675857543945,0.6087718963623047
0.5162675857543945,0.6087718963623047
0.5170011520385742,0.6125730514526367
0.5170011520385742,0.6125730514526367
0.5095682144165039,0.6002111434936523
0.5095682144165039,0.6002111434936523
0.5170194625854492,0.6057701110839844
0.5170194625854492,0.6057701110839844
0.5081554412841797,0.6053655624389648
0.5081554412841797,0.6053655624389648
0.5121585845947265,0.6009092330932617
0.5121585845947265,0.6009092330932617
0.5149955749511719,0.6079198837280273
0.5149955749511719,0.6079198837280273
0.5088689804077148,0.5991016387939453
0.5088689804077148,0.5991016387939453
0.5172197341918945,0.6062181472778320
0.5172197341918945,0.6062181472778320
0.5090080261230469,0.6071874618530273
0.5090080261230469,0.6071874618530273
0.5134992599487305,0.6033411026000977
0.5134992599487305,0.6033411026000977
0.5166498184204101,0.6119722366333008
0.5166498184204101,0.6119722366333008
0.5109346389770507,0.6034824371337890
0.5109346389770507,0.6034824371337890
0.5193592071533203,0.6110544204711914
0.5193592071533203,0.6110544204711914
0.5114753723144531,0.6122509002685547
0.5114753723144531,0.6122509002685547
0.5161027908325195,0.6096868515014648
0.5161027908325195,0.6096868515014648
0.5196006774902343,0.6183912277221679
0.5196006774902343,0.6183912277221679
0.5137395858764648,0.6097726821899414
0.5137395858764648,0.6097726821899414
0.5222740173339844,0.6166059494018554
0.5222740173339844,0.6166059494018554
0.5140811920166015,0.6181314468383788
0.5140811920166015,0.6181314468383788
0.5183212280273437,0.6142890930175781
0.5183212280273437,0.6142890930175781
0.5212989807128906,0.6215961456298827
0.5212989807128906,0.6215961456298827
0.5147603988647461,0.6113811492919922
0.5147603988647461,0.6113811492919922
0.5230722427368164,0.6182813644409180
0.5230722427368164,0.6182813644409180
0.5144388198852539,0.6182355880737305
0.5144388198852539,0.6182355880737305
0.5181381225585937,0.6137323379516602
0.5181381225585937,0.6137323379516602
0.5210197448730468,0.6204769134521484
0.5210197448730468,0.6204769134521484
0.5146144866943360,0.6112134933471679
0.5146144866943360,0.6112134933471679
0.5227272033691406,0.6177480697631835
0.5227272033691406,0.6177480697631835
0.5142940521240235,0.6182687759399413
0.5142940521240235,0.6182687759399413
0.5184619903564452,0.6138988494873047
0.5184619903564452,0.6138988494873047
0.5215444564819336,0.6223394393920898
0.5215444564819336,0.6223394393920898
0.5154401779174804,0.6130153656005859
0.5154401779174804,0.6130153656005859
0.5238904953002930,0.6203390121459961
0.5238904953002930,0.6203390121459961
0.5155317306518554,0.6210439682006835
0.5155317306518554,0.6210439682006835
0.5198741912841797,0.6179134368896484
0.5198741912841797,0.6179134368896484
0.5234195709228515,0.6262796401977538
0.5234195709228515,0.6262796401977538
0.5172431945800781,0.6172451019287110
0.5172431945800781,0.6172451019287110
0.5257638931274414,0.6244125366210938
0.5257638931274414,0.6244125366210938
0.5178817749023438,0.6263917922973633
0.5178817749023438,0.6263917922973633
0.5221269607543945,0.6230066299438476
0.5221269607543945,0.6230066299438476
0.5256008148193360,0.6313259124755859
0.5256008148193360,0.6313259124755859
0.5195840835571289,0.6223016738891601
0.5195840835571289,0.6223016738891601
0.5279451370239258,0.6301179885864258
0.5279451370239258,0.6301179885864258
0.5203954696655273,0.6316028594970703
0.5203954696655273,0.6316028594970703
0.5242910385131836,0.6280288696289062
0.5242910385131836,0.6280288696289062
0.5277580261230469,0.6359132766723633
0.5277580261230469,0.6359132766723633
0.5218214035034180,0.6274423599243164
0.5218214035034180,0.6274423599243164
0.5300371170043945,0.6344335556030273
0.5300371170043945,0.6344335556030273
0.5220548629760742,0.6354526519775391
0.5220548629760742,0.6354526519775391
0.5259492874145507,0.6310890197753906
0.5259492874145507,0.6310890197753906
0.5291862487792969,0.6393081665039062
0.5291862487792969,0.6393081665039062
0.5230716705322266,0.6300750732421875
0.5230716705322266,0.6300750732421875
0.5312828063964844,0.6370422363281250
0.5312828063964844,0.6370422363281250
0.5231792449951171,0.6377254486083984
0.5231792449951171,0.6377254486083984
0.5270130157470703,0.6342870712280273
0.5212205886840821,0.6342870712280273
0.5303998947143554,0.6421543121337890
0.5303998947143554,0.6421543121337890
0.5242504119873047,0.6329858779907226
0.5242504119873047,0.6329858779907226
0.5324043273925781,0.6395576477050781
0.5324043273925781,0.6395576477050781
0.5245920181274414,0.6412908554077148
0.5245920181274414,0.6412908554077148
0.5283193588256836,0.6373798370361328
0.5283193588256836,0.6373798370361328
0.5316518783569336,0.6446542739868164
0.5316518783569336,0.6446542739868164
0.5246000289916992,0.6326580047607422
0.5246000289916992,0.6326580047607422
0.5308616638183593,0.6350200653076171
0.5308616638183593,0.6350200653076171
0.5198839187622070,0.6287378311157227
0.5198839187622070,0.6287378311157227
0.5199966430664062,0.6167678833007812
0.5199966430664062,0.6167678833007812
0.5201419830322266,0.6175781250000000
0.5201419830322266,0.6175781250000000
0.5112859725952148,0.6032072067260742
0.5112859725952148,0.6032072067260742
0.5175704956054688,0.6059154510498047
0.5175704956054688,0.6059154510498047
0.5083082199096679,0.6038417816162109
0.5083082199096679,0.6038417816162109
0.5106307983398437,0.5972980499267578
0.5106307983398437,0.5972980499267578
0.5136096954345702,0.6041599273681640
0.5136096954345702,0.6041599273681640
0.5069005966186523,0.5940765380859375
0.5069005966186523,0.5940765380859375
0.5148153305053711,0.6003942489624023
0.5148153305053711,0.6003942489624023
0.5069211959838867,0.6008365631103515
0.5069211959838867,0.6008365631103515
0.5104167938232421,0.5969896316528320
0.5104167938232421,0.5969896316528320
0.5140726089477539,0.6052963256835937
0.5140726089477539,0.6052963256835937
0.5075151443481445,0.5954217910766602
0.5124584197998047,0.5954217910766602
0.5165056228637696,0.6029434204101562
0.5165056228637696,0.6029434204101562
0.5079969406127930,0.6045450210571289
0.5079969406127930,0.6045450210571289
0.5123228073120117,0.6005996704101563
0.5123228073120117,0.6005996704101563
0.5164186477661132,0.6103574752807617
0.5164186477661132,0.6103574752807617
0.5095951080322265,0.6001018524169922
0.5095951080322265,0.6001018524169922
0.5193288803100585,0.6091690063476562
0.5193288803100585,0.6091690063476562
0.5107675552368164,0.6109073638916015
0.5107675552368164,0.6109073638916015
0.5152267456054688,0.6067440032958984
0.5152267456054688,0.6067440032958984
0.5191646575927734,0.6158523559570312
0.5191646575927734,0.6158523559570312
0.5120578765869140,0.6057374954223632
0.5120578765869140,0.6057374954223632
0.5215095520019531,0.6135492324829102
0.5215095520019531,0.6135492324829102
0.5124189376831054,0.6141180038452149
0.5124189376831054,0.6141180038452149
0.5162281036376953,0.6083839416503906
0.5162281036376953,0.6083839416503906
0.5199079513549805,0.6172107696533203
0.5199079513549805,0.6172107696533203
0.5123657226562500,0.6059366226196289
0.5123657226562500,0.6059366226196289
0.5214569091796875,0.6131687164306641
0.5214569091796875,0.6131687164306641
0.5124006271362305,0.6133426666259766
0.5124006271362305,0.6133426666259766
0.5160707473754883,0.6084411621093749
0.5160707473754883,0.6084411621093749
0.5199680328369141,0.6173881530761719
0.5199680328369141,0.6173881530761719
0.5125247955322265,0.6063463211059570
0.5125247955322265,0.6063463211059570
0.5219249725341797,0.6139097213745117
0.5219249725341797,0.6139097213745117
0.5130083084106445,0.6153923034667969
0.5130083084106445,0.6153923034667969
0.5170841217041016,0.6106962203979492
0.5170841217041016,0.6106962203979492
0.5212320327758789,0.6201164245605468
0.5212320327758789,0.6201164245605468
0.5138980865478515,0.6090854644775391
0.5138980865478515,0.6090854644775391
0.5235397338867187,0.6179105758666992
0.5235397338867187,0.6179105758666992
0.5149137496948242,0.6195013046264648
0.5149137496948242,0.6195013046264648
0.5189294815063477,0.6149791717529297
0.5189294815063477,0.6149791717529297
0.5233514785766601,0.6243793487548828
0.5233514785766601,0.6243793487548828
0.5158796310424805,0.6143039703369141
0.5158796310424805,0.6143039703369141
0.5258525848388672,0.6229070663452149
0.5258525848388672,0.6229070663452149
0.5171470642089844,0.6245710372924804
0.5171470642089844,0.6245710372924804
0.5211055755615234,0.6196437835693359
0.5211055755615234,0.6196437835693359
0.5255475997924804,0.6299491882324219
0.5255475997924804,0.6299491882324219
0.5182239532470703,0.6194091796875000
0.5182239532470703,0.6194091796875000
0.5280183792114258,0.6278835296630859
0.5280183792114258,0.6278835296630859
0.5193494796752930,0.6290639877319336
0.5193494796752930,0.6290639877319336
0.5231111526489257,0.6245126724243164
0.5231111526489257,0.6245126724243164
0.5276178359985352,0.6342847824096679
0.5276178359985352,0.6342847824096679
0.5200738906860352,0.6234300613403320
0.5200738906860352,0.6234300613403320
0.5297653198242187,0.6310718536376952
0.5297653198242187,0.6310718536376952
0.5209419250488281,0.6328491210937500
0.5209419250488281,0.6328491210937500
0.5247945785522461,0.6279647827148437
0.5247945785522461,0.6279647827148437
0.5290603637695312,0.6375183105468750
0.5290603637695312,0.6375183105468750
0.5215507507324219,0.6263660430908203
0.5215507507324219,0.6263660430908203
0.5310235977172851,0.6348117828369141
0.5310235977172851,0.6348117828369141
0.5225589752197265,0.6363756179809570
0.5225589752197265,0.6363756179809570
0.5262651443481445,0.6313459396362304
0.5262651443481445,0.6313459396362304
0.5305755615234374,0.6405950546264648
0.5292371749877930,0.6405950546264648
0.5232748031616211,0.6304698944091797
0.5232748031616211,0.6304698944091797
0.5251939773559570,0.6319450378417969
0.5251939773559570,0.6319450378417969
0.5327241897583007,0.6409749984741211
0.5327241897583007,0.6409749984741211
0.5202650070190430,0.6317499160766601
0.5202650070190430,0.6317499160766601
0.5267852783203125,0.6266263961791992
0.5267852783203125,0.6266263961791992
0.5216875076293945,0.6245206832885742
0.5216875076293945,0.6245206832885742
0.5149629592895507,0.6073431015014649
0.5149629592895507,0.6073431015014649
0.5196430206298828,0.6111505508422851
0.5196430206298828,0.6111505508422851
0.5062929153442383,0.6007970809936524
0.5062929153442383,0.6007970809936524
0.5133630752563476,0.5979040145874023
0.5133630752563476,0.5979040145874023
0.5106239318847656,0.6014734268188476
0.5106239318847656,0.6014734268188476
0.5067895889282227,0.5905654907226562
0.5067895889282227,0.5905654907226562
0.5137166976928711,0.5992595672607421
0.5137166976928711,0.5992595672607421
0.5028676986694336,0.5932394027709961
0.5028676986694336,0.5932394027709961
0.5113025665283203,0.5935998916625976
0.5113025665283203,0.5935998916625976
0.5097358703613281,0.5997173309326171
0.5097358703613281,0.5997173309326171
0.5067249298095703,0.5905900955200195
0.5067249298095703,0.5905900955200195
0.5145092010498047,0.6006488800048828
0.5145092010498047,0.6006488800048828
0.5035526275634765,0.5953617095947266
0.5035526275634765,0.5953617095947266
0.5127347946166992,0.5963773727416992
0.5127347946166992,0.5963773727416992
0.5114107131958008,0.6037496566772461
0.5114107131958008,0.6037496566772461
0.5084535598754882,0.5943609237670898
0.5084535598754882,0.5943609237670898
0.5168684005737304,0.6056201934814452
0.5168684005737304,0.6056201934814452
0.5060096740722656,0.6009235382080078
0.5060096740722656,0.6009235382080078
0.5154785156250000,0.6025474548339843
0.5154785156250000,0.6025474548339843
0.5142477035522460,0.6098024368286132
0.5185163497924804,0.6098024368286132
0.5112590789794922,0.6005550384521484
0.5112590789794922,0.6005550384521484
0.5194616317749023,0.6112638473510742
0.5194616317749023,0.6112638473510742
0.5081880569458007,0.6058353424072266
0.5081880569458007,0.6058353424072266
0.5172872543334961,0.6062095642089843
0.5172872543334961,0.6062095642089843
0.5156564712524414,0.6123476028442383
0.5156564712524414,0.6123476028442383
0.5121459960937500,0.6019769668579101
0.5121459960937500,0.6019769668579101
0.5197929382324219,0.6119899749755859
0.5197929382324219,0.6119899749755859
0.5082939147949218,0.6056264877319336
0.5082939147949218,0.6056264877319336
0.5171436309814453,0.6059240341186524
0.5171436309814453,0.6059240341186524
0.5154922485351562,0.6119911193847656
0.5154922485351562,0.6119911193847656
0.5122140884399414,0.6021680831909180
0.5122140884399414,0.6021680831909180
0.5199674606323242,0.6120855331420898
0.5199674606323242,0.6120855331420898
0.5088964462280273,0.6065734863281250
0.5088964462280273,0.6065734863281250
0.5176391601562500,0.6071926116943359
0.5176391601562500,0.6071926116943359
0.5164575576782227,0.6141397476196289
0.5164575576782227,0.6141397476196289
0.5131565093994140,0.6044551849365234
0.5131565093994140,0.6044551849365234
0.5212692260742188,0.6150701522827148
0.5212692260742188,0.6150701522827148
0.5104001998901367,0.6099889755249023
0.5104001998901367,0.6099889755249023
0.5194038391113281,0.6112964630126952
0.5194038391113281,0.6112964630126952
0.5183790206909179,0.6183826446533203
0.5183790206909179,0.6183826446533203
0.5152433395385742,0.6090568542480469
0.5152433395385742,0.6090568542480469
0.5234407424926758,0.6200105667114257
0.5234407424926758,0.6200105667114257
0.5127307891845703,0.6154552459716797
0.5127307891845703,0.6154552459716797
0.5216382980346680,0.6164995193481445
0.5216382980346680,0.6164995193481445
0.5208257675170899,0.6237939834594727
0.5208257675170899,0.6237939834594727
0.5176465988159179,0.6143726348876953
0.5176465988159179,0.6143726348876953
0.5258148193359374,0.6254940032958984
0.5199485778808594,0.6254940032958984
0.5149663925170899,0.6204288482666015
0.5149663925170899,0.6204288482666015
0.5239809036254882,0.6213329315185546
0.5239809036254882,0.6213329315185546
0.5229709625244140,0.6285243988037109
0.5229709625244140,0.6285243988037109
0.5195938110351562,0.6189239501953124
0.5195938110351562,0.6189239501953124
0.5277992248535156,0.6294193267822266
0.5277992248535156,0.6294193267822266
0.5167253494262695,0.6241344451904297
0.5167253494262695,0.6241344451904297
0.5254131317138672,0.6245750427246094
0.5254131317138672,0.6245750427246094
0.5242755889892577,0.6316869735717773
0.5242755889892577,0.6316869735717773
0.5204195022583008,0.6208711624145508
0.5204195022583008,0.6208711624145508
0.5294500350952148,0.6321847915649413
0.5294500350952148,0.6321847915649413
0.5172689437866210,0.6265743255615234
0.5172689437866210,0.6265743255615234
0.5267452239990235,0.6269657135009765
0.5267452239990235,0.6269657135009765
0.5255235671997071,0.6345760345458984
0.5255235671997071,0.6345760345458984
0.5215604782104492,0.6235719680786133
0.5215604782104492,0.6235719680786133
0.5305812835693359,0.6350801467895507
0.5305812835693359,0.6350801467895507
0.5184728622436523,0.6296339035034180
0.5184728622436523,0.6296339035034180
0.5280378341674804,0.6300161361694335
0.5280378341674804,0.6300161361694335
0.5268487930297852,0.6374113082885742
0.5268487930297852,0.6374113082885742
0.5221893310546875,0.6246917724609374
0.5221893310546875,0.6246917724609374
0.5299861907958984,0.6322145462036133
0.5299861907958984,0.6322145462036133
0.5150459289550781,0.6197839736938476
0.5150459289550781,0.6197839736938476
0.5210706710815429,0.6122720718383788
0.5210706710815429,0.6122720718383788
0.5165050506591796,0.6128791809082031
0.5165050506591796,0.6128791809082031
0.5095745086669922,0.5961513519287109
0.5095745086669922,0.5961513519287109
0.5166950225830078,0.6029359817504882
0.5166950225830078,0.6029359817504882
0.5028654098510742,0.5939506530761719
0.5028654098510742,0.5939506530761719
0.5110868453979492,0.5918643951416015
0.5110868453979492,0.5918643951416015
0.5092403411865234,0.5982038497924804
0.5092403411865234,0.5982038497924804
0.5044956207275391,0.5857183456420898
0.5044956207275391,0.5857183456420898
0.5135112762451172,0.5964975357055664
0.5135112762451172,0.5964975357055664
0.5012437820434570,0.5906032562255860
0.5012437820434570,0.5906032562255860
0.5105031967163086,0.5908430099487304
0.5105031967163086,0.5908430099487304
0.5095310211181641,0.5984458923339844
0.5095310211181641,0.5984458923339844
0.5052886962890625,0.5871208190917968
0.5052886962890625,0.5871208190917968
0.5144474029541015,0.5987617492675781
0.5144474029541015,0.5987617492675781
0.5028162002563477,0.5938167572021484
0.5028162002563477,0.5938167572021484
0.5121019363403320,0.5942693710327148
0.5121019363403320,0.5942693710327148
0.5115257263183594,0.6029514312744141
0.5115257263183594,0.6029514312744141
0.5073097229003906,0.5921304702758788
0.5073097229003906,0.5921304702758788
0.5169874191284179,0.6045787811279296
0.5169874191284179,0.6045787811279296
0.5054506301879883,0.5997276306152344
0.5054506301879883,0.5997276306152344
0.5148725509643555,0.6003530502319335
0.5148725509643555,0.6003530502319335
0.5141887664794922,0.6086242675781249
0.5141887664794922,0.6086242675781249
0.5098737716674805,0.5975280761718750
0.5098737716674805,0.5975280761718750
0.5190776824951172,0.6084640502929687
0.5190776824951172,0.6084640502929687
0.5069332122802734,0.6027654647827149
0.5069332122802734,0.6027654647827149
0.5157491683959960,0.6020393371582031
0.5157491683959960,0.6020393371582031
0.5146642684936523,0.6096055984497070
0.5146642684936523,0.6096055984497070
0.5100002288818359,0.5973501205444336
0.5100002288818359,0.5973501205444336
0.5189249038696289,0.6080085754394531
0.5189249038696289,0.6080085754394531
0.5067489624023437,0.6022047042846680
0.5067489624023437,0.6022047042846680
0.5155214309692383,0.6018087387084960
0.5155214309692383,0.6018087387084960
0.5146070480346679,0.6093812942504883
0.5146070480346679,0.6093812942504883
0.5101266860961914,0.5978050231933594
0.5101266860961914,0.5978050231933594
0.5192636489868164,0.6089630126953125
0.5192636489868164,0.6089630126953125
0.5073835372924804,0.6040237426757812
0.5073835372924804,0.6040237426757812
0.5164821624755859,0.6037107467651367
0.5164821624755859,0.6037107467651367
0.5156862258911132,0.6119413375854492
0.5156862258911132,0.6119413375854492
0.5113986968994141,0.6007026672363281
0.5113986968994141,0.6007026672363281
0.5207948684692383,0.6124013900756836
0.5207948684692383,0.6124013900756836
0.5090858459472656,0.6075147628784180
0.5090858459472656,0.6075147628784180
0.5181455612182617,0.6078100204467773
0.5181455612182617,0.6078100204467773
0.5176729202270508,0.6161687850952148
0.5176729202270508,0.6161687850952148
0.5134283065795898,0.6054960250854492
0.5134283065795898,0.6054960250854492
0.5229578018188477,0.6171432495117187
0.5229578018188477,0.6171432495117187
0.5111446380615234,0.6125249862670898
0.5111446380615234,0.6125249862670898
0.5203262329101562,0.6129003524780273
0.5203262329101562,0.6129003524780273
0.5199548721313476,0.6215927124023437
0.5199548721313476,0.6215927124023437
0.5156908035278320,0.6103202819824218
0.5156908035278320,0.6103202819824218
0.5252099990844726,0.6222581863403320
0.5252099990844726,0.6222581863403320
0.5133905410766602,0.6174522399902344
0.5133905410766602,0.6174522399902344
0.5225412368774414,0.6177766799926757
0.5225412368774414,0.6177766799926757
0.5220130920410156,0.6258939743041992
0.5220130920410156,0.6258939743041992
0.5175298690795899,0.6143978118896484
0.5175298690795899,0.6143978118896484
0.5268659591674805,0.6257606506347656
0.5268659591674805,0.6257606506347656
0.5149589538574219,0.6211172103881836
0.5149589538574219,0.6211172103881836
0.5237348556518554,0.6205701828002930
0.5237348556518554,0.6205701828002930
0.5232868194580078,0.6287263870239258
0.5232868194580078,0.6287263870239258
0.5187767028808593,0.6170768737792969
0.5187767028808593,0.6170768737792969
0.5280309677124023,0.6286062240600586
0.5280309677124023,0.6286062240600586
0.5162343978881836,0.6235794067382813
0.5162343978881836,0.6235794067382813
0.5250114440917969,0.6230260848999023
0.5250114440917969,0.6230260848999023
0.5245067596435546,0.6313413619995117
0.5245067596435546,0.6313413619995117
0.5197883605957031,0.6199396133422851
0.5197883605957031,0.6199396133422851
0.5291725158691406,0.6311450958251953
0.5291725158691406,0.6311450958251953
0.5175464630126952,0.6265977859497071
0.5175464630126952,0.6265977859497071
0.5261592864990234,0.6258241653442382
0.5261592864990234,0.6258241653442382
0.5253089904785156,0.6328090667724610
0.5253089904785156,0.6328090667724610
0.5194461822509765,0.6174757003784179
0.5194461822509765,0.6174757003784179
0.5261655807495117,0.6224756240844727
0.5261655807495117,0.6224756240844727
0.5110141754150390,0.6104169845581054
0.5110141754150390,0.6104169845581054
0.5164558410644531,0.6037027359008789
0.5164558410644531,0.6037027359008789
0.5132371902465820,0.6051149368286133
0.5150499343872070,0.6051149368286133
0.5073171615600586,0.5904647827148437
0.5073171615600586,0.5904647827148437
0.5137407302856445,0.5969284057617187
0.5137407302856445,0.5969284057617187
0.5021324157714844,0.5904069900512695
0.5021324157714844,0.5904069900512695
0.5090326309204102,0.5882921218872070
0.5090326309204102,0.5882921218872070
0.5109432220458984,0.5894868850708007
0.5109432220458984,0.5894868850708007
0.5118638992309570,0.5916103363037110
0.5118638992309570,0.5916103363037110
0.5058998107910156,0.5852319717407226
0.5058998107910156,0.5852319717407226
0.5108087539672851,0.5946441650390625
0.5108087539672851,0.5946441650390625
0.5030988693237305,0.5843576431274414
0.5030988693237305,0.5843576431274414
0.5115583419799804,0.5913551330566406
0.5051307678222656,0.5939323425292968
0.5051307678222656,0.5939323425292968
0.5073606491088867,0.5882692337036133
0.5073606491088867,0.5882692337036133
0.5123468399047851,0.5977752685546874
0.5123468399047851,0.5977752685546874
0.5050134658813477,0.5890182495117188
0.5050134658813477,0.5890182495117188
0.5138895034790039,0.5961776733398437
0.5138895034790039,0.5961776733398437
0.5076719284057617,0.5993619918823242
0.5076719284057617,0.5993619918823242
0.5099658966064453,0.5938150405883789
0.5099658966064453,0.5938150405883789
0.5150671005249023,0.6040952682495117
0.5150671005249023,0.6040952682495117
0.5077800750732422,0.5947208404541016
0.5077800750732422,0.5947208404541016
0.5161285400390625,0.6012588500976562
0.5161285400390625,0.6012588500976562
0.5096643447875976,0.6031734466552734
0.5096643447875976,0.6031734466552734
0.5114484786987304,0.5973438262939453
0.5114484786987304,0.5973438262939453
0.5161680221557617,0.6061843872070313
0.5161680221557617,0.6061843872070313
0.5083831787109375,0.5960958480834960
0.5083831787109375,0.5960958480834960
0.5163677215576171,0.6012502670288086
0.5163677215576171,0.6012502670288086
0.5097536087036133,0.6034955978393555
0.5097536087036133,0.6034955978393555
0.5115022659301758,0.5971469879150391
0.5115022659301758,0.5971469879150391
0.5162801742553711,0.6062078475952148
0.5162801742553711,0.6062078475952148
0.5138866424560546,0.6065025329589844
0.5138866424560546,0.6063846588134766
0.5168581008911133,0.6063846588134766
0.5102411270141601,0.6050582885742187
0.5183046340942382,0.6050582885742187
0.5074905395507813,0.6024650573730469
0.5175184249877930,0.6024650573730469
0.5094417572021485,0.5993928909301758
0.5094417572021485,0.5992395401000976
0.5094417572021485,0.5992395401000976
0.5185724258422851,0.6061100006103516
0.5185724258422851,0.6061100006103516
0.5120429992675781,0.6091741561889649
0.5120429992675781,0.6091741561889649
0.5139816284179687,0.6026000976562500
0.5139816284179687,0.6026000976562500
0.5195371627807617,0.6135875701904296
0.5195371627807617,0.6135875701904296
0.5115297317504882,0.6040065765380859
0.5115297317504882,0.6040065765380859
0.5207193374633788,0.6109594345092774
0.5207193374633788,0.6109594345092774
0.5142322540283203,0.6137969970703124
0.5142322540283203,0.6137969970703124
0.5161205291748047,0.6081155776977539
0.5161205291748047,0.6081155776977539
0.5218877792358398,0.6188032150268554
0.5218877792358398,0.6188032150268554
0.5136285781860351,0.6089899063110351
0.5136285781860351,0.6089899063110351
0.5230934143066406,0.6154071807861328
0.5230934143066406,0.6154071807861328
0.5163866043090820,0.6191871643066406
0.5163866043090820,0.6191871643066406
0.5184734344482421,0.6130353927612304
0.5184734344482421,0.6130353927612304
0.5241617202758789,0.6236366271972656
0.5241617202758789,0.6236366271972656
0.5156879425048828,0.6134250640869140
0.5156879425048828,0.6134250640869140
0.5250663757324219,0.6205564498901367
0.5250663757324219,0.6205564498901367
0.5185283660888672,0.6237430572509766
0.5185283660888672,0.6237430572509766
0.5203800201416016,0.6172582626342773
0.5203800201416016,0.6172582626342773
0.5258926391601563,0.6272283554077148
0.5258926391601563,0.6272283554077148
0.5174800872802734,0.6175718307495117
0.5174800872802734,0.6175718307495117
0.5267017364501952,0.6239044189453125
0.5267017364501952,0.6239044189453125
0.5200721740722656,0.6269531250000000
0.5200721740722656,0.6269531250000000
0.5218059539794921,0.6199253082275390
0.5218059539794921,0.6199253082275390
0.5272602081298828,0.6305585861206054
0.5272602081298828,0.6305585861206054
0.5188098907470703,0.6206451416015625
0.5188098907470703,0.6206451416015625
0.5280527114868164,0.6268987655639648
0.5198375701904296,0.6268987655639648
0.5213556289672852,0.6296854019165039
0.5213556289672852,0.6296854019165039
0.5231586456298828,0.6235685348510742
0.5231586456298828,0.6235685348510742
0.5287565231323242,0.6339878082275391
0.5287565231323242,0.6339878082275391
0.5203119277954101,0.6238512039184571
0.5203119277954101,0.6238512039184571
0.5290729522705078,0.6285856246948242
0.5290729522705078,0.6285856246948242
0.5212268829345703,0.6287910461425781
0.5283113479614258,0.6287910461425781
0.5208795547485351,0.6164113998413085
0.5208795547485351,0.6164113998413085
0.5227346420288086,0.6186035156249999
0.5227346420288086,0.6186035156249999
0.5108985900878906,0.6010168075561523
0.5108985900878906,0.6010168075561523
0.5169387817382812,0.6012531280517578
0.5169387817382812,0.6012531280517578
0.5081182479858398,0.5994621276855469
0.5081182479858398,0.5994621276855469
0.5081016540527343,0.5891332626342773
0.5081016540527343,0.5891332626342773
0.5120355606079101,0.5959951400756835
0.5120355606079101,0.5959951400756835
0.5026554107666016,0.5845830917358398
0.5026554107666016,0.5845830917358398
0.5111909866333008,0.5893718719482421
0.5111909866333008,0.5893718719482421
0.5043365478515625,0.5914575576782226
0.5043365478515625,0.5914575576782226
0.5057418823242187,0.5840143203735352
0.5057418823242187,0.5840143203735352
0.5110033035278320,0.5941841125488281
0.5110033035278320,0.5941841125488281
0.5024288177490234,0.5842781066894531
0.5024288177490234,0.5842781066894531
0.5116910934448242,0.5900871276855468
0.5116910934448242,0.5900871276855468
0.5050981521606445,0.5929533004760742
0.5050981521606445,0.5929533004760742
0.5068445205688477,0.5868604660034179
0.5068445205688477,0.5868604660034179
0.5124881744384765,0.5972339630126953
0.5124881744384765,0.5972339630126953
0.5040945053100586,0.5879156112670898
0.5040945053100586,0.5879156112670898
0.5135604858398437,0.5939815521240234
0.5135604858398437,0.5939815521240234
0.5073972702026367,0.5982427597045898
0.5073972702026367,0.5982427597045898
0.5093513488769531,0.5923707962036132
0.5093513488769531,0.5923707962036132
0.5150648117065429,0.6028879165649413
0.5150648117065429,0.6028879165649413
0.5067787170410156,0.5933858871459960
0.5067787170410156,0.5933858871459960
0.5160221099853516,0.5996858596801757
0.5160221099853516,0.5996858596801757
0.5097026824951172,0.6028718948364258
0.5097026824951172,0.6028718948364258
0.5112487792968750,0.5960140228271484
0.5112487792968750,0.5960140228271484
0.5163894653320312,0.6050811767578125
0.5163894653320312,0.6050811767578125
0.5076564788818360,0.5953823089599609
0.5076564788818360,0.5953823089599609
0.5166692733764648,0.6004194259643555
0.5166692733764648,0.6004194259643555
0.5099315643310547,0.6031007766723633
0.5099315643310547,0.6031007766723633
0.5112190246582031,0.5955110549926758
0.5112190246582031,0.5955110549926758
0.5163768768310547,0.6053976058959961
0.5163768768310547,0.6053976058959961
0.5077274322509765,0.5955259323120117
0.5077274322509765,0.5955259323120117
0.5168094635009766,0.6008634567260742
0.5168094635009766,0.6008634567260742
0.5103349685668945,0.6037382125854492
0.5103349685668945,0.6037382125854492
0.5119297027587890,0.5975154876708985
0.5119297027587890,0.5975154876708985
0.5173776626586913,0.6075948715209961
0.5173776626586913,0.6075948715209961
0.5089078903198242,0.5985466003417969
0.5089078903198242,0.5985466003417969
0.5182731628417968,0.6037948608398437
0.5182731628417968,0.6037948608398437
0.5119588851928710,0.6079130172729492
0.5119588851928710,0.6079130172729492
0.5137475967407227,0.6017601013183593
0.5137475967407227,0.6017601013183593
0.5192287445068359,0.6119184494018555
0.5192287445068359,0.6119184494018555
0.5108064651489258,0.6027717590332031
0.5108064651489258,0.6027717590332031
0.5203754425048828,0.6090694427490234
0.5203754425048828,0.6090694427490234
0.5142465591430664,0.6131040573120117
0.5142465591430664,0.6131040573120117
0.5160398483276367,0.6069740295410156
0.5160398483276367,0.6069740295410156
0.5215003967285156,0.6166070938110352
0.5215003967285156,0.6166070938110352
0.5131376266479492,0.6084794998168945
0.5210706710815429,0.6084794998168945
0.5225074768066406,0.6140779495239258
0.5225074768066406,0.6140779495239258
0.5166257858276367,0.6178928375244140
0.5166257858276367,0.6178928375244140
0.5180814743041992,0.6114480972290038
0.5180814743041992,0.6114480972290038
0.5235391616821289,0.6216218948364257
0.5235391616821289,0.6216218948364257
0.5152519226074218,0.6131177902221679
0.5152519226074218,0.6131177902221679
0.5243946075439453,0.6184192657470703
0.5167367935180663,0.6184192657470703
0.5184700012207031,0.6217391967773437
0.5184700012207031,0.6217391967773437
0.5197689056396484,0.6158975601196289
0.5197689056396484,0.6158975601196289
0.5252443313598633,0.6252439498901367
0.5252443313598633,0.6252439498901367
0.5170091629028321,0.6167833328247070
0.5170091629028321,0.6167833328247070
0.5256568908691406,0.6210491180419921
0.5256568908691406,0.6210491180419921
0.5199165344238281,0.6248325347900391
0.5199165344238281,0.6248325347900391
0.5210163116455078,0.6186367034912109
0.5210163116455078,0.6186367034912109
0.5262319564819335,0.6275688171386719
0.5262319564819335,0.6275688171386719
0.5180402755737304,0.6189439773559570
0.5180402755737304,0.6189439773559570
0.5266782760620117,0.6238014221191406
0.5266782760620117,0.6238014221191406
0.5211095809936523,0.6275665283203125
0.5211095809936523,0.6275665283203125
0.5222356796264648,0.6215686798095703
0.5222356796264648,0.6215686798095703
0.5272722244262695,0.6298988342285156
0.5272722244262695,0.6298988342285156
0.5195783615112305,0.6227937698364258
0.5195783615112305,0.6227937698364258
0.5278347015380859,0.6271316528320312
0.5278347015380859,0.6271316528320312
0.5227964401245117,0.6310649871826172
0.5227964401245117,0.6310649871826172
0.5234167098999023,0.6239004135131836
0.5234167098999023,0.6239004135131836
0.5277585983276367,0.6303543090820313
0.5277585983276367,0.6303543090820313
0.5180934906005860,0.6179071426391601
0.5180934906005860,0.6179071426391601
0.5232507705688476,0.6144950866699218
0.5232507705688476,0.6144950866699218
0.5146539688110351,0.6107385635375976
0.5146539688110351,0.6107385635375976
0.5124458312988281,0.5988286972045899
0.5124458312988281,0.5988286972045899
0.5152130126953125,0.6023609161376953
0.5152130126953125,0.6023609161376953
0.5054712295532227,0.5907806396484375
0.5054712295532227,0.5907806396484375
0.5122192382812499,0.5911972045898437
0.5122192382812499,0.5911972045898437
0.5060131072998046,0.5932565689086914
0.5060131072998046,0.5932565689086914
0.5061870574951172,0.5860925674438476
0.5061870574951172,0.5860925674438476
0.5109792709350586,0.5935369491577148
0.5109792709350586,0.5935369491577148
0.5027835845947265,0.5852205276489257
0.5027835845947265,0.5852205276489257
0.5109146118164062,0.5891172409057617
0.5109146118164062,0.5891172409057617
0.5058431625366211,0.5928691864013672
0.5058431625366211,0.5928691864013672
0.5065607070922852,0.5867105484008789
0.5065607070922852,0.5867105484008789
0.5116521835327148,0.5948524475097656
0.5116521835327148,0.5948524475097656
0.5040018081665039,0.5880975723266602
0.5040018081665039,0.5880975723266602
0.5083585739135742,0.5872873306274414
0.5083585739135742,0.5872873306274414
0.5138866424560546,0.5963092803955078
0.5138866424560546,0.5963092803955078
0.5047502517700195,0.5956821441650391
0.5047502517700195,0.5956821441650391
0.5116018295288086,0.5945989608764648
0.5116018295288086,0.5945989608764648
0.5128549575805664,0.6020845413208008
0.5128549575805664,0.6020845413208008
0.5090040206909180,0.5933853149414062
0.5090040206909180,0.5933853149414062
0.5165273666381835,0.6018728256225586
0.5165273666381835,0.6018728256225586
0.5073291778564453,0.6010808944702148
0.5073291778564453,0.6010808944702148
0.5136995315551758,0.5989053726196288
0.5079145431518555,0.5989053726196288
0.5146499633789062,0.6054988861083984
0.5146499633789062,0.6054988861083984
0.5102033615112305,0.5958469390869140
0.5102033615112305,0.5958469390869140
0.5173313140869140,0.6036191940307617
0.5112699508666992,0.6036191940307617
0.5078384399414062,0.6017314910888671
0.5078384399414062,0.6017314910888671
0.5139518737792969,0.5990215301513672
0.5139518737792969,0.5990215301513672
0.5146453857421874,0.6053535461425781
0.5146453857421874,0.6053535461425781
0.5101375579833984,0.5958778381347656
0.5101375579833984,0.5958778381347656
0.5174898147583008,0.6035396575927734
0.5174898147583008,0.6035396575927734
0.5080821990966796,0.6023609161376953
0.5080821990966796,0.6023609161376953
0.5143964767456054,0.6001018524169922
0.5143964767456054,0.6001018524169922
0.5154470443725586,0.6072372436523438
0.5154470443725586,0.6072372436523438
0.5111034393310546,0.5980562210083008
0.5111034393310546,0.5980562210083008
0.5187417984008789,0.6063966751098633
0.5187417984008789,0.6063966751098633
0.5094715118408203,0.6056156158447266
0.5094715118408203,0.6056156158447266
0.5160575866699219,0.6041067123413085
0.5160575866699219,0.6041067123413085
0.5172506332397461,0.6112260818481445
0.5172506332397461,0.6112260818481445
0.5130002975463867,0.6023815155029296
0.5130002975463867,0.6023815155029296
0.5206621170043945,0.6109136581420899
0.5206621170043945,0.6109136581420899
0.5115886688232422,0.6105365753173828
0.5115886688232422,0.6105365753173828
0.5181667327880859,0.6087438583374023
0.5181667327880859,0.6087438583374023
0.5195240020751953,0.6162139892578125
0.5195240020751953,0.6162139892578125
0.5152799606323242,0.6073945999145508
0.5152799606323242,0.6073945999145508
0.5230001449584961,0.6161144256591796
0.5230001449584961,0.6161144256591796
0.5138345718383789,0.6155639648437500
0.5138345718383789,0.6155639648437500
0.5204692840576172,0.6137483596801757
0.5204692840576172,0.6137483596801757
0.5217533111572266,0.6211372375488281
0.5217533111572266,0.6211372375488281
0.5173919677734374,0.6124980926513671
0.5173919677734374,0.6124980926513671
0.5250944137573242,0.6207269668579102
0.5250944137573242,0.6207269668579102
0.5159477233886719,0.6202108383178710
0.5159477233886719,0.6202108383178710
0.5224691390991211,0.6180576324462891
0.5224691390991211,0.6180576324462891
0.5236341476440429,0.6253486633300781
0.5236341476440429,0.6253486633300781
0.5191772460937499,0.6161138534545898
0.5191772460937499,0.6161138534545898
0.5267274856567382,0.6240629196166992
0.5267274856567382,0.6240629196166992
0.5173278808593750,0.6232349395751953
0.5173278808593750,0.6232349395751953
0.5235780715942383,0.6207944869995117
0.5235780715942383,0.6207944869995117
0.5247098922729492,0.6275224685668945
0.5247098922729492,0.6275224685668945
0.5202043533325195,0.6182470321655273
0.5202043533325195,0.6182470321655273
0.5275709152221679,0.6261886596679688
0.5275709152221679,0.6261886596679688
0.5182989120483398,0.6254957199096679
0.5182989120483398,0.6254957199096679
0.5245594024658203,0.6231107711791992
0.5245594024658203,0.6231107711791992
0.5258577346801757,0.6300436019897461
0.5258577346801757,0.6300436019897461
0.5213304519653320,0.6211154937744140
0.5213304519653320,0.6211154937744140
0.5289258956909180,0.6292522430419921
0.5289258956909180,0.6292522430419921
0.5197557449340821,0.6286005020141602
0.5197557449340821,0.6286005020141602
0.5261169433593750,0.6264953613281250
0.5261169433593750,0.6264953613281250
0.5273128509521484,0.6329750061035156
0.5273128509521484,0.6329750061035156
0.5220319747924804,0.6220064163208008
0.5220319747924804,0.6220064163208008
0.5278066635131836,0.6253017425537110
0.5278066635131836,0.6253017425537110
0.5158309936523438,0.6179248809814453
0.5158309936523438,0.6179248809814453
0.5186588287353515,0.6080635070800781
0.5186588287353515,0.6080635070800781
0.5167058944702149,0.6084955215454101
0.5167058944702149,0.6084955215454101
0.5095767974853516,0.5939620971679688
0.5095767974853516,0.5939620971679688
0.5150630950927734,0.5975629806518554
0.5081680297851562,0.5975629806518554
0.5041637420654297,0.5936582565307617
0.5041637420654297,0.5936582565307617
0.5093015670776367,0.5890125274658203
0.5093015670776367,0.5890125274658203
0.5098062515258789,0.5942098617553710
0.5098062515258789,0.5942098617553710
0.5047193527221679,0.5841087341308594
0.5047193527221679,0.5841087341308594
0.5118541717529297,0.5912143707275390
0.5118541717529297,0.5912143707275390
0.5024093627929688,0.5901844024658203
0.5024093627929688,0.5901844024658203
0.5085617065429687,0.5873920440673828
0.5085617065429687,0.5873920440673828
0.5098892211914062,0.5942928314208984
0.5098892211914062,0.5942928314208984
0.5053316116333008,0.5852153778076171
0.5053316116333008,0.5852153778076171
0.5129104614257812,0.5933921813964843
0.5129104614257812,0.5933921813964843
0.5037895202636719,0.5928628921508788
0.5037895202636719,0.5928628921508788
0.5101747512817383,0.5908756256103516
0.5101747512817383,0.5908756256103516
0.5119394302368164,0.5983606338500976
0.5119394302368164,0.5983606338500976
0.5075511932373047,0.5903097152709961
0.5075511932373047,0.5903097152709961
0.5153680801391601,0.5987468719482422
0.5153680801391601,0.5987468719482422
0.5065944671630859,0.5989030838012696
0.5065944671630859,0.5989030838012696
0.5129859924316406,0.5969907760620117
0.5129859924316406,0.5969907760620117
0.5146625518798827,0.6046337127685547
0.5146625518798827,0.6046337127685547
0.5100683212280274,0.5956357955932617
0.5100683212280274,0.5956357955932617
0.5176992416381836,0.6033525466918945
0.5176992416381836,0.6033525466918945
0.5083059310913086,0.6025497436523437
0.5083059310913086,0.6025497436523437
0.5143718719482422,0.5997024536132812
0.5143718719482422,0.5997024536132812
0.5154510498046875,0.6060150146484374
0.5154510498046875,0.6060150146484374
0.5105106353759765,0.5963293075561523
0.5105106353759765,0.5963293075561523
0.5177335739135742,0.6033119201660156
0.5177335739135742,0.6033119201660156
0.5081737518310546,0.6026561737060546
0.5081737518310546,0.6026561737060546
0.5142780303955078,0.5994592666625976
0.5142780303955078,0.5994592666625976
0.5155769348144531,0.6061958312988281
0.5155769348144531,0.6061958312988281
0.5105546951293946,0.5970354080200195
0.5105546951293946,0.5970354080200195
0.5182285308837891,0.6046651840209961
0.5182285308837891,0.6046651840209961
0.5090698242187500,0.6042114257812500
0.5090698242187500,0.6042114257812500
0.5153005599975585,0.6018390655517578
0.5153005599975585,0.6018390655517578
0.5168369293212890,0.6090602874755859
0.5168369293212890,0.6090602874755859
0.5122232437133789,0.6008737564086913
0.5122232437133789,0.6008737564086913
0.5200584411621093,0.6086517333984375
0.5200584411621093,0.6086517333984375
0.5111509323120117,0.6087478637695313
0.5111509323120117,0.6087478637695313
0.5175006866455077,0.6067571640014648
0.5175006866455077,0.6067571640014648
0.5192207336425781,0.6144527435302735
0.5192207336425781,0.6144527435302735
0.5146579742431641,0.6059640884399414
0.5146579742431641,0.6059640884399414
0.5225263595581054,0.6139451980590820
0.5225263595581054,0.6139451980590820
0.5134952545166015,0.6141231536865234
0.5134952545166015,0.6141231536865234
0.5198713302612304,0.6122777938842773
0.5198713302612304,0.6122777938842773
0.5215742111206054,0.6195619583129882
0.5215742111206054,0.6195619583129882
0.5169965744018554,0.6111368179321289
0.5169965744018554,0.6111368179321289
0.5247196197509766,0.6191013336181640
0.5247196197509766,0.6191013336181640
0.5157342910766601,0.6193416595458984
0.5157342910766601,0.6193416595458984
0.5219501495361328,0.6169040679931640
0.5219501495361328,0.6169040679931640
0.5236570358276367,0.6240961074829101
0.5236570358276367,0.6240961074829101
0.5189186096191406,0.6155204772949219
0.5189186096191406,0.6155204772949219
0.5266313552856445,0.6233985900878906
0.5266313552856445,0.6233985900878906
0.5175321578979492,0.6231256484985351
0.5175321578979492,0.6231256484985351
0.5236656188964843,0.6205518722534179
0.5236656188964843,0.6205518722534179
0.5252403259277344,0.6276014328002929
0.5252403259277344,0.6276014328002929
0.5202976226806640,0.6190252304077148
0.5202976226806640,0.6190252304077148
0.5279886245727539,0.6262676239013671
0.5279886245727539,0.6262676239013671
0.5188596725463867,0.6260187149047851
0.5188596725463867,0.6260187149047851
0.5249387741088867,0.6233179092407226
0.5249387741088867,0.6233179092407226
0.5266027450561523,0.6306037902832031
0.5266027450561523,0.6306037902832031
0.5215970993041992,0.6216997146606446
0.5215970993041992,0.6216997146606446
0.5293550491333008,0.6291355133056641
0.5293550491333008,0.6291355133056641
0.5202083587646484,0.6291635513305663
0.5202083587646484,0.6291635513305663
0.5263795852661133,0.6268095016479492
0.5263795852661133,0.6268095016479492
0.5280143737792968,0.6338596343994141
0.5280143737792968,0.6338596343994141
0.5232364654541015,0.6253274917602539
0.5232364654541015,0.6253274917602539
0.5308828353881836,0.6327066421508789
0.5308828353881836,0.6327066421508789
0.5215993881225586,0.6320600509643555
0.5215993881225586,0.6320600509643555
0.5268550872802734,0.6268409729003906
0.5268550872802734,0.6268409729003906
0.5265535354614258,0.6289627075195312
0.5265535354614258,0.6289627075195312
0.5187200546264649,0.6131772994995117
0.5197145462036132,0.6131772994995117
0.5228239059448242,0.6129066467285156
0.5228239059448242,0.6129066467285156
0.5104660034179688,0.6060825347900390
0.5104660034179688,0.6060825347900390
0.5139175415039062,0.5979240417480468
0.5139175415039062,0.5979240417480468
0.5135856628417969,0.6007656097412110
0.5135856628417969,0.6007656097412110
0.5070241928100586,0.5890462875366210
0.5070241928100586,0.5890462875366210
0.5134935379028320,0.5937875747680664
0.5134935379028320,0.5937875747680664
0.5036287307739258,0.5920600891113281
0.5036287307739258,0.5920600891113281
0.5090726852416992,0.5881513595581055
0.5090726852416992,0.5881513595581055
0.5104625701904296,0.5946052551269531
0.5104625701904296,0.5946052551269531
0.5052789688110352,0.5853790283203125
0.5052789688110352,0.5853790283203125
0.5130048751831054,0.5923553466796875
0.5130048751831054,0.5923553466796875
0.5036504745483398,0.5920635223388672
0.5134620666503906,0.5920635223388672
0.5096323013305664,0.5895046234130860
0.5096323013305664,0.5895046234130860
0.5115051269531250,0.5964397430419922
0.5115051269531250,0.5964397430419922
0.5065744400024413,0.5880203247070312
0.5095064163208007,0.5880203247070312
0.5144176483154297,0.5956884384155273
0.5144176483154297,0.5956884384155273
0.5055370330810547,0.5962646484374999
0.5055370330810547,0.5962646484374999
0.5118135452270508,0.5939437866210937
0.5118135452270508,0.5939437866210937
0.5140565872192383,0.6017955780029297
0.5151563644409179,0.5970949172973633
0.5172140121459960,0.6028175354003906
0.5172140121459960,0.6028175354003906
0.5116802215576172,0.5973707199096679
0.5116802215576172,0.5973707199096679
0.5177267074584960,0.6053443908691406
0.5177267074584960,0.6053443908691406
0.5091373443603515,0.5994518280029296
0.5091373443603515,0.5994518280029296
0.5174417495727539,0.6019866943359374
0.5174417495727539,0.6019866943359374
0.5132783889770508,0.6063331604003906
0.5132783889770508,0.6063331604003906
0.5131765365600586,0.5999158859252930
0.5131765365600586,0.5999158859252930
0.5185804367065430,0.6065299987792968
0.5185804367065430,0.6065299987792968
0.5097021102905274,0.6007364273071288
0.5097021102905274,0.6007364273071288
0.5177009582519531,0.6025691986083984
0.5177009582519531,0.6025691986083984
0.5136074066162110,0.6067319869995117
0.5136074066162110,0.6067319869995117
0.5132658004760742,0.6001304626464844
0.5132658004760742,0.6001304626464844
0.5190158843994140,0.6077539443969726
0.5190158843994140,0.6077539443969726
0.5101879119873046,0.6021160125732422
0.5101879119873046,0.6021160125732422
0.5185661315917969,0.6045049667358399
0.5119554519653320,0.6045049667358399
0.5146968841552734,0.6088651657104492
0.5146968841552734,0.6088651657104492
0.5145223617553710,0.6035270690917969
0.5145223617553710,0.6035270690917969
0.5206026077270508,0.6114767074584960
0.5206026077270508,0.6114767074584960
0.5121122360229492,0.6063108444213867
0.5121122360229492,0.6063108444213867
0.5203823089599610,0.6087450027465821
0.5203823089599610,0.6087450027465821
0.5168598175048827,0.6142576217651367
0.5168598175048827,0.6142576217651367
0.5168306350708007,0.6089052200317383
0.5168306350708007,0.6089052200317383
0.5230768203735351,0.6168233871459960
0.5230768203735351,0.6168233871459960
0.5144737243652343,0.6115465164184570
0.5144737243652343,0.6115465164184570
0.5228605270385742,0.6146467208862304
0.5228605270385742,0.6146467208862304
0.5193231582641601,0.6197238922119140
0.5193231582641601,0.6197238922119140
0.5193723678588867,0.6142210006713867
0.5193723678588867,0.6142210006713867
0.5254119873046875,0.6218238830566406
0.5254119873046875,0.6218238830566406
0.5166818618774414,0.6170911788940430
0.5166818618774414,0.6170911788940430
0.5251544952392578,0.6196598052978516
0.5251544952392578,0.6196598052978516
0.5216983795166016,0.6246442794799805
0.5216983795166016,0.6246442794799805
0.5212898254394531,0.6185583114624024
0.5212898254394531,0.6185583114624024
0.5273929595947265,0.6265439987182617
0.5273929595947265,0.6265439987182617
0.5187057495117188,0.6214313507080078
0.5187057495117188,0.6214313507080078
0.5271234512329102,0.6237213134765625
0.5271234512329102,0.6237213134765625
0.5232810974121094,0.6282423019409179
0.5232810974121094,0.6282423019409179
0.5230699539184570,0.6224967956542968
0.5230699539184570,0.6224967956542968
0.5290214538574218,0.6300333023071288
0.5290214538574218,0.6300333023071288
0.5201900482177734,0.6245195388793945
0.5201900482177734,0.6245195388793945
0.5283794403076172,0.6262401580810547
0.5283794403076172,0.6262401580810547
0.5244684219360352,0.6312406539916992
0.5244684219360352,0.6312406539916992
0.5242200851440429,0.6251604080200195
0.5242200851440429,0.6251604080200195
0.5302259445190429,0.6325063705444336
0.5302259445190429,0.6325063705444336
0.5212268829345703,0.6267831802368163
0.5212268829345703,0.6267831802368163
0.5294528961181640,0.6293174743652343
0.5294528961181640,0.6293174743652343
0.5257982254028321,0.6340702056884765
0.5257982254028321,0.6340702056884765
0.5255407333374024,0.6280935287475585
0.5255407333374024,0.6280935287475585
0.5313812255859375,0.6351888656616210
0.5313812255859375,0.6351888656616210
0.5225103378295898,0.6302461624145508
0.5225103378295898,0.6302461624145508
0.5309389114379882,0.6327203750610352
0.5309389114379882,0.6327203750610352
0.5275211334228516,0.6375989913940430
0.5275211334228516,0.6375989913940430
0.5268499374389648,0.6309688568115234
0.5268499374389648,0.6309688568115234
0.5324850082397461,0.6374158859252930
0.5324850082397461,0.6374158859252930
0.5223958969116210,0.6286863327026367
0.5223958969116210,0.6286863327026367
0.5283571243286133,0.6249458312988281
0.5202478408813477,0.6249458312988281
0.5213310241699218,0.6215337753295899
0.5213310241699218,0.6215337753295899
0.5172449111938476,0.6083209991455077
0.5172449111938476,0.6083209991455077
0.5204057693481445,0.6095724105834961
0.5204057693481445,0.6095724105834961
0.5091150283813476,0.5994077682495117
0.5091150283813476,0.5994077682495117
0.5155277252197266,0.5974983215332031
0.5155277252197266,0.5974983215332031
0.5106983184814453,0.5998661041259765
0.5106983184814453,0.5998661041259765
0.5093124389648437,0.5918546676635742
0.5093124389648437,0.5918546676635742
0.5146385192871094,0.5979446411132813
0.5146385192871094,0.5979446411132813
0.5053161621093750,0.5916795730590820
0.5140645980834960,0.5916795730590820
0.5133550643920898,0.5935609817504882
0.5133550643920898,0.5935609817504882
0.5097684860229492,0.5981706619262696
0.5097684860229492,0.5981706619262696
0.5093067169189452,0.5919588088989257
0.5093067169189452,0.5919588088989257
0.5152770996093750,0.5991748809814453
0.5152770996093750,0.5991748809814453
0.5064914703369140,0.5945222854614257
0.5064914703369140,0.5945222854614257
0.5148256301879882,0.5968740463256835
0.5148256301879882,0.5968740463256835
0.5117792129516602,0.6022413253784179
0.5117792129516602,0.6022413253784179
0.5113952636718749,0.5962778091430664
0.5113952636718749,0.5962778091430664
0.5176746368408203,0.6048345565795898
0.5176746368408203,0.6048345565795898
0.5092168807983398,0.6006626129150391
0.5092168807983398,0.6006626129150391
0.5178737640380859,0.6032793045043945
0.5178737640380859,0.6032793045043945
0.5147335052490234,0.6084131240844727
0.5147335052490234,0.6084131240844727
0.5142133712768554,0.6030927658081054
0.5142133712768554,0.6030927658081054
0.5205282211303711,0.6107482910156250
0.5205282211303711,0.6107482910156250
0.5115560531616211,0.6054948806762696
0.5115560531616211,0.6054948806762696
0.5196956634521485,0.6068372726440430
0.5196956634521485,0.6068372726440430
0.5161806106567383,0.6115488052368164
0.5161806106567383,0.6115488052368164
0.5152479171752929,0.6049118041992188
0.5152479171752929,0.6049118041992188
0.5211387634277344,0.6115482330322265
0.5211387634277344,0.6115482330322265
0.5118032455444336,0.6055017471313476
0.5118032455444336,0.6055017471313476
0.5197437286376952,0.6072114944458008
0.5197437286376952,0.6072114944458008
0.5162841796875000,0.6116100311279297
0.5162841796875000,0.6116100311279297
0.5154458999633789,0.6050233840942383
0.5154458999633789,0.6050233840942383
0.5213058471679687,0.6118743896484374
0.5213058471679687,0.6118743896484374
0.5121688842773438,0.6070095062255859
0.5121688842773438,0.6070095062255859
0.5204435348510742,0.6089675903320312
0.5204435348510742,0.6089675903320312
0.5173261642456054,0.6138982772827148
0.5173261642456054,0.6138982772827148
0.5165262222290039,0.6073791503906250
0.5165262222290039,0.6073791503906250
0.5228084564208985,0.6155530929565429
0.5228084564208985,0.6155530929565429
0.5138071060180663,0.6109376907348633
0.5138071060180663,0.6109376907348633
0.5223312377929688,0.6130817413330077
0.5223312377929688,0.6130817413330077
0.5191915512084960,0.6179025650024413
0.5191915512084960,0.6179025650024413
0.5185855865478516,0.6124254226684570
0.5185855865478516,0.6124254226684570
0.5249971389770508,0.6204654693603515
0.5249971389770508,0.6204654693603515
0.5161348342895508,0.6159404754638672
0.5161348342895508,0.6159404754638672
0.5245239257812500,0.6177881240844726
0.5245239257812500,0.6177881240844726
0.5215799331665039,0.6235216140747070
0.5215799331665039,0.6235216140747070
0.5209053039550781,0.6177309036254882
0.5209053039550781,0.6177309036254882
0.5274198532104492,0.6256198883056641
0.5274198532104492,0.6256198883056641
0.5182651519775391,0.6206880569458008
0.5182651519775391,0.6206880569458008
0.5267721176147461,0.6232040405273437
0.5267721176147461,0.6232040405273437
0.5237972259521484,0.6285324096679688
0.5237972259521484,0.6285324096679688
0.5231369018554687,0.6222661972045899
0.5231369018554687,0.6222661972045899
0.5293167114257812,0.6296710968017578
0.5293167114257812,0.6296710968017578
0.5201957702636718,0.6252719879150390
0.5201957702636718,0.6252719879150390
0.5284143447875976,0.6270561218261719
0.5284143447875976,0.6270561218261719
0.5256116867065429,0.6320629119873047
0.5256116867065429,0.6320629119873047
0.5245588302612304,0.6250888824462890
0.5245588302612304,0.6250888824462890
0.5305984497070312,0.6328868865966797
0.5305984497070312,0.6328868865966797
0.5215141296386718,0.6278451919555664
0.5215141296386718,0.6278451919555664
0.5296222686767578,0.6293678283691406
0.5232879638671875,0.6293678283691406
0.5264047622680664,0.6338979721069335
0.5264047622680664,0.6338979721069335
0.5254457473754882,0.6276260375976562
0.5231351852416992,0.6276260375976562
0.5317085266113281,0.6352025985717773
0.5317085266113281,0.6352025985717773
0.5225429534912109,0.6301374435424805
0.5225429534912109,0.6301374435424805
0.5305858612060547,0.6315765380859375
0.5305858612060547,0.6315765380859375
0.5275915145874023,0.6368579864501953
0.5275915145874023,0.6368579864501953
0.5266880035400391,0.6304321289062500
0.5266880035400391,0.6304321289062500
0.5330629348754883,0.6381174087524414
0.5330629348754883,0.6381174087524414
0.5238109588623047,0.6329561233520508
0.5238109588623047,0.6329561233520508
0.5321159362792969,0.6353530883789062
0.5321159362792969,0.6353530883789062
0.5292629241943360,0.6403604507446289
0.5292629241943360,0.6403604507446289
0.5279817581176758,0.6329973220825195
0.5279817581176758,0.6329973220825195
0.5332866668701172,0.6375881195068359
0.5332866668701172,0.6375881195068359
0.5221000671386719,0.6281547546386719
0.5221000671386719,0.6281547546386719
0.5275531768798828,0.6231382369995117
0.5275531768798828,0.6231382369995117
0.5214025497436523,0.6205266952514649
0.5214025497436523,0.6205266952514649
0.5170892715454102,0.6071399688720703
0.5170892715454102,0.6071399688720703
0.5207204818725586,0.6097864151000977
0.5207204818725586,0.6097864151000977
0.5096157073974609,0.6008531570434570
0.5096157073974609,0.6008531570434570
0.5164186477661132,0.5994443893432617
0.5095579147338867,0.5994443893432617
0.5124778747558594,0.6019603729248046
0.5124778747558594,0.6019603729248046
0.5106056213378906,0.5941852569580078
0.5106056213378906,0.5941852569580078
0.5164054870605469,0.6009080886840820
0.5164054870605469,0.6009080886840820
0.5069246292114258,0.5952060699462890
0.5069246292114258,0.5952060699462890
0.5149011611938477,0.5961599349975586
0.5149011611938477,0.5961599349975586
0.5119714736938477,0.6014081954956054
0.5119714736938477,0.6014081954956054
0.5108745574951171,0.5948129653930664
0.5108745574951171,0.5948129653930664
0.5172111511230468,0.6024890899658203
0.5172111511230468,0.6024890899658203
0.5079923629760742,0.5974514007568359
0.5079923629760742,0.5974514007568359
0.5162401199340820,0.5996252059936523
0.5162401199340820,0.5996252059936523
0.5138603210449219,0.6053123474121094
0.5138603210449219,0.6053123474121094
0.5130546569824218,0.5993511199951171
0.5130546569824218,0.5993511199951171
0.5195194244384765,0.6074586868286133
0.5195194244384765,0.6074586868286133
0.5107206344604492,0.6037553787231446
0.5107206344604492,0.6037553787231446
0.5134780883789062,0.6024192810058594
0.5134780883789062,0.6026990890502929
0.5134780883789062,0.6026990890502929
0.5216806411743163,0.6099552154541016
0.5216806411743163,0.6099552154541016
0.5135799407958984,0.6109199523925781
0.5135799407958984,0.6109199523925781
0.5182273864746093,0.6076984405517578
0.5182273864746093,0.6076984405517578
0.5209831237792969,0.6148773193359375
0.5209831237792969,0.6148773193359375
0.5150682449340820,0.6057643890380859
0.5150682449340820,0.6057643890380859
0.5228565216064452,0.6119859695434570
0.5162006378173828,0.6119859695434570
0.5143495559692383,0.6123538970947265
0.5229892730712891,0.6123538970947265
0.5186513900756836,0.6081624984741211
0.5128995895385742,0.6081624984741211
0.5212400436401367,0.6150884628295898
0.5205053329467774,0.6150884628295898
0.5152708053588867,0.6059823989868164
0.5191148757934571,0.6059823989868164
0.5231346130371094,0.6126068115234374
0.5165531158447265,0.6126068115234374
0.5147626876831054,0.6130668640136718
0.5147626876831054,0.6130668640136718
0.5191532135009765,0.6095203399658203
0.5191532135009765,0.6095203399658203
0.5220336914062500,0.6171512603759766
0.5220336914062500,0.6171512603759766
0.5162796020507813,0.6087181091308593
0.5162796020507813,0.6087181091308593
0.5242950439453125,0.6154775619506836
0.5180614471435546,0.6154775619506836
0.5163923263549804,0.6166362762451172
0.5163923263549804,0.6166362762451172
0.5208251953124999,0.6134187698364257
0.5208251953124999,0.6134187698364257
0.5238149642944335,0.6214668273925781
0.5238149642944335,0.6214668273925781
0.5182674407958984,0.6129901885986327
0.5182674407958984,0.6129901885986327
0.5263704299926758,0.6199974060058594
0.5263704299926758,0.6199974060058594
0.5184339523315430,0.6212974548339844
0.5184339523315430,0.6212974548339844
0.5230487823486328,0.6183649063110351
0.5230487823486328,0.6183649063110351
0.5259927749633789,0.6261240005493164
0.5259927749633789,0.6261240005493164
0.5203805923461914,0.6178276062011718
0.5203805923461914,0.6178276062011718
0.5285133361816406,0.6248703002929688
0.5285133361816406,0.6248703002929688
0.5206987380981445,0.6263946533203125
0.5206987380981445,0.6263946533203125
0.5251195907592773,0.6231376647949218
0.5251195907592773,0.6231376647949218
0.5282112121582031,0.6309356689453125
0.5282112121582031,0.6309356689453125
0.5225429534912109,0.6225929260253906
0.5225429534912109,0.6225929260253906
0.5305126190185546,0.6294977188110351
0.5305126190185546,0.6294977188110351
0.5225961685180663,0.6305677413940429
0.5225961685180663,0.6305677413940429
0.5269128799438476,0.6270830154418945
0.5269128799438476,0.6270830154418945
0.5299272537231445,0.6346824645996093
0.5299272537231445,0.6346824645996093
0.5240730285644531,0.6261262893676758
0.5240730285644531,0.6261262893676758
0.5319728851318359,0.6325229644775391
0.5319728851318359,0.6325229644775391
0.5239814758300781,0.6333681106567383
0.5239814758300781,0.6333681106567383
0.5280773162841796,0.6298416137695312
0.5280773162841796,0.6298416137695312
0.5310470581054687,0.6373300552368164
0.5310470581054687,0.6373300552368164
0.5250778198242188,0.6283212661743164
0.5250778198242188,0.6283212661743164
0.5330612182617187,0.6348810195922852
0.5330612182617187,0.6348810195922852
0.5249135971069335,0.6356317520141601
0.5249135971069335,0.6356317520141601
0.5291479110717773,0.6322975158691406
0.5291479110717773,0.6322975158691406
0.5321445465087891,0.6396085739135742
0.5321445465087891,0.6396085739135742
0.5262359619140625,0.6309305191040039
0.5262359619140625,0.6309305191040039
0.5342290878295898,0.6375595092773437
0.5342290878295898,0.6375595092773437
0.5262891769409179,0.6387697219848633
0.5262891769409179,0.6387697219848633
0.5304794311523438,0.6351596832275390
0.5304794311523438,0.6351596832275390
0.5335384368896484,0.6429233551025391
0.5335384368896484,0.6429233551025391
0.5276704788208008,0.6339385986328124
0.5276704788208008,0.6339385986328124
0.5352521896362304,0.6397167205810547
0.5352521896362304,0.6397167205810547
0.5263681411743164,0.6377248764038086
0.5263681411743164,0.6377248764038086
0.5284212112426757,0.6292379379272460
0.5284212112426757,0.6292379379272460
0.5287702560424804,0.6301420211791992
0.5287702560424804,0.6301420211791992
0.5194707870483398,0.6140836715698242
0.5194707870483398,0.6140836715698242
0.5244243621826171,0.6141077041625976
0.5244243621826171,0.6141077041625976
0.5139925003051757,0.6098470687866211
0.5139925003051757,0.6098470687866211
0.5159082412719727,0.6020210266113281
0.5159082412719727,0.6020210266113281
0.5176528930664063,0.6067869186401367
0.5176528930664063,0.6067869186401367
0.5106416702270508,0.5956632614135742
0.5106416702270508,0.5956632614135742
0.5179218292236328,0.6006208419799804
0.5179218292236328,0.6006208419799804
0.5096546173095703,0.6007198333740235
0.5096546173095703,0.6007198333740235
0.5132022857666015,0.5965650558471679
0.5132022857666015,0.5965650558471679
0.5163585662841796,0.6036930084228516
0.5163585662841796,0.6036930084228516
0.5103343963623047,0.5947591781616210
0.5103343963623047,0.5947591781616210
0.5181650161743164,0.6012559890747070
0.5181650161743164,0.6012559890747070
0.5104871749877929,0.6026681900024414
0.5104871749877929,0.6026681900024414
0.5144371032714844,0.5990346908569336
0.5144371032714844,0.5990346908569336
0.5178245544433594,0.6070821762084960
0.5158693313598632,0.6082122802734374
0.5158693313598632,0.6082122802734374
0.5144233703613281,0.6017154693603516
0.5144233703613281,0.6017154693603516
0.5213001251220702,0.6106327056884765
0.5213001251220702,0.6106327056884765
0.5122175216674805,0.6065340042114258
0.5122175216674805,0.6065340042114258
0.5203468322753906,0.6086471557617187
0.5203468322753906,0.6086471557617187
0.5188568115234374,0.6144155502319336
0.5188568115234374,0.6144155502319336
0.5171985626220703,0.6075782775878906
0.5171985626220703,0.6075782775878906
0.5235889434814452,0.6154512405395508
0.5235889434814452,0.6154512405395508
0.5142110824584961,0.6110647201538085
0.5142110824584961,0.6110647201538085
0.5220457077026367,0.6118183135986328
0.5220457077026367,0.6118183135986328
0.5201642990112304,0.6168193817138672
0.5201642990112304,0.6168193817138672
0.5178600311279297,0.6085973739624023
0.5178600311279297,0.6085973739624023
0.5241210937499999,0.6166013717651367
0.5241210937499999,0.6166013717651367
0.5145721435546875,0.6115934371948242
0.5145721435546875,0.6115934371948242
0.5223730087280273,0.6122703552246094
0.5223730087280273,0.6122703552246094
0.5203176498413086,0.6170368194580078
0.5241537094116211,0.6170368194580078
0.5182891845703125,0.6098373413085937
0.5182891845703125,0.6098373413085937
0.5247940063476563,0.6180999755859374
0.5247940063476563,0.6180999755859374
0.5154956817626953,0.6135120391845703
0.5154956817626953,0.6135120391845703
0.5233989715576172,0.6143074035644531
0.5233989715576172,0.6143074035644531
0.5216394424438476,0.6204385757446289
0.5216394424438476,0.6204385757446289
0.5197895050048827,0.6134445190429687
0.5197895050048827,0.6134445190429687
0.5265295028686523,0.6221277236938476
0.5265295028686523,0.6221277236938476
0.5171447753906250,0.6176559448242187
0.5171447753906250,0.6176559448242187
0.5254240036010742,0.6194246292114257
0.5254240036010742,0.6194246292114257
0.5239511489868164,0.6254081726074219
0.5239511489868164,0.6254081726074219
0.5220594406127930,0.6184083938598632
0.5220594406127930,0.6184083938598632
0.5287633895874023,0.6268363952636719
0.5287633895874023,0.6268363952636719
0.5193643569946289,0.6230123519897460
0.5193643569946289,0.6230123519897460
0.5276384353637695,0.6244897842407227
0.5276384353637695,0.6244897842407227
0.5262725830078124,0.6302146911621094
0.5262725830078124,0.6302146911621094
0.5240558624267578,0.6228246688842773
0.5240558624267578,0.6228246688842773
0.5308456420898438,0.6318420410156250
0.5308456420898438,0.6318420410156250
0.5214082717895507,0.6275939941406250
0.5214082717895507,0.6275939941406250
0.5295879364013671,0.6288105010986328
0.5295879364013671,0.6288105010986328
0.5279851913452148,0.6341714859008789
0.5279851913452148,0.6341714859008789
0.5258136749267578,0.6269588470458984
0.5258136749267578,0.6269588470458984
0.5324930191040039,0.6356695175170898
0.5324930191040039,0.6356695175170898
0.5231586456298828,0.6311388015747070
0.5231586456298828,0.6311388015747070
0.5309572219848633,0.6318162918090821
0.5309572219848633,0.6318162918090821
0.5295061111450196,0.6377586364746094
0.5295061111450196,0.6377586364746094
0.5272132873535156,0.6301322937011719
0.5272132873535156,0.6301322937011719
0.5339155197143555,0.6385580062866211
0.5339155197143555,0.6385580062866211
0.5242664337158203,0.6336101531982422
0.5242664337158203,0.6336101531982422
0.5321062088012695,0.6347803115844727
0.5321062088012695,0.6347803115844727
0.5306516647338867,0.6402431488037109
0.5306516647338867,0.6402431488037109
0.5283451080322266,0.6326105117797851
0.5283451080322266,0.6326105117797851
0.5349185943603515,0.6406505584716796
0.5349185943603515,0.6406505584716796
0.5252208709716797,0.6364648818969726
0.5252208709716797,0.6364648818969726
0.5332992553710937,0.6373317718505859
0.5274753570556641,0.6373317718505859
0.5319911956787109,0.6430034637451172
0.5319911956787109,0.6430034637451172
0.5295930862426758,0.6348501205444336
0.5295930862426758,0.6348501205444336
0.5362197875976562,0.6442090988159179
0.5362197875976562,0.6442090988159179
0.5265089035034179,0.6392755508422852
0.5265089035034179,0.6392755508422852
0.5351028442382812,0.6408050537109374
0.5351028442382812,0.6408050537109374
0.5330417633056640,0.6458948135375976
0.5330417633056640,0.6458948135375976
0.5308959960937499,0.6379491806030273
0.5308959960937499,0.6379491806030273
0.5367982864379882,0.6448722839355469
0.5367982864379882,0.6448722839355469
0.5256637573242188,0.6357124328613281
0.5256637573242188,0.6357124328613281
0.5314630508422852,0.6308544158935546
0.5314630508422852,0.6308544158935546
0.5262634277343750,0.6291378021240234
0.5262634277343750,0.6291378021240234
0.5210306167602539,0.6140058517456054
0.5210306167602539,0.6140058517456054
0.5247940063476563,0.6168588638305664
0.5247940063476563,0.6168588638305664
0.5127410888671875,0.6067554473876953
0.5127410888671875,0.6067554473876953
0.5189352035522461,0.6043024063110352
0.5189352035522461,0.6043024063110352
0.5164638519287109,0.6074020385742187
0.5164638519287109,0.6074020385742187
0.5130970001220703,0.5977478027343750
0.5130970001220703,0.5977478027343750
0.5190862655639649,0.6047945022583008
0.5190862655639649,0.6047945022583008
0.5091213226318360,0.5998083114624023
0.5091213226318360,0.5998083114624023
0.5168609619140625,0.6001264572143554
0.5168609619140625,0.6001264572143554
0.5156873703002930,0.6055984497070312
0.5156873703002930,0.6055984497070312
0.5128698348999023,0.5972751617431641
0.5128698348999023,0.5972751617431641
0.5196264266967773,0.6063858032226562
0.5196264266967773,0.6063858032226562
0.5102302551269531,0.6020450592041016
0.5102302551269531,0.6020450592041016
0.5183017730712890,0.6031648635864257
0.5183017730712890,0.6031648635864257
0.5172134399414062,0.6089424133300781
0.5206192016601562,0.6089424133300781
0.5147970199584960,0.6019889831542968
0.5147970199584960,0.6019889831542968
0.5220136642456055,0.6114131927490234
0.5220136642456055,0.6114131927490234
0.5128961563110351,0.6078037261962891
0.5128961563110351,0.6078037261962891
0.5157697677612304,0.6055944442749023
0.5157697677612304,0.6059766769409179
0.5239156723022461,0.6134445190429687
0.5171648025512695,0.6134445190429687
0.5169204711914063,0.6153224945068360
0.5169204711914063,0.6153224945068360
0.5199880599975586,0.6112243652343750
0.5199880599975586,0.6112243652343750
0.5239728927612305,0.6191854476928711
0.5239728927612305,0.6191854476928711
0.5175241470336914,0.6093835830688477
0.5175241470336914,0.6093835830688477
0.5261100769042969,0.6168725967407226
0.5261100769042969,0.6168725967407226
0.5171665191650391,0.6166992187500000
0.5171665191650391,0.6166992187500000
0.5212102890014648,0.6121152877807617
0.5212102890014648,0.6121152877807617
0.5243419647216797,0.6206228256225585
0.5243419647216797,0.6206228256225585
0.5172082901000976,0.6089664459228515
0.5172082901000976,0.6089664459228515
0.5266204833984375,0.6172348022460937
0.5266204833984375,0.6172348022460937
0.5174617767333984,0.6176353454589844
0.5174617767333984,0.6176353454589844
0.5209825515747070,0.6133443832397460
0.5209825515747070,0.6133443832397460
0.5250234603881836,0.6212882995605469
0.5250234603881836,0.6212882995605469
0.5185111999511719,0.6121770858764648
0.5185111999511719,0.6121770858764648
0.5264917373657226,0.6189239501953124
0.5264917373657226,0.6189239501953124
0.5194839477539063,0.6208894729614257
0.5194839477539063,0.6208894729614257
0.5222871780395507,0.6166213989257813
0.5222871780395507,0.6166213989257813
0.5266222000122071,0.6251466751098632
0.5266222000122071,0.6251466751098632
0.5203062057495117,0.6162002563476562
0.5203062057495117,0.6162002563476562
0.5283931732177735,0.6236017227172851
0.5283931732177735,0.6236017227172851
0.5216039657592774,0.6255128860473632
0.5216039657592774,0.6255128860473632
0.5245164871215821,0.6213603973388672
0.5192979812622071,0.6213603973388672
0.5286798477172852,0.6298467636108398
0.5286798477172852,0.6298467636108398
0.5224868774414062,0.6213060379028320
0.5224868774414062,0.6213060379028320
0.5304147720336914,0.6281639099121094
0.5304147720336914,0.6281639099121094
0.5236776351928710,0.6302610397338867
0.5236776351928710,0.6302610397338867
0.5263847351074219,0.6260255813598633
0.5263847351074219,0.6260255813598633
0.5306407928466796,0.6346035003662109
0.5306407928466796,0.6346035003662109
0.5243070602416992,0.6256141662597656
0.5243070602416992,0.6256141662597656
0.5322669982910156,0.6322957992553710
0.5322669982910156,0.6322957992553710
0.5254869461059570,0.6343299865722656
0.5254869461059570,0.6343299865722656
0.5280807495117187,0.6298822402954102
0.5280807495117187,0.6298822402954102
0.5321868896484375,0.6378982543945312
0.5321868896484375,0.6378982543945312
0.5259189605712891,0.6288642883300781
0.5259189605712891,0.6288642883300781
0.5336214065551758,0.6353776931762695
0.5336214065551758,0.6353776931762695
0.5267011642456054,0.6372854232788085
0.5267011642456054,0.6372854232788085
0.5292749404907227,0.6325412750244140
0.5292749404907227,0.6325412750244140
0.5333215713500976,0.6407981872558594
0.5333215713500976,0.6407981872558594
0.5267183303833007,0.6312669754028321
0.5267183303833007,0.6312669754028321
0.5345775604248046,0.6378089904785156
0.5345775604248046,0.6378089904785156
0.5277551651000977,0.6393030166625976
0.5277551651000977,0.6393030166625976
0.5302087783813476,0.6345834732055664
0.5302087783813476,0.6345834732055664
0.5343412399291992,0.6424129486083984
0.5343412399291992,0.6424129486083984
0.5278427124023437,0.6335186004638672
0.5278427124023437,0.6335186004638672
0.5354547500610352,0.6398820877075195
0.5354547500610352,0.6398820877075195
0.5287685394287109,0.6416759490966797
0.5287685394287109,0.6416759490966797
0.5311998367309571,0.6370084762573242
0.5311998367309571,0.6370084762573242
0.5353895187377929,0.6452980041503906
0.5353895187377929,0.6452980041503906
0.5289699554443359,0.6360946655273437
0.5289699554443359,0.6360946655273437
0.5367662429809570,0.6427064895629883
0.5367662429809570,0.6427064895629883
0.5300525665283203,0.6445318222045898
0.5300525665283203,0.6445318222045898
0.5321794509887695,0.6393321990966797
0.5321794509887695,0.6393321990966797
0.5356012344360351,0.6449621200561523
0.5356012344360351,0.6449621200561523
0.5277030944824218,0.6318969726562500
0.5319093704223633,0.6318969726562500
0.5328723907470703,0.6324216842651367
0.5328723907470703,0.6324216842651367
0.5232559204101562,0.6273073196411133
0.5232559204101562,0.6273073196411133
0.5224502563476562,0.6158088684082031
0.5224502563476562,0.6158088684082031
0.5241605758666992,0.6183042526245117
0.5241605758666992,0.6183042526245117
0.5155981063842773,0.6046445846557617
0.5202295303344726,0.6046445846557617
0.5215696334838867,0.6081024169921875
0.5215696334838867,0.6081024169921875
0.5139684677124023,0.6074146270751953
0.5139684677124023,0.6074146270751953
0.5155036926269531,0.6010889053344727
0.5155036926269531,0.6010889053344727
0.5192499160766602,0.6082431793212890
0.5192499160766602,0.6082431793212890
0.5125293731689453,0.5986095428466797
0.5125293731689453,0.5986095428466797
0.5200115203857422,0.6045158386230468
0.5200115203857422,0.6045158386230468
0.5135478973388672,0.6063966751098633
0.5135478973388672,0.6063966751098633
0.5157079696655273,0.6014688491821288
0.5157079696655273,0.6014688491821288
0.5200984954833984,0.6099386215209961
0.5200984954833984,0.6099386215209961
0.5138214111328124,0.6010173797607422
0.5138214111328124,0.6010173797607422
0.5215169906616210,0.6077745437622070
0.5215169906616210,0.6077745437622070
0.5153240203857422,0.6103551864624023
0.5153240203857422,0.6103551864624023
0.5177639007568359,0.6062376022338867
0.5177639007568359,0.6062376022338867
0.5224325180053710,0.6150781631469726
0.5224325180053710,0.6150781631469726
0.5164020538330077,0.6068487167358398
0.5164020538330077,0.6068487167358398
0.5241313934326172,0.6137460708618164
0.5241313934326172,0.6137460708618164
0.5180173873901367,0.6164674758911133
0.5180173873901367,0.6164674758911133
0.5203531265258788,0.6118812561035156
0.5203531265258788,0.6118812561035156
0.5248134613037109,0.6201215744018554
0.5248134613037109,0.6201215744018554
0.5183177947998047,0.6109743118286133
0.5183177947998047,0.6109743118286133
0.5256185531616211,0.6171129226684570
0.5256185531616211,0.6171129226684570
0.5192173004150390,0.6185697555541992
0.5192173004150390,0.6185697555541992
0.5211387634277344,0.6131498336791992
0.5211387634277344,0.6131498336791992
0.5251401901245117,0.6206731796264648
0.5251401901245117,0.6206731796264648
0.5184127807617187,0.6113365173339843
0.5184127807617187,0.6113365173339843
0.5257541656494140,0.6168994903564453
0.5257541656494140,0.6168994903564453
0.5193592071533203,0.6185909271240234
0.5193592071533203,0.6185909271240234
0.5211919784545899,0.6134336471557617
0.5211919784545899,0.6134336471557617
0.5255882263183593,0.6215360641479492
0.5255882263183593,0.6215360641479492
0.5190433502197266,0.6125507354736328
0.5190433502197266,0.6125507354736328
0.5264562606811524,0.6187797546386719
0.5264562606811524,0.6187797546386719
0.5202409744262695,0.6210342407226562
0.5202409744262695,0.6210342407226562
0.5223409652709960,0.6164011001586914
0.5223409652709960,0.6164011001586914
0.5268419265747070,0.6248210906982422
0.5268419265747070,0.6248210906982422
0.5206392288208007,0.6160188674926758
0.5206392288208007,0.6160188674926758
0.5280899047851563,0.6225666046142578
0.5213762283325195,0.6225666046142578
0.5219696044921874,0.6250940322875976
0.5219696044921874,0.6250940322875976
0.5241405487060546,0.6203973770141601
0.5241405487060546,0.6203973770141601
0.5288085937500000,0.6289741516113281
0.5288085937500000,0.6289741516113281
0.5223649978637696,0.6203704833984375
0.5223649978637696,0.6203704833984375
0.5300113677978515,0.6270229339599609
0.5300113677978515,0.6270229339599609
0.5240444183349610,0.6293615341186524
0.5240444183349610,0.6293615341186524
0.5260929107666016,0.6247518539428710
0.5260929107666016,0.6247518539428710
0.5307231903076172,0.6333606719970702
0.5285356521606445,0.6333606719970702
0.5242006301879882,0.6248502731323242
0.5242006301879882,0.6248502731323242
0.5318195343017578,0.6312383651733399
0.5318195343017578,0.6312383651733399
0.5259155273437500,0.6336662292480468
0.5259155273437500,0.6336662292480468
0.5278821945190429,0.6287572860717773
0.5278821945190429,0.6287572860717773
0.5324506759643555,0.6374290466308593
0.5324506759643555,0.6374290466308593
0.5259675979614258,0.6285638809204102
0.5259675979614258,0.6285638809204102
0.5334056854248047,0.6346784591674804
0.5334056854248047,0.6346784591674804
0.5273025512695312,0.6370433807373047
0.5273025512695312,0.6370433807373047
0.5292308807373046,0.6320451736450196
0.5247882843017578,0.6320451736450196
0.5337209701538086,0.6400829315185547
0.5337209701538086,0.6400829315185547
0.5270759582519531,0.6312103271484375
0.5270759582519531,0.6312103271484375
0.5343858718872070,0.6369386672973633
0.5343858718872070,0.6369386672973633
0.5283502578735352,0.6391977310180664
0.5283502578735352,0.6391977310180664
0.5299953460693360,0.6338041305541992
0.5299953460693360,0.6338041305541992
0.5345129013061524,0.6419414520263672
0.5345129013061524,0.6419414520263672
0.5278724670410156,0.6329996109008789
0.5278724670410156,0.6329996109008789
0.5351160049438476,0.6390541076660156
0.5351160049438476,0.6390541076660156
0.5291112899780274,0.6411769866943359
0.5291112899780274,0.6411769866943359
0.5310682296752930,0.6359882354736328
0.5310682296752930,0.6359882354736328
0.5354885101318360,0.6442153930664062
0.5354885101318360,0.6442153930664062
0.5289333343505859,0.6356208801269531
0.5289333343505859,0.6356208801269531
0.5362724304199219,0.6415300369262695
0.5296686172485351,0.6415300369262695
0.5304679870605469,0.6439126968383789
0.5304679870605469,0.6439126968383789
0.5321771621704101,0.6387800216674805
0.5321771621704101,0.6387800216674805
0.5365144729614257,0.6466815948486327
0.5365144729614257,0.6466815948486327
0.5293762207031250,0.6358949661254882
0.5293762207031250,0.6358949661254882
0.5353237152099609,0.6383199691772461
0.5353237152099609,0.6383199691772461
0.5273002624511719,0.6352643966674805
0.5273002624511719,0.6352643966674805
0.5262405395507812,0.6233762741088867
0.5262405395507812,0.6233762741088867
0.5278535842895508,0.6249006271362304
0.5278535842895508,0.6249006271362304
0.5184906005859374,0.6103391647338867
0.5184906005859374,0.6103391647338867
0.5235603332519531,0.6115894317626953
0.5235603332519531,0.6115894317626953
0.5160558700561523,0.6103700637817383
0.5160558700561523,0.6103700637817383
0.5164752960205078,0.6023117065429687
0.5164752960205078,0.6023117065429687
0.5202604293823242,0.6089979171752929
0.5202604293823242,0.6089979171752929
0.5128103256225586,0.5985849380493163
0.5128103256225586,0.5985849380493163
0.5199645996093750,0.6040048599243164
0.5199645996093750,0.6040048599243164
0.5139146804809570,0.6057483673095703
0.5139146804809570,0.6057483673095703
0.5154796600341797,0.6000028610229492
0.5154796600341797,0.6000028610229492
0.5199949264526367,0.6085699081420898
0.5199949264526367,0.6085699081420898
0.5132886886596679,0.5993139266967773
0.5132886886596679,0.5993139266967773
0.5209836959838867,0.6058090209960937
0.5209836959838867,0.6058090209960937
0.5148874282836914,0.6080783843994141
0.5148874282836914,0.6080783843994141
0.5168975830078125,0.6031528472900390
0.5168975830078125,0.6031528472900390
0.5226539611816406,0.6137992858886718
0.5226539611816406,0.6137992858886718
0.5206850051879882,0.6151193618774414
0.5241170883178711,0.6151193618774414
0.5160478591918946,0.6034475326538086
0.5160478591918946,0.6034475326538086
0.5259956359863281,0.6159954071044922
0.5259956359863281,0.6159954071044922
0.5140777587890625,0.6116477966308593
0.5140777587890625,0.6116477966308593
0.5232776641845703,0.6113628387451172
0.5232776641845703,0.6113628387451172
0.5227655410766602,0.6195459365844727
0.5227655410766602,0.6195459365844727
0.5178949356079101,0.6078987121582031
0.5178949356079101,0.6078987121582031
0.5275119781494141,0.6191253662109375
0.5275119781494141,0.6191253662109375
0.5153703689575195,0.6138462066650391
0.5153703689575195,0.6138462066650391
0.5237571716308593,0.6124551773071288
0.5237571716308593,0.6124551773071288
0.5231391906738281,0.6207790374755859
0.5231391906738281,0.6207790374755859
0.5189146041870117,0.6091747283935547
0.5189146041870117,0.6091747283935547
0.5268156051635742,0.6188678741455078
0.5268156051635742,0.6188678741455078
0.5158481597900391,0.6135932922363281
0.5158481597900391,0.6135932922363281
0.5241308212280273,0.6140687942504882
0.5241308212280273,0.6140687942504882
0.5230997085571288,0.6207979202270507
0.5230997085571288,0.6207979202270507
0.5196767807006836,0.6104227066040039
0.5196767807006836,0.6104227066040039
0.5276676177978515,0.6206754684448242
0.5276676177978515,0.6206754684448242
0.5169078826904296,0.6163146972656249
0.5169078826904296,0.6163146972656249
0.5253696441650391,0.6169647216796875
0.5253696441650391,0.6169647216796875
0.5245771408081055,0.6241384506225586
0.5245771408081055,0.6241384506225586
0.5210603713989258,0.6136310577392577
0.5210603713989258,0.6136310577392577
0.5293659210205078,0.6248016357421875
0.5293659210205078,0.6248016357421875
0.5185930252075195,0.6205701828002930
0.5185930252075195,0.6205701828002930
0.5272722244262695,0.6211858749389648
0.5272722244262695,0.6211858749389648
0.5263635635375976,0.6283075332641601
0.5298248291015625,0.6283075332641601
0.5231025695800781,0.6187065124511718
0.5231025695800781,0.6187065124511718
0.5312255859375000,0.6294267654418945
0.5312255859375000,0.6294267654418945
0.5208852767944335,0.6252490997314453
0.5208852767944335,0.6252490997314453
0.5290603637695312,0.6254070281982421
0.5290603637695312,0.6254070281982421
0.5282175064086914,0.6328725814819336
0.5282175064086914,0.6328725814819336
0.5249582290649414,0.6229757308959961
0.5249582290649414,0.6229757308959961
0.5332363128662109,0.6334739685058594
0.5332363128662109,0.6334739685058594
0.5225990295410156,0.6292556762695313
0.5225990295410156,0.6292556762695313
0.5308004379272461,0.6298353195190429
0.5308004379272461,0.6298353195190429
0.5300388336181641,0.6369329452514648
0.5300388336181641,0.6369329452514648
0.5267028808593750,0.6266664505004883
0.5267028808593750,0.6266664505004883
0.5346960067749024,0.6366342544555664
0.5346960067749024,0.6366342544555664
0.5239814758300781,0.6327907562255859
0.5239814758300781,0.6327907562255859
0.5322149276733398,0.6328536987304687
0.5322149276733398,0.6328536987304687
0.5315969467163085,0.6397035598754882
0.5315969467163085,0.6397035598754882
0.5278072357177734,0.6289529800415039
0.5278072357177734,0.6289529800415039
0.5356842041015625,0.6394632339477538
0.5356842041015625,0.6394632339477538
0.5251155853271484,0.6351797103881835
0.5251155853271484,0.6351797103881835
0.5332059860229492,0.6349554061889648
0.5332059860229492,0.6349554061889648
0.5322738647460937,0.6414842605590820
0.5322738647460937,0.6414842605590820
0.5286930084228515,0.6313596725463867
0.5286930084228515,0.6313596725463867
0.5366878509521484,0.6415763854980469
0.5366878509521484,0.6415763854980469
0.5262863159179687,0.6374147415161132
0.5262863159179687,0.6374147415161132
0.5340248107910156,0.6369535446166992
0.5340248107910156,0.6369535446166992
0.5333885192871094,0.6442480087280273
0.5333885192871094,0.6442480087280273
0.5297676086425781,0.6339820861816406
0.5297676086425781,0.6339820861816406
0.5379833221435547,0.6441890716552734
0.5379833221435547,0.6441890716552734
0.5272436141967773,0.6398889541625976
0.5272436141967773,0.6398889541625976
0.5351543426513672,0.6399490356445312
0.5351543426513672,0.6399490356445312
0.5343526840209961,0.6462856292724609
0.5343526840209961,0.6462856292724609
0.5302230834960937,0.6337194442749023
0.5302230834960937,0.6337194442749023
0.5365516662597656,0.6396297454833985
0.5365516662597656,0.6396297454833985
0.5235866546630860,0.6304023742675781
0.5235866546630860,0.6304023742675781
0.5286890029907226,0.6229785919189453
0.5286890029907226,0.6229785919189453
0.5251281738281249,0.6232280731201172
0.5251281738281249,0.6232280731201172
0.5186285018920899,0.6066261291503906
0.5186285018920899,0.6066261291503906
0.5244804382324219,0.6125570297241211
0.5244804382324219,0.6125570297241211
0.5123531341552734,0.6051807403564453
0.5123531341552734,0.6051807403564453
0.5191228866577148,0.6020914077758789
0.5191228866577148,0.6020914077758789
0.5175590515136719,0.6069557189941406
0.5175590515136719,0.6069557189941406
0.5132915496826171,0.5954641342163086
0.5132915496826171,0.5954641342163086
0.5211439132690430,0.6049306869506835
0.5211439132690430,0.6049306869506835
0.5101850509643554,0.6005504608154296
0.5101850509643554,0.6005504608154296
0.5179475784301758,0.5993127822875977
0.5179475784301758,0.5993127822875977
0.5171911239624023,0.6066009521484375
0.5171911239624023,0.6066009521484375
0.5134311676025390,0.5955465316772460
0.5134311676025390,0.5955465316772460
0.5221944808959961,0.6061866760253906
0.5221944808959961,0.6061866760253906
0.5105438232421875,0.6022315979003906
0.5105438232421875,0.6022315979003906
0.5190462112426758,0.6017698287963867
0.5190462112426758,0.6017698287963867
0.5191389083862304,0.6102916717529296
0.5191389083862304,0.6102916717529296
0.5148422241210937,0.5991886138916015
0.5148422241210937,0.5991886138916015
0.5240924835205077,0.6104753494262695
0.5240924835205077,0.6104753494262695
0.5126020431518554,0.6077854156494140
0.5248014450073242,0.6077854156494140
0.5215650558471679,0.6074277877807617
0.5215650558471679,0.6074277877807617
0.5213636398315430,0.6153774261474609
0.5213636398315430,0.6153774261474609
0.5173645019531250,0.6044059753417969
0.5173645019531250,0.6044059753417969
0.5259172439575195,0.6152853012084961
0.5259172439575195,0.6152853012084961
0.5148839950561523,0.6116094589233398
0.5148839950561523,0.6116094589233398
0.5230493545532227,0.6106149673461914
0.5230493545532227,0.6106149673461914
0.5222654342651367,0.6171695709228515
0.5222654342651367,0.6171695709228515
0.5181701660156249,0.6062318801879882
0.5181701660156249,0.6062318801879882
0.5262800216674804,0.6160772323608398
0.5262800216674804,0.6160772323608398
0.5153474807739258,0.6122314453125000
0.5153474807739258,0.6122314453125000
0.5231981277465820,0.6106618881225586
0.5231981277465820,0.6106618881225586
0.5225955963134765,0.6180564880371093
0.5225955963134765,0.6180564880371093
0.5186920166015625,0.6071937561035156
0.5186920166015625,0.6071937561035156
0.5270696640014648,0.6173984527587890
0.5270696640014648,0.6173984527587890
0.5159912109375000,0.6137157440185547
0.5159912109375000,0.6137157440185547
0.5240655899047851,0.6133907318115234
0.5240655899047851,0.6133907318115234
0.5238641738891602,0.6209421157836914
0.5238641738891602,0.6209421157836914
0.5201002120971679,0.6104530334472656
0.5201002120971679,0.6104530334472656
0.5284200668334961,0.6208065032958984
0.5284200668334961,0.6208065032958984
0.5175859451293945,0.6182235717773438
0.5175859451293945,0.6182235717773438
0.5258211135864258,0.6177829742431641
0.5258211135864258,0.6177829742431641
0.5259263992309570,0.6255455017089844
0.5259263992309570,0.6255455017089844
0.5219146728515625,0.6149065017700195
0.5219146728515625,0.6149065017700195
0.5305051803588867,0.6258367538452149
0.5305051803588867,0.6258367538452149
0.5194913864135742,0.6230781555175781
0.5194913864135742,0.6230781555175781
0.5280624389648437,0.6222885131835937
0.5280624389648437,0.6222885131835937
0.5277791976928711,0.6297145843505859
0.5277791976928711,0.6297145843505859
0.5237514495849609,0.6195585250854492
0.5237514495849609,0.6195585250854492
0.5323202133178710,0.6302501678466796
0.5323202133178710,0.6302501678466796
0.5215942382812500,0.6273159027099610
0.5215942382812500,0.6273159027099610
0.5296325683593750,0.6260358810424804
0.5296325683593750,0.6260358810424804
0.5293767929077148,0.6341520309448242
0.5293767929077148,0.6341520309448242
0.5253942489624023,0.6235651016235352
0.5253942489624023,0.6235651016235352
0.5341112136840820,0.6339168548583984
0.5341112136840820,0.6339168548583984
0.5228851318359374,0.6306907653808593
0.5228851318359374,0.6306907653808593
0.5310316085815430,0.6299234390258789
0.5310316085815430,0.6299234390258789
0.5311065673828125,0.6377952575683593
0.5311065673828125,0.6377952575683593
0.5267681121826172,0.6262630462646485
0.5267681121826172,0.6262630462646485
0.5355457305908203,0.6366348266601562
0.5355457305908203,0.6366348266601562
0.5235248565673828,0.6341108322143555
0.5235248565673828,0.6341108322143555
0.5322092056274413,0.6320199966430664
0.5322092056274413,0.6320199966430664
0.5325588226318360,0.6405469894409179
0.5325588226318360,0.6405469894409179
0.5270547866821289,0.6279722213745117
0.5270547866821289,0.6279722213745117
0.5366392135620117,0.6391365051269531
0.5366392135620117,0.6391365051269531
0.5247030258178711,0.6361965179443360
0.5247030258178711,0.6361965179443360
0.5331916809082031,0.6341463088989258
0.5331916809082031,0.6341463088989258
0.5333656311035156,0.6424278259277344
0.5333656311035156,0.6424278259277344
0.5278982162475586,0.6303600311279297
0.5278982162475586,0.6303600311279297
0.5377676010131835,0.6414207458496094
0.5377676010131835,0.6414207458496094
0.5255619049072265,0.6388303756713867
0.5255619049072265,0.6388303756713867
0.5339029312133788,0.6359167098999023
0.5339029312133788,0.6359167098999023
0.5346336364746094,0.6455411911010742
0.5346336364746094,0.6455411911010742
0.5289356231689453,0.6332410812377930
0.5289356231689453,0.6332410812377930
0.5390739440917969,0.6438903808593750
0.5390739440917969,0.6438903808593750
0.5262153625488281,0.6401126861572265
0.5262153625488281,0.6401126861572265
0.5336740493774413,0.6350475311279297
0.5336740493774413,0.6350475311279297
0.5327831268310547,0.6396314620971679
0.5327831268310547,0.6396314620971679
0.5245262145996094,0.6208425521850586
0.5245262145996094,0.6208425521850586
0.5312702178955078,0.6243066787719727
0.5312702178955078,0.6243066787719727
0.5160335540771485,0.6158689498901367
0.5160335540771485,0.6158689498901367
0.5219861984252929,0.6076852798461914
0.5219861984252929,0.6076852798461914
0.5211530685424804,0.6126256942749023
0.5211530685424804,0.6126256942749023
0.5136079788208008,0.5967029571533203
0.5136079788208008,0.5967029571533203
0.5225469589233398,0.6056739807128906
0.5225469589233398,0.6056739807128906
0.5095756530761718,0.6019758224487305
0.5095756530761718,0.6019758224487305
0.5176546096801757,0.5980316162109375
0.5176546096801757,0.5980316162109375
0.5181369781494141,0.6062038421630859
0.5181369781494141,0.6062038421630859
0.5120063781738281,0.5936616897583008
0.5120063781738281,0.5936616897583008
0.5220079421997070,0.6041925430297851
0.5220079421997070,0.6041925430297851
0.5097267150878906,0.6019632339477539
0.5097267150878906,0.6019632339477539
0.5107955932617188,0.5977684020996094
0.5107955932617188,0.5977684020996094
0.5124258041381836,0.6026750564575195
0.5132537841796875,0.6026750564575195
0.5152421951293945,0.6078266143798828
0.5152421951293945,0.6078266143798828
0.5162246704101562,0.5999164581298828
0.5162246704101562,0.5999164581298828
0.5233451843261718,0.6115636825561523
0.5233451843261718,0.6115636825561523
0.5127267837524414,0.6026870727539062
0.5127267837524414,0.6026870727539062
0.5241170883178711,0.6077070236206055
0.5241170883178711,0.6077070236206055
0.5176162719726562,0.6131555557250976
0.5176162719726562,0.6131555557250976
0.5184024810791016,0.6052539825439452
0.5184024810791016,0.6052539825439452
0.5253227233886718,0.6167112350463867
0.5253227233886718,0.6167112350463867
0.5148073196411133,0.6067691802978515
0.5245399475097656,0.6067691802978515
0.5253862380981446,0.6114789962768554
0.5253862380981446,0.6114789962768554
0.5185701370239257,0.6149282455444336
0.5185701370239257,0.6149282455444336
0.5198020935058594,0.6078907012939453
0.5198020935058594,0.6078907012939453
0.5250732421875000,0.6167587280273438
0.5250732421875000,0.6167587280273438
0.5156352996826171,0.6074964523315429
0.5156352996826171,0.6074964523315429
0.5252969741821288,0.6115694046020508
0.5252969741821288,0.6115694046020508
0.5187274932861328,0.6150890350341797
0.5187274932861328,0.6150890350341797
0.5199205398559570,0.6081653594970703
0.5199205398559570,0.6081653594970703
0.5253192901611328,0.6172903060913085
0.5253192901611328,0.6172903060913085
0.5161062240600586,0.6088148117065429
0.5161062240600586,0.6088148117065429
0.5258474349975586,0.6133129119873046
0.5258474349975586,0.6133129119873046
0.5196710586547851,0.6171667098999023
0.5196710586547851,0.6171667098999023
0.5210552215576172,0.6108295440673828
0.5210552215576172,0.6108295440673828
0.5265529632568359,0.6204156875610352
0.5265529632568359,0.6204156875610352
0.5174955368041992,0.6124786376953125
0.5174955368041992,0.6124786376953125
0.5274570465087890,0.6170591354370117
0.5274570465087890,0.6170591354370117
