REDsignal,IRsignal
0.3722740173339844,0.5481760025024414
0.3835716247558594,0.5471351623535156
0.3835716247558594,0.5471351623535156
0.3791524887084961,0.5535810470581054
0.3791524887084961,0.5535810470581054
0.3750349044799804,0.5395843505859375
0.3750349044799804,0.5395843505859375
0.3842977523803711,0.5518117904663086
0.3842977523803711,0.5518117904663086
0.3695755004882812,0.5430908203125000
0.3695755004882812,0.5430908203125000
0.3812850952148437,0.5428367614746094
0.3812850952148437,0.5428367614746094
0.3773694992065429,0.5496934890747071
0.3773694992065429,0.5496934890747071
0.3734132766723633,0.5360818862915039
0.3734132766723633,0.5360818862915039
0.3827024459838867,0.5481828689575196
0.3827024459838867,0.5481828689575196
0.3682897567749023,0.5401330947875976
0.3682897567749023,0.5401330947875976
0.3799306869506836,0.5400232315063477
0.3799306869506836,0.5400232315063477
0.3761547088623047,0.5471477508544922
0.3761547088623047,0.5471477508544922
0.3722620010375977,0.5335796356201171
0.3722620010375977,0.5335796356201171
0.3816576004028320,0.5463483810424804
0.3816576004028320,0.5463483810424804
0.3672855377197266,0.5385692596435546
0.3672855377197266,0.5385692596435546
0.3791685104370117,0.5385028839111328
0.3791685104370117,0.5385028839111328
0.3755956649780273,0.5458814620971679
0.3755956649780273,0.5458814620971679
0.3716892242431640,0.5330108642578125
0.3716892242431640,0.5330108642578125
0.3814985275268555,0.5461263656616211
0.3814985275268555,0.5461263656616211
0.3673370361328125,0.5387540817260742
0.3673370361328125,0.5387540817260742
0.3790626525878906,0.5385555267333985
0.3790626525878906,0.5385555267333985
0.3756563186645508,0.5462779998779297
0.3756563186645508,0.5462779998779297
0.3716022491455078,0.5331024169921875
0.3716022491455078,0.5331024169921875
0.3814144134521484,0.5459215164184570
0.3814144134521484,0.5459215164184570
0.3671550750732422,0.5385578155517577
0.3671550750732422,0.5385578155517577
0.3790626525878906,0.5386871337890625
0.3790626525878906,0.5386871337890625
0.3759258270263672,0.5468204498291015
0.3759258270263672,0.5468204498291015
0.3720806121826172,0.5336202621459961
0.3720806121826172,0.5336202621459961
0.3752317428588867,0.5346473693847656
0.3752317428588867,0.5346473693847656
0.3752317428588867,0.5348773956298828
0.3797533035278320,0.5475769042968750
0.3794935226440430,0.5475769042968750
0.3696556091308594,0.5342611312866211
0.3768453598022461,0.5342611312866211
0.3818590164184570,0.5428476333618164
0.3709808349609375,0.5428476333618164
0.3715919494628906,0.5440881729125976
0.3835075378417969,0.5440881729125976
0.3757209777832031,0.5361059188842773
0.3664140701293945,0.5361059188842773
0.3804296493530273,0.5488214492797852
0.3801029205322266,0.5488214492797852
0.3701740264892578,0.5357849121093750
0.3775817871093750,0.5357849121093750
0.3826435089111328,0.5444555282592773
0.3716772079467773,0.5444555282592773
0.3723054885864258,0.5462602615356446
0.3841089248657226,0.5462602615356446
0.3762336730957031,0.5379896163940430
0.3672569274902344,0.5379896163940430
0.3812181472778320,0.5511182785034180
0.3808519363403320,0.5511182785034180
0.3711181640625000,0.5383575439453124
0.3787227630615234,0.5383575439453124
0.3836757659912109,0.5470630645751953
0.3727043151855469,0.5470630645751953
0.3734905242919922,0.5487401962280273
0.3853385925292969,0.5487401962280273
0.3773889541625977,0.5404312133789062
0.3682394027709961,0.5404312133789062
0.3823797225952149,0.5534288406372070
0.3818624496459961,0.5534288406372070
0.3719541549682617,0.5408248901367188
0.3796113967895507,0.5408248901367188
0.3846834182739258,0.5489336013793945
0.3736513137817383,0.5489336013793945
0.3743219375610352,0.5507194519042968
0.3861757278442383,0.5507194519042968
0.3780744552612305,0.5418136596679687
0.3688899993896484,0.5418136596679687
0.3828346252441406,0.5539398193359375
0.3819826126098633,0.5539398193359375
0.3718517303466797,0.5398332595825195
0.3793996810913086,0.5398332595825195
0.3838846206665039,0.5465944290161132
0.3722711563110351,0.5465944290161132
0.3729417800903320,0.5469457626342773
0.3843864440917968,0.5469457626342773
0.3759859085083008,0.5372360229492187
0.3666252136230468,0.5372360229492187
0.3805892944335937,0.5487527847290039
0.3796371459960937,0.5487527847290039
0.3694169998168945,0.5349454879760742
0.3771463394165039,0.5349454879760742
0.3817274093627930,0.5419767379760742
0.3702432632446289,0.5419767379760742
0.3709327697753906,0.5429328918457031
0.3825891494750976,0.5429328918457031
0.3743007659912109,0.5336528778076172
0.3652433395385742,0.5336528778076172
0.3791547775268554,0.5458642959594726
0.3784143447875977,0.5458642959594726
0.3684276580810547,0.5326469421386718
0.3761713027954102,0.5326469421386718
0.3808341979980469,0.5400484085083007
0.3695085525512695,0.5400484085083007
0.3704698562622070,0.5415979385375976
0.3821651458740234,0.5415979385375976
0.3739099502563477,0.5327316284179687
0.3648622512817383,0.5327316284179687
0.3789567947387695,0.5453756332397460
0.3781070709228516,0.5453756332397460
0.3681386947631836,0.5326297760009765
0.3760454177856445,0.5326297760009765
0.3807712554931640,0.5405015945434570
0.3696041107177734,0.5405015945434570
0.3704967498779297,0.5423881530761718
0.3822538375854492,0.5423881530761718
0.3741434097290039,0.5338256835937499
0.3652130126953125,0.5338256835937499
0.3794008255004883,0.5467609405517578
0.3787582397460937,0.5467609405517578
0.3688035964965820,0.5343286514282226
0.3769615173339844,0.5343286514282226
0.3816730499267578,0.5424316406249999
0.3704315185546875,0.5424316406249999
0.3715387344360351,0.5447135925292969
0.3832763671875000,0.5447135925292969
0.3752740859985351,0.5364761352539062
0.3664815902709961,0.5364761352539062
0.3807712554931640,0.5494869232177734
0.3799833297729492,0.5494869232177734
0.3700498580932617,0.5372451782226563
0.3782896041870117,0.5372451782226563
0.3829187393188476,0.5450563430786133
0.3717235565185547,0.5450563430786133
0.3728507995605468,0.5473039627075195
0.3845626831054688,0.5473039627075195
0.3764076232910156,0.5385858535766601
0.3689226150512695,0.5385858535766601
0.3817571640014648,0.5513208389282226
0.3808553695678711,0.5513208389282226
0.3709859848022461,0.5389629364013672
0.3792549133300781,0.5389629364013672
0.3838703155517578,0.5466876983642578
0.3725589752197265,0.5466876983642578
0.3737251281738281,0.5488534927368164
0.3854644775390625,0.5488534927368164
0.3772373199462891,0.5401142120361327
0.3683629989624023,0.5401142120361327
0.3827161788940430,0.5527416229248047
0.3816707611083984,0.5527416229248047
0.3718025207519531,0.5405027389526367
0.3802133560180664,0.5405027389526367
0.3846633911132812,0.5477571487426758
0.3735197067260742,0.5477571487426758
0.3746389389038086,0.5495424270629883
0.3861007690429688,0.5495424270629883
0.3779748916625976,0.5405084609985351
0.3691314697265625,0.5405084609985351
0.3833765029907226,0.5527702331542969
0.3821022033691406,0.5527702331542969
0.3721750259399414,0.5402189254760742
0.3741748809814453,0.5367382049560546
0.3749095916748047,0.5492351531982421
0.3863176345825195,0.5492351531982421
0.3780836105346679,0.5404312133789062
0.3693780899047852,0.5404312133789062
0.3837810516357422,0.5527044296264648
0.3825508117675781,0.5527044296264648
0.3725246429443359,0.5405158996582031
0.3808256149291992,0.5405158996582031
0.3853048324584961,0.5474006652832031
0.3739854812622070,0.5474006652832031
0.3752414703369141,0.5493438720703124
0.3866277694702148,0.5493438720703124
0.3782135009765625,0.5399236679077148
0.3696859359741211,0.5399236679077148
0.3837501525878906,0.5519514083862305
0.3824947357177734,0.5519514083862305
0.3725366592407227,0.5394315719604492
0.3810579299926758,0.5394315719604492
0.3853620529174804,0.5462860107421875
0.3740266799926757,0.5462860107421875
0.3754503250122070,0.5482521057128906
0.3866930007934570,0.5482521057128906
0.3781093597412109,0.5386259078979492
0.3693311691284180,0.5386259078979492
0.3834365844726562,0.5501323699951172
0.3816478729248047,0.5501323699951172
0.3714981079101562,0.5370958328247070
0.3796525955200195,0.5370958328247070
0.3836551666259765,0.5424253463745117
0.3721149444580078,0.5424253463745117
0.3732473373413086,0.5434621810913086
0.3841775894165039,0.5434621810913086
0.3752569198608398,0.5331756591796875
0.3666452407836914,0.5331756591796875
0.3806591033935547,0.5446472167968750
0.3789367675781250,0.5446472167968750
0.3688917160034180,0.5316518783569336
0.3773797988891601,0.5316518783569336
0.3812347412109375,0.5375089645385742
0.3696590423583984,0.5375089645385742
0.3709556579589844,0.5388954162597656
0.3819728851318359,0.5388954162597656
0.3733451843261719,0.5290225982666016
0.3647157669067383,0.5290225982666016
0.3787530899047851,0.5406520843505859
0.3772081375122070,0.5406520843505859
0.3670314788818359,0.5282381057739257
0.3756277084350586,0.5282381057739257
0.3797241210937500,0.5343481063842773
0.3682479858398438,0.5343481063842773
0.3698072433471680,0.5365625381469726
0.3807460784912109,0.5365625381469726
0.3722288131713867,0.5266513824462891
0.3637825012207031,0.5266513824462891
0.3778289794921875,0.5385366439819336
0.3761564254760742,0.5385366439819336
0.3661062240600586,0.5266141891479492
0.3748918533325195,0.5266141891479492
0.3788452148437500,0.5328701019287109
0.3674543380737305,0.5328701019287109
0.3690267562866211,0.5350427627563477
0.3800914764404297,0.5350427627563477
0.3714986801147461,0.5257347106933593
0.3631908416748047,0.5257347106933593
0.3774049758911133,0.5379421234130859
0.3757175445556640,0.5379421234130859
0.3658195495605469,0.5264207839965820
0.3746126174926758,0.5264207839965820
0.3787530899047851,0.5327327728271484
0.3675069808959961,0.5327327728271484
0.3691772460937500,0.5355056762695313
0.3801315307617187,0.5355056762695313
0.3717378616333007,0.5263910293579102
0.3635158538818359,0.5263910293579102
0.3777814865112304,0.5386253356933594
0.3761049270629883,0.5386253356933594
0.3660999298095703,0.5270839691162109
0.3752901077270508,0.5270839691162109
0.3792583465576172,0.5332489013671875
0.3678737640380859,0.5332489013671875
0.3696922302246093,0.5357568740844726
0.3806613922119140,0.5357568740844726
0.3720829010009766,0.5265621185302735
0.3640102386474609,0.5265621185302735
0.3782787322998047,0.5386888504028320
0.3765747070312500,0.5386888504028320
0.3665622711181640,0.5273054122924804
0.3756946563720703,0.5273054122924804
0.3796445846557617,0.5338188171386719
0.3683578491210938,0.5338188171386719
0.3703594207763672,0.5368738174438477
0.3813320159912109,0.5368738174438477
0.3728645324707031,0.5280035018920898
0.3649709701538086,0.5280035018920898
0.3791645050048828,0.5405542373657226
0.3773815155029297,0.5405542373657226
0.3675664901733398,0.5295021057128906
0.3767921447753906,0.5295021057128906
0.3806980133056641,0.5362014770507812
0.3694610595703125,0.5362014770507812
0.3715112686157226,0.5394012451171875
0.3824924468994140,0.5394012451171875
0.3738126754760742,0.5304685592651367
0.3659551620483398,0.5304685592651367
0.3802562713623047,0.5429420471191406
0.3782873153686523,0.5429420471191406
0.3683172225952148,0.5320501327514648
0.3776704788208008,0.5320501327514648
0.3814607620239258,0.5383443832397461
0.3703107833862305,0.5383443832397461
0.3723260879516602,0.5416528701782226
0.3831745147705078,0.5416528701782226
0.3745353698730469,0.5328889846801758
0.3669794082641601,0.5328889846801758
0.3810510635375977,0.5456903457641601
0.3791530609130859,0.5456903457641601
0.3693094253540039,0.5347240447998046
0.3788246154785156,0.5347240447998046
0.3825387954711914,0.5411167144775391
0.3713293075561523,0.5411167144775391
0.3736301422119140,0.5445653915405273
0.3845232009887695,0.5445653915405273
0.3756986618041992,0.5357637405395508
0.3680860519409180,0.5357637405395508
0.3824071884155273,0.5482120513916016
0.3802911758422852,0.5482120513916016
0.3703147888183594,0.5373373031616211
0.3799261093139648,0.5373373031616211
0.3835247039794922,0.5429803848266601
0.3720067977905273,0.5429803848266601
0.3741559982299805,0.5456657409667969
0.3846450805664062,0.5456657409667969
0.3755681991577148,0.5351503372192382
0.3677072525024414,0.5351503372192382
0.3814109802246093,0.5459552764892578
0.3787919998168945,0.5459552764892578
0.3685638427734375,0.5333570480346680
0.3777957916259765,0.5333570480346680
0.3809371948242187,0.5380050659179687
0.3691789627075195,0.5380050659179687
0.3712778091430664,0.5400518417358399
0.3817594528198242,0.5400518417358399
0.3726791381835937,0.5299335479736328
0.3649286270141601,0.5299335479736328
0.3788778305053711,0.5412872314453124
0.3764379501342773,0.5412872314453124
0.3664438247680664,0.5297624588012695
0.3759469985961914,0.5297624588012695
0.3792863845825195,0.5347549438476562
0.3678262710571289,0.5347549438476562
0.3700178146362305,0.5374288558959961
0.3805263519287109,0.5374288558959961
0.3717533111572265,0.5277339935302734
0.3641080856323242,0.5277339935302734
0.3781167984008789,0.5394916534423828
0.3755315780639648,0.5394916534423828
0.3657257080078125,0.5279314041137695
0.3755750656127930,0.5279314041137695
0.3786512374877929,0.5331808090209961
0.3671802520751953,0.5331808090209961
0.3696876525878906,0.5360395431518554
0.3801401138305664,0.5360395431518554
0.3710735321044922,0.5262582778930663
0.3636526107788086,0.5262582778930663
0.3777397155761719,0.5381269454956055
0.3752122879028320,0.5381269454956055
0.3653034210205078,0.5269426345825196
0.3752397537231445,0.5269426345825196
0.3784246444702148,0.5324415206909180
0.3671001434326172,0.5324415206909180
0.3697872161865234,0.5359594345092773
0.3803026199340820,0.5359594345092773
0.3653245925903320,0.5322458267211914
0.3653245925903320,0.5323265075683593
0.3756952285766602,0.5294122695922852
0.3756952285766602,0.5294122695922852
0.3752626419067382,0.5392210006713867
0.3752626419067382,0.5392210006713867
0.3679046630859375,0.5251567840576171
0.3679046630859375,0.5251567840576171
0.3806842803955078,0.5372377395629883
0.3806842803955078,0.5372377395629883
0.3659952163696289,0.5326223373413086
0.3659952163696289,0.5326223373413086
0.3761192321777344,0.5299129486083984
0.3761192321777344,0.5299129486083984
0.3758188247680664,0.5394659042358398
0.3758188247680664,0.5394659042358398
0.3683572769165039,0.5254909515380859
0.3683572769165039,0.5254909515380859
0.3808193206787109,0.5371868133544921
0.3808193206787109,0.5371868133544921
0.3663408279418945,0.5333330154418945
0.3663408279418945,0.5333330154418945
0.3764110565185547,0.5305343627929687
0.3764110565185547,0.5305343627929687
0.3764116287231445,0.5402824401855468
0.3764116287231445,0.5402824401855468
0.3689083099365234,0.5264293670654296
0.3689083099365234,0.5264293670654296
0.3816455841064453,0.5387655258178711
0.3816455841064453,0.5387655258178711
0.3672746658325195,0.5349546432495117
0.3672746658325195,0.5349546432495117
0.3774810791015625,0.5320621490478515
0.3664690017700195,0.5320621490478515
0.3772516250610352,0.5415910720825196
0.3772516250610352,0.5415910720825196
0.3696676254272461,0.5280818939208984
0.3696676254272461,0.5280818939208984
0.3824060440063476,0.5403957366943359
0.3824060440063476,0.5403957366943359
0.3683126449584961,0.5365779876708984
0.3683126449584961,0.5365779876708984
0.3781642913818359,0.5335115432739258
0.3781642913818359,0.5335115432739258
0.3782192230224609,0.5437047958374023
0.3782192230224609,0.5437047958374023
0.3706266403198242,0.5300331115722656
0.3706266403198242,0.5300331115722656
0.3835063934326172,0.5423349380493164
0.3835063934326172,0.5423349380493164
0.3691915512084961,0.5382951736450196
0.3691915512084961,0.5382951736450196
0.3791519165039062,0.5357666015625000
0.3791519165039062,0.5357666015625000
0.3791679382324218,0.5456445693969726
0.3791679382324218,0.5456445693969726
0.3716211318969727,0.5317634582519531
0.3716211318969727,0.5317634582519531
0.3841695785522461,0.5435451507568360
0.3841695785522461,0.5435451507568360
0.3696413040161133,0.5395030975341797
0.3696413040161133,0.5395030975341797
0.3791021347045898,0.5356401443481446
0.3791021347045898,0.5356401443481446
0.3786231994628906,0.5440984725952148
0.3786231994628906,0.5440984725952148
0.3701705932617188,0.5285934448242188
0.3701705932617188,0.5285934448242188
0.3821336746215820,0.5392747879028320
0.3821336746215820,0.5392747879028320
0.3671739578247070,0.5340270996093750
0.3671739578247070,0.5340270996093750
0.3762760162353516,0.5293813705444336
0.3762760162353516,0.5293813705444336
0.3756277084350586,0.5378305435180664
0.3756277084350586,0.5378305435180664
0.3672615051269531,0.5230024337768554
0.3672615051269531,0.5230024337768554
0.3796726226806640,0.5343097686767578
0.3796726226806640,0.5343097686767578
0.3651947021484375,0.5298076629638672
0.3651947021484375,0.5298076629638672
0.3744232177734375,0.5258571624755859
0.3744232177734375,0.5258571624755859
0.3745130538940429,0.5355274200439453
0.3745130538940429,0.5355274200439453
0.3663373947143554,0.5211948394775391
0.3663373947143554,0.5211948394775391
0.3790735244750976,0.5329450607299805
0.3790735244750976,0.5329450607299805
0.3646705627441406,0.5286220550537110
0.3646705627441406,0.5286220550537110
0.3738698959350586,0.5251888275146485
0.3738698959350586,0.5251888275146485
0.3741514205932617,0.5348070144653320
0.3741514205932617,0.5348070144653320
0.3661909103393555,0.5206644058227539
0.3661909103393555,0.5206644058227539
0.3787616729736328,0.5323322296142577
0.3787616729736328,0.5323322296142577
0.3647844314575195,0.5290208816528320
0.3647844314575195,0.5290208816528320
0.3739871978759766,0.5257404327392577
0.3739871978759766,0.5257404327392577
0.3745965957641602,0.5356275558471679
0.3745965957641602,0.5356275558471679
0.3666091918945312,0.5217453002929687
0.3666091918945312,0.5217453002929687
0.3794294357299804,0.5341466903686524
0.3794294357299804,0.5341466903686524
0.3655225753784180,0.5307804107666015
0.3655225753784180,0.5307804107666015
0.3749313354492188,0.5275108337402343
0.3749313354492188,0.5275108337402343
0.3752471923828125,0.5371467590332031
0.3752471923828125,0.5371467590332031
0.3673376083374023,0.5235139846801757
0.3673376083374023,0.5235139846801757
0.3799249649047852,0.5354656219482422
0.3799249649047852,0.5354656219482422
0.3662126541137695,0.5317817687988281
0.3662126541137695,0.5317817687988281
0.3751344680786133,0.5278644561767578
0.3751344680786133,0.5278644561767578
0.3755310058593750,0.5380004882812500
0.3755310058593750,0.5380004882812500
0.3674148559570312,0.5239820480346680
0.3674148559570312,0.5239820480346680
0.3800628662109375,0.5358758926391601
0.3800628662109375,0.5358758926391601
0.3661771774291992,0.5320209503173828
0.3661771774291992,0.5320209503173828
0.3751264572143554,0.5286186218261718
0.3751264572143554,0.5286186218261718
0.3756505966186524,0.5383638381958008
0.3756505966186524,0.5383638381958008
0.3676712036132813,0.5244237899780273
0.3676712036132813,0.5244237899780273
0.3801355361938477,0.5361648559570312
0.3801355361938477,0.5361648559570312
0.3665353775024414,0.5330200195312500
0.3665353775024414,0.5330200195312500
0.3755710601806641,0.5296468734741211
0.3755710601806641,0.5296468734741211
0.3763675689697266,0.5394933700561523
0.3763675689697266,0.5394933700561523
0.3681026458740234,0.5253919601440430
0.3681026458740234,0.5253919601440430
0.3808782577514648,0.5378734588623046
0.3808782577514648,0.5378734588623046
0.3673702239990234,0.5349317550659179
0.3673702239990234,0.5349317550659179
0.3764385223388672,0.5315265655517578
0.3764385223388672,0.5315265655517578
0.3771635055541992,0.5414028167724609
0.3771635055541992,0.5414028167724609
0.3691938400268555,0.5279623031616211
0.3720056533813477,0.5279623031616211
0.3819557189941406,0.5401720046997071
0.3819557189941406,0.5401720046997071
0.3684419631958007,0.5370288848876953
0.3684419631958007,0.5370288848876953
0.3771028518676758,0.5333410263061523
0.3771028518676758,0.5333410263061523
0.3781059265136719,0.5438873291015625
0.3781059265136719,0.5438873291015625
0.3697780609130859,0.5298986434936523
0.3697780609130859,0.5298986434936523
0.3827087402343750,0.5416351318359375
0.3827087402343750,0.5416351318359375
0.3687515258789062,0.5372680664062500
0.3687515258789062,0.5372680664062500
0.3768527984619141,0.5325187683105469
0.3768527984619141,0.5325187683105469
0.3771394729614257,0.5415487289428711
0.3771394729614257,0.5415487289428711
0.3681930541992187,0.5257530212402344
0.3681930541992187,0.5257530212402344
0.3800788879394531,0.5360990524291992
0.3800788879394531,0.5360990524291992
0.3659076690673828,0.5320043563842773
0.3659076690673828,0.5320043563842773
0.3738384246826172,0.5268236160278320
0.3738384246826172,0.5268236160278320
0.3745582580566406,0.5363027572631835
0.3745582580566406,0.5363027572631835
0.3655008316040039,0.5208847045898437
0.3655008316040039,0.5208847045898437
0.3780469894409180,0.5326721191406250
0.3780469894409180,0.5326721191406250
0.3641498565673828,0.5291318893432617
0.3641498565673828,0.5291318893432617
0.3725692749023438,0.5246829986572266
0.3725692749023438,0.5246829986572266
0.3734367370605469,0.5344396591186523
0.3734367370605469,0.5344396591186523
0.3648199081420898,0.5199096679687499
0.3648199081420898,0.5199096679687499
0.3773523330688476,0.5317222595214843
0.3773523330688476,0.5317222595214843
0.3638271331787109,0.5282318115234375
0.3638271331787109,0.5282318115234375
0.3719518661499023,0.5232965469360351
0.3719518661499023,0.5232965469360351
0.3729887008666992,0.5335842132568359
0.3729887008666992,0.5335842132568359
0.3642574310302734,0.5188505172729492
0.3642574310302734,0.5188505172729492
0.3770462036132812,0.5308542251586914
0.3770462036132812,0.5308542251586914
0.3635301589965820,0.5275686264038085
0.3635301589965820,0.5275686264038085
0.3718030929565430,0.5233011245727539
0.3718030929565430,0.5233011245727539
0.3732610702514648,0.5336168289184570
0.3732610702514648,0.5336168289184570
0.3648324966430664,0.5189483642578124
0.3648324966430664,0.5189483642578124
0.3774181365966797,0.5305377960205078
0.3774181365966797,0.5305377960205078
0.3639003753662109,0.5278472900390625
0.3639003753662109,0.5278472900390625
0.3721269607543945,0.5232810974121094
0.3721269607543945,0.5232810974121094
0.3736433029174804,0.5335281372070312
0.3736433029174804,0.5335281372070312
0.3646116256713867,0.5183973312377930
0.3646116256713867,0.5183973312377930
0.3773923873901367,0.5306854248046875
0.3773923873901367,0.5306854248046875
0.3641012191772461,0.5278238296508789
0.3641012191772461,0.5278238296508789
0.3724170684814453,0.5233726501464844
0.3724170684814453,0.5233726501464844
0.3738418579101562,0.5337776184082031
0.3738418579101562,0.5337776184082031
0.3651580810546875,0.5198553085327148
0.3687274932861328,0.5198553085327148
0.3779960632324219,0.5320930480957031
0.3779960632324219,0.5320930480957031
0.3650110244750976,0.5292778015136719
0.3650110244750976,0.5292778015136719
0.3729475021362305,0.5242938995361328
0.3729475021362305,0.5242938995361328
0.3744804382324219,0.5356115341186524
0.3744804382324219,0.5356115341186524
0.3658493041992187,0.5213378906250000
0.3658493041992187,0.5213378906250000
0.3791221618652343,0.5336391448974609
0.3791221618652343,0.5336391448974609
0.3658847808837891,0.5307254791259766
0.3658847808837891,0.5307254791259766
0.3738527297973633,0.5266307830810547
0.3738527297973633,0.5266307830810547
0.3756408691406250,0.5378196716308593
0.3756408691406250,0.5378196716308593
0.3673473358154297,0.5235042572021484
0.3673473358154297,0.5235042572021484
0.3799970626831055,0.5355216979980468
0.3799970626831055,0.5355216979980468
0.3671459197998047,0.5335327148437500
0.3671459197998047,0.5335327148437500
0.3751510620117187,0.5289487838745117
0.3751510620117187,0.5289487838745117
0.3770948410034179,0.5399871826171875
0.3770948410034179,0.5399871826171875
0.3681810379028320,0.5253335952758789
0.3681810379028320,0.5253335952758789
0.3810613632202148,0.5379249572753906
0.3810613632202148,0.5379249572753906
0.3681924819946289,0.5356121063232422
0.3681924819946289,0.5356121063232422
0.3762840270996093,0.5308725357055664
0.3762840270996093,0.5308725357055664
0.3778387069702148,0.5413656234741211
0.3778387069702148,0.5413656234741211
0.3687389373779297,0.5266216278076171
0.3687389373779297,0.5266216278076171
0.3810207366943359,0.5374597549438477
0.3810207366943359,0.5374597549438477
0.3674388885498047,0.5333810806274414
0.3674388885498047,0.5333810806274414
0.3743059158325195,0.5264774322509765
0.3743059158325195,0.5264774322509765
0.3752717971801758,0.5360057830810546
0.3752717971801758,0.5360057830810546
0.3657182693481445,0.5200223922729492
0.3657182693481445,0.5200223922729492
0.3777248382568359,0.5305721282958984
0.3777248382568359,0.5305721282958984
0.3642883300781250,0.5265123367309570
0.3642883300781250,0.5265123367309570
0.3714414596557617,0.5209379196166992
0.3714414596557617,0.5209379196166992
0.3727947235107422,0.5310464859008789
0.3727947235107422,0.5310464859008789
0.3637384414672851,0.5157663345336914
0.3637384414672851,0.5157663345336914
0.3669713973999023,0.5170091629028321
0.3618959426879882,0.5170091629028321
0.3751705169677734,0.5297698974609375
0.3704595565795898,0.5297698974609375
0.3614410400390625,0.5189563751220703
0.3736770629882812,0.5189563751220703
0.3741651535034179,0.5221389770507813
0.3627439498901367,0.5221389770507813
0.3677032470703125,0.5274473190307617
0.3767961502075195,0.5274473190307617
0.3666652679443359,0.5165399551391602
0.3617918014526367,0.5165399551391602
0.3750492095947265,0.5293579101562500
0.3704589843750000,0.5293579101562500
0.3614078521728515,0.5191715240478515
0.3736181259155273,0.5191715240478515
0.3743654251098633,0.5224977493286133
0.3630105972290039,0.5224977493286133
0.3678594589233398,0.5281511306762695
0.3770244598388672,0.5281511306762695
0.3668203353881836,0.5172088623046874
0.3622707366943359,0.5172088623046874
0.3754732131958008,0.5304279327392578
0.3707096099853516,0.5304279327392578
0.3619874954223632,0.5202020645141602
0.3742160797119141,0.5202020645141602
0.3748609542846680,0.5241817474365235
0.3637430191040039,0.5241817474365235
0.3778427124023437,0.5296371459960937
0.3778427124023437,0.5296371459960937
0.3675699234008789,0.5188259124755860
0.3626987457275391,0.5188259124755860
0.3760974884033203,0.5319368362426757
0.3713430404663086,0.5319368362426757
0.3626501083374024,0.5218357086181641
0.3747991561889648,0.5218357086181641
0.3644010543823242,0.5252866744995117
0.3644376754760742,0.5252866744995117
0.3690988540649414,0.5309280395507813
0.3780464172363281,0.5309280395507813
0.3680419921875000,0.5198450088500977
0.3631759643554687,0.5198450088500977
0.3764717102050781,0.5329759597778320
0.3717321395874023,0.5329759597778320
0.3630781173706055,0.5227867126464844
0.3754285812377929,0.5227867126464844
0.3757404327392578,0.5262153625488281
0.3645990371704101,0.5262153625488281
0.3695354461669922,0.5318195343017578
0.3784652709960937,0.5318195343017578
0.3684236526489258,0.5210969924926757
0.3637973785400391,0.5210969924926757
0.3770015716552734,0.5339269638061523
0.3725458145141601,0.5339269638061523
0.3636085510253906,0.5237937927246094
0.3758794784545899,0.5237937927246094
0.3762937545776367,0.5272682189941406
0.3652627944946289,0.5272682189941406
0.3701786041259765,0.5331172943115234
0.3791198730468750,0.5331172943115234
0.3691308975219726,0.5222213745117187
0.3647495269775390,0.5222213745117187
0.3776876449584961,0.5353935241699218
0.3730407714843750,0.5353935241699218
0.3644256591796875,0.5255086898803710
0.3766405105590820,0.5255086898803710
0.3771108627319336,0.5292171478271485
0.3659723281860351,0.5292171478271485
0.3710655212402343,0.5347675323486328
0.3802110671997070,0.5347675323486328
0.3699634552001953,0.5240507125854492
0.3655197143554688,0.5240507125854492
0.3786941528320312,0.5374866485595703
0.3739866256713867,0.5374866485595703
0.3652507781982422,0.5280075073242188
0.3775983810424804,0.5280075073242188
0.3782066345214843,0.5316741943359374
0.3672248840332031,0.5316741943359374
0.3721710205078125,0.5376989364624023
0.3810184478759766,0.5376989364624023
0.3711015701293945,0.5269472122192382
0.3666034698486328,0.5269472122192382
0.3796634674072266,0.5403602600097656
0.3748311996459961,0.5403602600097656
0.3659631729125977,0.5298522949218750
0.3782306671142578,0.5298522949218750
0.3781242370605469,0.5326795578002930
0.3666435241699219,0.5326795578002930
0.3716245651245117,0.5374729156494140
0.3800239562988281,0.5374729156494140
0.3696836471557617,0.5253868103027344
0.3649898529052734,0.5253868103027344
0.3777259826660156,0.5371702194213867
0.3727277755737304,0.5371702194213867
0.3634672164916992,0.5259212493896485
0.3754783630371094,0.5259212493896485
0.3755012512207031,0.5279989242553711
0.3639793395996094,0.5279989242553711
0.3690948486328125,0.5330085754394531
0.3775096893310547,0.5330085754394531
0.3672849655151367,0.5211301803588867
0.3629619598388672,0.5211301803588867
0.3756277084350586,0.5336763381958007
0.3706506729125976,0.5336763381958007
0.3618043899536132,0.5230722427368164
0.3740879058837890,0.5230722427368164
0.3741554260253906,0.5259698867797852
0.3629545211791992,0.5259698867797852
0.3680620193481445,0.5313680648803710
0.3769598007202148,0.5313680648803710
0.3665651321411132,0.5198347091674804
0.3620584487915039,0.5198347091674804
0.3751556396484375,0.5330841064453125
0.3702661514282227,0.5330841064453125
0.3615325927734375,0.5231031417846680
0.3740501403808594,0.5231031417846680
0.3741285324096680,0.5262496948242187
0.3630174636840820,0.5262496948242187
0.3683881759643555,0.5320878982543945
0.3770444869995117,0.5320878982543945
0.3667573928833008,0.5206981658935547
0.3624853134155273,0.5206981658935547
0.3755407333374023,0.5340906143188476
0.3705888748168945,0.5340906143188476
0.3618341445922851,0.5239871978759766
0.3744844436645507,0.5239871978759766
0.3743923187255859,0.5273860931396485
0.3632709503173828,0.5273860931396485
0.3687829971313477,0.5335979461669922
0.3775920867919922,0.5335979461669922
0.3675476074218750,0.5227649688720702
0.3634449005126953,0.5227649688720702
0.3765752792358398,0.5362689971923827
0.3716411590576172,0.5362689971923827
0.3630947113037109,0.5264991760253906
0.3756597518920898,0.5264991760253906
0.3758708953857422,0.5299112319946289
0.3647478103637695,0.5299112319946289
0.3702295303344726,0.5362970352172851
0.3791227340698242,0.5362970352172851
0.3688882827758789,0.5249856948852539
0.3648736953735351,0.5249856948852539
0.3778232574462890,0.5383695602416992
0.3728130340576172,0.5383695602416992
0.3641475677490234,0.5283794403076172
0.3767589569091797,0.5283794403076172
0.3767068862915039,0.5315643310546875
0.3655363082885742,0.5315643310546875
0.3709814071655274,0.5374219894409179
0.3797298431396484,0.5374219894409179
0.3694742202758789,0.5259990692138672
0.3653486251831055,0.5259990692138672
0.3782993316650390,0.5392776489257812
0.3732416152954102,0.5392776489257812
0.3646419525146484,0.5293859481811524
0.3771841049194336,0.5293859481811524
0.3770513534545898,0.5322721481323242
0.3660140991210937,0.5322721481323242
0.3715736389160156,0.5384164810180664
0.3801589965820312,0.5384164810180664
0.3699949264526367,0.5269128799438476
0.3659751892089844,0.5269128799438476
0.3789173126220703,0.5403150558471680
0.3739139556884766,0.5403150558471680
0.3652782440185547,0.5303987503051758
0.3781591415405273,0.5303987503051758
0.3779594421386719,0.5334074020385742
0.3667980194091797,0.5334074020385742
0.3722986221313476,0.5393325805664062
0.3809354782104492,0.5393325805664062
0.3708503723144531,0.5278484344482421
0.3668066024780273,0.5278484344482421
0.3797630310058593,0.5412408828735351
0.3748815536499023,0.5412408828735351
0.3660747528076172,0.5314407348632812
0.3787061691284180,0.5314407348632812
0.3786798477172851,0.5346942901611328
0.3675893783569336,0.5346942901611328
0.3732604980468750,0.5411928176879882
0.3817337036132812,0.5411928176879882
0.3717641830444336,0.5298385620117188
0.3679882049560547,0.5298385620117188
0.3808799743652344,0.5435382843017578
0.3759326934814453,0.5435382843017578
0.3674589157104492,0.5340042114257812
0.3801132202148437,0.5340042114257812
0.3800085067749023,0.5374763488769531
0.3691057205200195,0.5374763488769531
0.3746440887451172,0.5436841964721679
0.3833278656005859,0.5436841964721679
0.3731540679931640,0.5321285247802734
0.3691429138183593,0.5321285247802734
0.3817308425903320,0.5448978424072265
0.3763938903808594,0.5448978424072265
0.3676935195922851,0.5341169357299804
0.3797870635986328,0.5341169357299804
0.3791999816894531,0.5355291366577148
0.3679481506347656,0.5355291366577148
0.3728199005126953,0.5396541595458985
0.3808776855468750,0.5396541595458985
0.3703657150268554,0.5265014648437499
0.3659185409545898,0.5265014648437499
0.3784915924072266,0.5382053375244140
0.3730939865112304,0.5382053375244140
0.3643953323364258,0.5268985748291015
0.3765792846679688,0.5268985748291015
0.3759286880493164,0.5284635543823242
0.3647489547729492,0.5284635543823242
0.3700075149536133,0.5336265563964844
0.3782375335693359,0.5336265563964844
0.3679962158203125,0.5216016769409180
0.3638271331787109,0.5216016769409180
0.3765775680541992,0.5340951919555664
0.3715026855468750,0.5340951919555664
0.3628618240356445,0.5240375518798828
0.3751670837402344,0.5240375518798828
0.3749130249023437,0.5263772964477539
0.3637676239013672,0.5263772964477539
0.3692333221435547,0.5323019027709961
0.3775749206542969,0.5323019027709961
0.3673330307006836,0.5204887390136719
0.3635982513427734,0.5204887390136719
0.3760992050170898,0.5335355758666992
0.3709447860717773,0.5335355758666992
0.3624933242797851,0.5237262725830077
0.3749696731567383,0.5237262725830077
0.3745822906494141,0.5265426635742188
0.3635370254516602,0.5265426635742188
0.3691566467285156,0.5325181961059570
0.3777030944824218,0.5325181961059570
0.3673690795898437,0.5208578109741211
0.3633928298950195,0.5208578109741211
0.3762250900268554,0.5338777542114258
0.3710660934448242,0.5338777542114258
0.3626312255859375,0.5244621276855469
0.3750555038452149,0.5244621276855469
0.3747013092041016,0.5270399093627930
0.3640056610107422,0.5270399093627930
0.3694713592529297,0.5333765029907226
0.3777534484863281,0.5333765029907226
0.3677021026611328,0.5219644546508789
0.3638883590698242,0.5219644546508789
0.3765615463256836,0.5352624893188477
0.3714254379272461,0.5352624893188477
0.3631759643554687,0.5258394241333008
0.3758714675903320,0.5258394241333008
0.3753204345703125,0.5283256530761719
0.3643707275390625,0.5283256530761719
0.3700269699096679,0.5345008850097656
0.3782672882080078,0.5345008850097656
0.3681341171264648,0.5229995727539062
0.3643398284912109,0.5229995727539062
0.3767864227294922,0.5359834671020508
0.3718202590942383,0.5359834671020508
0.3632606506347656,0.5261655807495117
0.3755985260009765,0.5261655807495117
0.3751602172851562,0.5284709930419922
0.3641389846801757,0.5284709930419922
0.3697443008422852,0.5346336364746094
0.3780160903930664,0.5346336364746094
0.3679338455200195,0.5229337692260742
0.3644170761108398,0.5229337692260742
0.3767801284790039,0.5357631683349610
0.3715112686157226,0.5357631683349610
0.3631771087646484,0.5258502960205078
0.3756626129150391,0.5258502960205078
0.3750646591186523,0.5283491134643554
0.3641481399536133,0.5283491134643554
0.3698009490966797,0.5341163635253906
0.3783399581909180,0.5341163635253906
0.3678073883056641,0.5222734451293946
0.3640319824218750,0.5222734451293946
0.3766010284423828,0.5350233078002929
0.3714076995849609,0.5350233078002929
0.3630821228027344,0.5256345748901367
0.3755086898803711,0.5256345748901367
0.3749794006347656,0.5277082443237304
0.3643741607666016,0.5277082443237304
0.3698032379150391,0.5340723037719727
0.3779439926147461,0.5340723037719727
0.3679103851318359,0.5225646972656249
0.3643106460571289,0.5225646972656249
0.3769758224487305,0.5362752914428711
0.3718425750732422,0.5362752914428711
0.3636840820312500,0.5269935607910156
0.3766519546508789,0.5269935607910156
0.3757581710815430,0.5296291351318360
0.3649377822875977,0.5296291351318360
0.3707920074462890,0.5361928939819336
0.3790151596069336,0.5361928939819336
0.3688888549804688,0.5250909805297851
0.3653223037719727,0.5250909805297851
0.3779331207275390,0.5381813049316406
0.3730173110961914,0.5381813049316406
0.3644863128662109,0.5290809631347656
0.3771961212158203,0.5290809631347656
0.3764837265014648,0.5311065673828125
0.3654333114624023,0.5311065673828125
0.3712886810302734,0.5376520156860352
0.3792692184448242,0.5376520156860352
0.3787181854248047,0.5330011367797851
0.3773809432983398,0.5330011367797851
0.3714529037475586,0.5243843078613281
0.3714529037475586,0.5243843078613281
0.3737874984741211,0.5363307952880859
0.3737874984741211,0.5363307952880859
0.3640508651733398,0.5205413818359375
0.3689769744873047,0.5205413818359375
0.3763114929199219,0.5308473587036132
0.3763114929199219,0.5308473587036132
0.3643146514892578,0.5286386489868163
0.3643146514892578,0.5286386489868163
0.3699474334716797,0.5216005325317382
0.3699474334716797,0.5216005325317382
0.3725412368774414,0.5335950851440430
0.3725412368774414,0.5335950851440430
0.3631719589233398,0.5182159423828124
0.3631719589233398,0.5182159423828124
0.3749822616577148,0.5286666870117187
0.3749822616577148,0.5286666870117187
0.3633035659790039,0.5277254104614257
0.3633035659790039,0.5277254104614257
0.3689008712768554,0.5204338073730469
0.3689008712768554,0.5204338073730469
0.3717819213867187,0.5325611114501952
0.3717819213867187,0.5325611114501952
0.3618804931640625,0.5170932769775390
0.3618804931640625,0.5170932769775390
0.3740592956542969,0.5284978866577148
0.3740592956542969,0.5284978866577148
0.3625917434692383,0.5275108337402343
0.3625917434692383,0.5275108337402343
0.3688711166381836,0.5205047607421874
0.3688711166381836,0.5205047607421874
0.3717041015625000,0.5325845718383789
0.3717041015625000,0.5325845718383789
0.3621734619140625,0.5180316925048828
0.3621734619140625,0.5180316925048828
0.3744878768920898,0.5290311813354492
0.3744878768920898,0.5290311813354492
0.3633562088012695,0.5281316757202148
0.3633562088012695,0.5281316757202148
0.3691783905029297,0.5210031509399414
0.3691783905029297,0.5210031509399414
0.3724107742309570,0.5340299606323242
0.3724107742309570,0.5340299606323242
0.3630975723266601,0.5191400527954101
0.3630975723266601,0.5191400527954101
0.3755928039550781,0.5302602767944335
0.3649675369262695,0.5302602767944335
0.3640960693359375,0.5289155960083007
0.3640960693359375,0.5289155960083007
0.3699937820434570,0.5223346710205078
0.3699937820434570,0.5223346710205078
0.3733045578002930,0.5350130081176757
0.3733045578002930,0.5350130081176757
0.3641326904296875,0.5202627182006836
0.3641326904296875,0.5202627182006836
0.3762634277343750,0.5308073043823242
0.3762634277343750,0.5308073043823242
0.3648817062377930,0.5302659988403320
0.3648817062377930,0.5302659988403320
0.3708269119262695,0.5234035491943360
0.3708269119262695,0.5234035491943360
0.3741416931152344,0.5361883163452148
0.3741416931152344,0.5361883163452148
0.3645132064819336,0.5211095809936523
0.3645132064819336,0.5211095809936523
0.3768527984619141,0.5326915740966797
0.3768527984619141,0.5326915740966797
0.3657159805297852,0.5322721481323242
0.3657159805297852,0.5322721481323242
0.3718654632568359,0.5254016876220703
0.3718654632568359,0.5254016876220703
0.3750194549560547,0.5380788803100586
0.3750194549560547,0.5380788803100586
0.3657068252563476,0.5239328384399414
0.3657068252563476,0.5239328384399414
0.3782043457031250,0.5352012634277343
0.3782043457031250,0.5352012634277343
0.3671688079833984,0.5346542358398437
0.3671688079833984,0.5346542358398437
0.3731328964233399,0.5277116775512695
0.3731328964233399,0.5277116775512695
0.3764316558837891,0.5409479141235352
0.3764316558837891,0.5409479141235352
0.3669925689697265,0.5264127731323242
0.3669925689697265,0.5264127731323242
0.3795661926269531,0.5375135421752929
0.3795661926269531,0.5375135421752929
0.3682531356811523,0.5367027282714844
0.3682531356811523,0.5367027282714844
0.3741840362548828,0.5301389694213867
0.3741840362548828,0.5301389694213867
0.3775514602661132,0.5432332992553711
0.3775514602661132,0.5432332992553711
0.3684717178344726,0.5289585113525390
0.3684717178344726,0.5289585113525390
0.3807901382446289,0.5400547027587891
0.3807901382446289,0.5400547027587891
0.3697689056396484,0.5399271011352539
0.3697689056396484,0.5399271011352539
0.3756231307983398,0.5331281661987305
0.3756231307983398,0.5331281661987305
0.3789922714233399,0.5456771850585938
0.3789922714233399,0.5456771850585938
0.3691606521606445,0.5300285339355468
0.3742343902587891,0.5300285339355468
0.3807975769042969,0.5402166366577148
0.3807975769042969,0.5402166366577148
0.3691423416137695,0.5381275177001953
0.3691423416137695,0.5381275177001953
0.3742584228515625,0.5294929504394531
0.3742584228515625,0.5294929504394531
0.3764757156372070,0.5401834487915039
0.3764757156372070,0.5401834487915039
0.3663105010986328,0.5241949081420898
0.3663105010986328,0.5241949081420898
0.3778678894042969,0.5335372924804688
0.3778678894042969,0.5335372924804688
0.3662698745727539,0.5313714981079102
0.3662698745727539,0.5313714981079102
0.3713184356689453,0.5227781295776367
0.3713184356689453,0.5227781295776367
0.3740844726562500,0.5347360610961914
0.3740844726562500,0.5347360610961914
0.3643260955810547,0.5194787979125977
0.3643260955810547,0.5194787979125977
0.3764116287231445,0.5297058105468749
0.3764116287231445,0.5297058105468749
0.3649063110351562,0.5284973144531250
0.3649063110351562,0.5284973144531250
0.3703811645507812,0.5210540771484374
0.3703811645507812,0.5210540771484374
0.3734727859497070,0.5335149765014648
0.3734727859497070,0.5335149765014648
0.3641572952270508,0.5187046051025390
0.3641572952270508,0.5187046051025390
0.3760076522827148,0.5290317535400391
0.3760076522827148,0.5290317535400391
0.3649532318115234,0.5286512374877930
0.3649532318115234,0.5286512374877930
0.3706398010253906,0.5214403152465820
0.3706398010253906,0.5214403152465820
0.3739397048950195,0.5340820312500000
0.3739397048950195,0.5340820312500000
0.3643638610839844,0.5191669464111328
0.3643638610839844,0.5191669464111328
0.3764734268188477,0.5300050735473633
0.3661886215209961,0.5300050735473633
0.3653720855712890,0.5294717788696289
0.3653720855712890,0.5294717788696289
0.3711719512939453,0.5222333908081055
0.3711719512939453,0.5222333908081055
0.3741651535034179,0.5346673965454102
0.3741651535034179,0.5346673965454102
0.3648359298706055,0.5206541061401367
0.3648359298706055,0.5206541061401367
0.3769483566284180,0.5311832427978516
0.3769483566284180,0.5311832427978516
0.3661479949951172,0.5307598114013672
0.3661479949951172,0.5307598114013672
0.3714912414550781,0.5232839584350586
0.3714912414550781,0.5232839584350586
0.3747110366821289,0.5362609863281250
0.3747110366821289,0.5362609863281250
0.3652799606323242,0.5217361450195312
0.3652799606323242,0.5217361450195312
0.3775972366333007,0.5323465347290038
0.3775972366333007,0.5323465347290038
0.3662933349609375,0.5313777923583984
0.3662933349609375,0.5313777923583984
0.3717939376831055,0.5244649887084961
0.3717939376831055,0.5244649887084961
0.3749656677246094,0.5369361877441406
0.3749656677246094,0.5369361877441406
0.3656072616577148,0.5222099304199218
0.3656072616577148,0.5222099304199218
0.3772109985351562,0.5319791793823242
0.3772109985351562,0.5319791793823242
0.3660724639892578,0.5315185546875000
0.3660724639892578,0.5315185546875000
0.3713064193725586,0.5239459991455078
0.3713064193725586,0.5239459991455078
0.3747476577758789,0.5361980438232422
0.3747476577758789,0.5361980438232422
0.3648267745971679,0.5206827163696289
0.3648267745971679,0.5206827163696289
0.3766324996948242,0.5315093994140625
0.3766324996948242,0.5315093994140625
0.3655963897705078,0.5306419372558594
0.3655963897705078,0.5306419372558594
0.3714031219482422,0.5230642318725586
0.3714031219482422,0.5230642318725586
0.3740158081054688,0.5345088958740234
0.3740158081054688,0.5345088958740234
0.3646316528320312,0.5211359024047851
0.3646316528320312,0.5211359024047851
0.3766559600830078,0.5317256927490234
0.3766559600830078,0.5317256927490234
0.3666715621948242,0.5313222885131835
0.3666715621948242,0.5313222885131835
0.3715250015258789,0.5231964111328125
0.3715250015258789,0.5231964111328125
0.3751876831054687,0.5377178192138672
0.3751876831054687,0.5377178192138672
0.3660776138305664,0.5236415863037109
0.3660776138305664,0.5236415863037109
0.3789567947387695,0.5343503952026367
0.3789567947387695,0.5343503952026367
0.3672615051269531,0.5325960159301758
0.3672615051269531,0.5325960159301758
0.3724170684814453,0.5258617401123047
0.3724170684814453,0.5258617401123047
0.3751350402832031,0.5374099731445312
0.3751350402832031,0.5374099731445312
0.3655448913574219,0.5216102600097656
0.3655448913574219,0.5216102600097656
0.3653984069824219,0.5295249938964843
0.3653984069824219,0.5295249938964843
0.3645000457763672,0.5288068771362304
0.3768259048461914,0.5288068771362304
0.3692562103271484,0.5205139160156250
0.3692562103271484,0.5205139160156250
0.3732318878173828,0.5330160140991210
0.3732318878173828,0.5330160140991210
0.3628704071044922,0.5172557830810547
0.3628704071044922,0.5172557830810547
0.3749719619750976,0.5284063339233398
0.3749719619750976,0.5284063339233398
0.3639060974121094,0.5280252456665039
0.3639060974121094,0.5280252456665039
0.3691205978393555,0.5197992324829102
0.3691205978393555,0.5197992324829102
0.3721864700317383,0.5319408416748047
0.3721864700317383,0.5319408416748047
0.3622558593750000,0.5175373077392578
0.3622558593750000,0.5175373077392578
0.3742074966430664,0.5276430130004882
0.3742074966430664,0.5276430130004882
0.3634832382202148,0.5273494720458984
0.3634832382202148,0.5273494720458984
0.3681867599487305,0.5190387725830078
0.3681867599487305,0.5190387725830078
0.3716474533081054,0.5319688796997070
0.3716474533081054,0.5319688796997070
0.3617500305175781,0.5171442031860352
0.3675310134887695,0.5171442031860352
0.3740392684936523,0.5270822525024413
0.3740392684936523,0.5270822525024413
0.3628309249877930,0.5266044616699218
0.3628309249877930,0.5266044616699218
0.3681427001953125,0.5195428848266601
0.3681427001953125,0.5195428848266601
0.3719203948974609,0.5329113006591797
0.3626472473144531,0.5189094543457031
0.3626472473144531,0.5189094543457031
0.3747545242309570,0.5291152954101562
0.3747545242309570,0.5291152954101562
0.3638843536376953,0.5298082351684570
0.3638843536376953,0.5298082351684570
0.3692527770996094,0.5227014541625976
0.3692527770996094,0.5227014541625976
0.3733932495117188,0.5361293792724610
0.3733932495117188,0.5361293792724610
0.3637487411499024,0.5218534469604492
0.3637487411499024,0.5218534469604492
0.3761844635009766,0.5327716827392578
0.3761844635009766,0.5327716827392578
0.3655883789062500,0.5331184387207031
0.3655883789062500,0.5331184387207031
0.3712984085083008,0.5256265640258789
0.3712984085083008,0.5256265640258789
0.3747762680053711,0.5379558563232422
0.3747762680053711,0.5379558563232422
0.3650722503662109,0.5237131118774414
0.3650722503662109,0.5237131118774414
0.3771211624145508,0.5334720611572266
0.3771211624145508,0.5334720611572266
0.3664787292480469,0.5328248977661133
0.3664787292480469,0.5328248977661133
0.3710403442382812,0.5240432739257812
0.3710403442382812,0.5240432739257812
0.3744621276855469,0.5374076843261718
0.3744621276855469,0.5374076843261718
0.3647918701171875,0.5227455139160156
0.3647918701171875,0.5227455139160156
0.3773483276367187,0.5327013015747070
0.3773483276367187,0.5327013015747070
0.3659351348876953,0.5318006515502930
0.3659351348876953,0.5318006515502930
0.3711593627929687,0.5254898071289062
0.3711593627929687,0.5254898071289062
0.3751333236694336,0.5388484954833984
0.3751333236694336,0.5388484954833984
0.3663516998291015,0.5247133255004882
0.3663516998291015,0.5247133255004882
0.3780424118041992,0.5251241683959961
0.3686679840087890,0.5251241683959961
0.3723678588867188,0.5395179748535156
0.3724411010742187,0.5395179748535156
0.3645675659179687,0.5311740875244141
0.3787422180175781,0.5311740875244141
0.3768053054809570,0.5326652526855469
0.3658876419067383,0.5326652526855469
0.3728256225585938,0.5400375366210938
0.3803770065307617,0.5400375366210938
0.3699131011962891,0.5282203674316406
0.3677124023437500,0.5282203674316406
0.3797040939331054,0.5416385650634765
0.3742910385131836,0.5416385650634765
0.3660793304443359,0.5338411331176758
0.3795501708984375,0.5338411331176758
0.3781316757202148,0.5351383209228515
0.3673313140869141,0.5351383209228515
0.3742675781250000,0.5430730819702149
0.3818750381469727,0.5430730819702149
0.3711530685424805,0.5300943374633789
0.3692075729370117,0.5300943374633789
0.3805698394775390,0.5428579330444335
0.3741537094116211,0.5428579330444335
0.3662046432495117,0.5336133956909179
0.3792755126953125,0.5336133956909179
0.3775480270385742,0.5337272644042969
0.3663568496704102,0.5337272644042969
0.3730093002319336,0.5396324157714844
0.3804702758789062,0.5396324157714844
0.3692287445068359,0.5254806518554688
0.3666080474853515,0.5254806518554688
0.3779840469360352,0.5371616363525390
0.3715038299560547,0.5371616363525390
0.3633687973022461,0.5279663085937499
0.3763944625854492,0.5279663085937499
0.3747224807739258,0.5274484634399413
0.3639015197753906,0.5274484634399413
0.3701568603515625,0.5334938049316406
0.3774673461914063,0.5334938049316406
0.3666160583496094,0.5198627471923828
0.3641029357910156,0.5198627471923828
0.3757661819458007,0.5325519561767578
0.3694770812988281,0.5325519561767578
0.3616046905517578,0.5234819412231445
0.3750514984130859,0.5234819412231445
0.3731100082397461,0.5237503051757812
0.3621397018432617,0.5237503051757812
0.3689872741699219,0.5305440902709960
0.3763755798339843,0.5305440902709960
0.3656547546386719,0.5175910949707031
0.3633069992065430,0.5175910949707031
0.3749748229980469,0.5302722930908202
0.3688968658447265,0.5302722930908202
0.3608470916748047,0.5217126846313477
0.3741016387939453,0.5217126846313477
0.3725715637207031,0.5222957611083984
0.3615119934082031,0.5222957611083984
0.3684762954711914,0.5296337127685546
0.3758834838867187,0.5296337127685546
0.3651855468750000,0.5166177749633789
0.3641172409057617,0.5166177749633789
0.3747179031372070,0.5298448562622070
0.3686622619628906,0.5298448562622070
0.3609071731567383,0.5217893600463867
0.3744266510009766,0.5217893600463867
0.3729692459106445,0.5230768203735351
0.3620521545410156,0.5230768203735351
0.3691537857055664,0.5304033279418945
0.3769145965576172,0.5304033279418945
0.3660604476928711,0.5179933547973633
0.3638729095458984,0.5179933547973633
0.3756242752075195,0.5316301345825195
0.3696035385131836,0.5316301345825195
0.3619514465332031,0.5242458343505859
0.3754257202148437,0.5242458343505859
0.3740552902221679,0.5253822326660156
0.3635416030883789,0.5253822326660156
0.3703599929809570,0.5329702377319335
0.3778696060180664,0.5329702377319335
0.3671585083007812,0.5203857421875000
0.3650058746337890,0.5203857421875000
0.3767686843872070,0.5340745925903320
0.3705934524536132,0.5340745925903320
0.3628332138061524,0.5261907577514648
0.3766439437866211,0.5261907577514648
0.3748655319213867,0.5270307540893554
0.3639078140258789,0.5270307540893554
0.3710409164428711,0.5345878601074219
0.3784332275390625,0.5345878601074219
0.3677810668945312,0.5219907760620117
0.3656581878662109,0.5219907760620117
0.3773294448852539,0.5351114273071289
0.3713527679443359,0.5351114273071289
0.3634489059448242,0.5273677825927734
0.3768224716186523,0.5273677825927734
0.3752391815185547,0.5280401229858398
0.3643535614013672,0.5280401229858398
0.3713630676269531,0.5356498718261719
0.3788000106811523,0.5356498718261719
0.3680328369140625,0.5228141784667969
0.3661697387695312,0.5228141784667969
0.3775989532470703,0.5359279632568359
0.3713928222656250,0.5359279632568359
0.3636674880981445,0.5278587341308594
0.3769992828369140,0.5278587341308594
0.3755624771118164,0.5289316177368164
0.3647649765014648,0.5289316177368164
0.3716789245605469,0.5361082077026367
0.3794088363647461,0.5361082077026367
0.3685129165649414,0.5234281539916992
0.3664438247680664,0.5234281539916992
0.3780303955078125,0.5364068984985352
0.3718614578247070,0.5364068984985352
0.3641475677490234,0.5288354873657226
0.3774364471435547,0.5288354873657226
0.3760053634643555,0.5294328689575195
0.3655202865600586,0.5294328689575195
0.3722139358520508,0.5369573593139648
0.3796354293823242,0.5369573593139648
0.3690055847167968,0.5244443893432617
0.3669874191284180,0.5244443893432617
0.3786426544189453,0.5380365371704101
0.3725229263305664,0.5380365371704101
0.3649211883544922,0.5302917480468750
0.3787422180175781,0.5302917480468750
0.3768625259399414,0.5308828353881836
0.3658201217651367,0.5308828353881836
0.3728988647460937,0.5378705978393554
0.3800394058227539,0.5378705978393554
0.3690954208374023,0.5246068954467773
0.3669176101684570,0.5246068954467773
0.3781808853149414,0.5362815856933594
0.3717435836791992,0.5362815856933594
0.3634654998779297,0.5270805358886719
0.3764448165893555,0.5270805358886719
0.3745359420776367,0.5262485504150390
0.3632366180419922,0.5262485504150390
0.3701322555541992,0.5325885772705078
0.3769517898559570,0.5325885772705078
0.3658962249755859,0.5185775756835938
0.3642230987548828,0.5185775756835938
0.3752477645874023,0.5310670852661132
0.3686027526855469,0.5310670852661132
0.3608945846557617,0.5228118896484375
0.3744775772094727,0.5228118896484375
0.3727643966674805,0.5233858108520507
0.3616847991943359,0.5233858108520507
0.3689849853515625,0.5306922912597656
0.3764207839965820,0.5306922912597656
0.3653062820434570,0.5173656463623046
0.3635782241821289,0.5173656463623046
0.3748895645141602,0.5302928924560547
0.3682491302490234,0.5302928924560547
0.3606376647949219,0.5224954605102539
0.3742303848266602,0.5224954605102539
0.3723089218139649,0.5225080490112305
0.3615531921386719,0.5225080490112305
0.3686239242553711,0.5299037933349610
0.3756809234619141,0.5299037933349610
0.3647163391113281,0.5166675567626953
0.3629013061523437,0.5166675567626953
0.3743379592895508,0.5298860549926757
0.3677312850952149,0.5298860549926757
0.3601421356201172,0.5219770431518554
0.3740541458129883,0.5219770431518554
0.3721492767333984,0.5223655700683594
0.3611286163330078,0.5223655700683594
0.3686216354370117,0.5300703048706055
0.3758125305175781,0.5300703048706055
0.3650745391845703,0.5177484512329101
0.3635175704956055,0.5177484512329101
0.3749919891357422,0.5312255859375000
0.3687927246093750,0.5312255859375000
0.3610977172851562,0.5241897583007812
0.3749696731567383,0.5241897583007812
0.3732570648193359,0.5249536514282226
0.3624492645263672,0.5249536514282226
0.3699113845825195,0.5330778121948242
0.3771474838256836,0.5330778121948242
0.3663820266723632,0.5203502655029296
0.3650453567504883,0.5203502655029296
0.3762537002563476,0.5336608886718750
0.3697402954101562,0.5336608886718750
0.3622432708740234,0.5265146255493164
0.3759103775024414,0.5265146255493164
0.3742326736450195,0.5273345947265625
0.3633584976196289,0.5273345947265625
0.3708234786987304,0.5351898193359375
0.3783971786499024,0.5351898193359375
0.3674823760986328,0.5226808547973633
0.3659648895263672,0.5226808547973633
0.3774473190307617,0.5361574172973632
0.3710592269897461,0.5361574172973632
0.3635896682739257,0.5292909622192382
0.3772945404052734,0.5292909622192382
0.3756711959838867,0.5297000885009765
0.3649824142456055,0.5297000885009765
0.3722723007202148,0.5375043869018554
0.3795106887817383,0.5375043869018554
0.3687692642211914,0.5247882843017578
0.3672603607177734,0.5247882843017578
0.3786209106445312,0.5381950378417969
0.3720651626586914,0.5381950378417969
0.3645675659179687,0.5305629730224609
0.3784749984741211,0.5305629730224609
0.3762948989868164,0.5306539535522461
0.3652439117431641,0.5306539535522461
0.3727392196655273,0.5380485534667968
0.3798831939697265,0.5380485534667968
0.3690599441528320,0.5254823684692382
0.3674789428710937,0.5254823684692382
0.3787874221801757,0.5386848449707031
0.3725887298583984,0.5386848449707031
0.3647787094116211,0.5315259933471680
0.3785905838012695,0.5315259933471680
0.3768836975097656,0.5320083618164062
0.3659711837768554,0.5320083618164062
0.3735654830932617,0.5401702880859375
0.3808090209960938,0.5401702880859375
0.3700550079345703,0.5276927947998047
0.3689895629882812,0.5276927947998047
0.3801395416259766,0.5413822174072266
0.3737594604492188,0.5413822174072266
0.3663997650146484,0.5343955993652344
0.3802328109741211,0.5343955993652344
0.3786214828491211,0.5352430343627930
0.3677221298217773,0.5352430343627930
0.3754142761230468,0.5431938171386719
0.3827653884887695,0.5431938171386719
0.3717275619506836,0.5303415298461914
0.3702180862426758,0.5303415298461914
0.3814115524291992,0.5431795120239258
0.3746990203857422,0.5431795120239258
0.3670017242431641,0.5351966857910156
0.3804840087890625,0.5351966857910156
0.3784320831298828,0.5342330932617188
0.3673999786376953,0.5342330932617188
0.3744712829589844,0.5407070159912110
0.3812450408935547,0.5407070159912110
0.3701271057128906,0.5265844345092773
0.3683132171630859,0.5265844345092773
0.3793258666992188,0.5388690948486328
0.3724508285522461,0.5388690948486328
0.3647506713867187,0.5304164886474609
0.3783874511718750,0.5304164886474609
0.3761610031127929,0.5297504425048828
0.3649188995361328,0.5297504425048828
0.3723489761352539,0.5367113113403320
0.3792085647583008,0.5367113113403320
0.3681610107421875,0.5232925415039062
0.3664821624755859,0.5232925415039062
0.3775423049926758,0.5355411529541015
0.3710666656494140,0.5355411529541015
0.3632200241088867,0.5273557662963867
0.3766262054443359,0.5273557662963867
0.3745639801025391,0.5266119003295898
0.3633796691894531,0.5266119003295898
0.3708549499511719,0.5336900711059570
0.3778930664062500,0.5336900711059570
0.3667768478393554,0.5199502944946289
0.3653606414794922,0.5199502944946289
0.3763275146484375,0.5323877334594727
0.3696722030639648,0.5323877334594727
0.3620527267456055,0.5246698379516601
0.3757884979248047,0.5246698379516601
0.3738796234130859,0.5246017456054687
0.3627799987792968,0.5246017456054687
0.3704166412353516,0.5320341110229492
0.3776882171630859,0.5320341110229492
0.3665136337280273,0.5191675186157226
0.3650756835937500,0.5191675186157226
0.3763727188110351,0.5322767257690429
0.3698049545288086,0.5322767257690429
0.3623525619506836,0.5255619049072265
0.3763074874877930,0.5255619049072265
0.3744106292724609,0.5258256912231445
0.3636732101440430,0.5258256912231445
0.3712623596191406,0.5340923309326172
0.3785224914550781,0.5340923309326172
0.3674743652343750,0.5214677810668945
0.3662258148193359,0.5214677810668945
0.3776063919067383,0.5351486206054688
0.3709625244140625,0.5351486206054688
0.3636045455932617,0.5280189514160156
0.3777494430541992,0.5280189514160156
0.3755332946777344,0.5281717300415039
0.3645589828491211,0.5281717300415039
0.3723031997680664,0.5361951828002930
0.3794546127319336,0.5361951828002930
0.3685300827026367,0.5236146926879882
0.3671928405761719,0.5236146926879882
0.3785476684570312,0.5366455078125000
0.3721418380737305,0.5366455078125000
0.3644176483154297,0.5297246932983398
0.3783136367797851,0.5297246932983398
0.3764516830444336,0.5298746109008788
0.3653657913208008,0.5298746109008788
0.3731655120849609,0.5380662918090821
0.3803518295288086,0.5380662918090821
0.3692132949829102,0.5366827011108398
0.3688013076782227,0.5366827011108398
0.3688013076782227,0.5354015350341796
0.3729246139526367,0.5270359039306640
0.3729246139526367,0.5270359039306640
0.3774948120117188,0.5401187896728515
0.3774948120117188,0.5401187896728515
0.3675006866455078,0.5269523620605469
0.3675006866455078,0.5269523620605469
0.3800308227539063,0.5356498718261719
0.3800308227539063,0.5356498718261719
0.3692676544189453,0.5365585327148438
0.3692676544189453,0.5365585327148438
0.3736003875732422,0.5289602279663086
0.3736003875732422,0.5289602279663086
0.3781631469726562,0.5417575836181641
0.3781631469726562,0.5417575836181641
0.3686210632324219,0.5286220550537110
0.3686210632324219,0.5286220550537110
0.3806465148925781,0.5371284484863281
0.3806465148925781,0.5371284484863281
0.3702667236328125,0.5383947372436523
0.3702667236328125,0.5383947372436523
0.3744890213012695,0.5302654266357422
0.3744890213012695,0.5302654266357422
0.3791633605957031,0.5427303314208984
0.3791633605957031,0.5427303314208984
0.3688865661621094,0.5292314529418946
0.3688865661621094,0.5292314529418946
0.3810539245605469,0.5380977630615235
0.3810539245605469,0.5380977630615235
0.3707925796508789,0.5393714904785156
0.3707925796508789,0.5393714904785156
0.3750480651855468,0.5310573577880859
0.3750480651855468,0.5310573577880859
0.3793842315673828,0.5436046600341796
0.3793842315673828,0.5436046600341796
0.3695102691650390,0.5307786941528320
0.3695102691650390,0.5307786941528320
0.3817050933837891,0.5393543243408203
0.3817050933837891,0.5393543243408203
0.3714614868164062,0.5404169082641601
0.3714614868164062,0.5404169082641601
0.3749816894531250,0.5312192916870117
0.3749816894531250,0.5312192916870117
0.3790391921997070,0.5431388854980469
0.3790391921997070,0.5431388854980469
0.3682857513427734,0.5287902832031249
0.3682857513427734,0.5287902832031249
0.3800960540771484,0.5358839035034180
0.3800960540771484,0.5358839035034180
0.3687938690185547,0.5354616165161132
0.3687938690185547,0.5354616165161132
0.3722425460815429,0.5265266418457031
0.3722425460815429,0.5265266418457031
0.3763813018798828,0.5383426666259765
0.3763813018798828,0.5383426666259765
0.3660490036010742,0.5244398117065430
0.3660490036010742,0.5244398117065430
0.3778724670410156,0.5319208145141602
0.3778724670410156,0.5319208145141602
0.3672472000122070,0.5329450607299805
0.3672472000122070,0.5329450607299805
0.3710231781005859,0.5244306564331055
0.3710231781005859,0.5244306564331055
0.3756792068481445,0.5367341995239258
0.3756792068481445,0.5367341995239258
0.3649188995361328,0.5229434967041016
0.3720691680908203,0.5229434967041016
0.3770061492919922,0.5312936782836913
0.3770061492919922,0.5312936782836913
0.3664358139038086,0.5323333740234375
0.3664358139038086,0.5323333740234375
0.3704887390136719,0.5236530303955078
0.3704887390136719,0.5236530303955078
0.3748821258544922,0.5358673095703125
0.3748821258544922,0.5358673095703125
0.3645412445068359,0.5226625442504883
0.3645412445068359,0.5226625442504883
0.3768802642822265,0.5308393478393555
0.3768802642822265,0.5308393478393555
0.3666687011718750,0.5324518203735351
0.3666687011718750,0.5324518203735351
0.3706821441650390,0.5241559982299805
0.3706821441650390,0.5241559982299805
0.3756196975708008,0.5375776290893555
0.3756196975708008,0.5375776290893555
0.3658790588378906,0.5252243041992187
0.3658790588378906,0.5252243041992187
0.3788005828857422,0.5341129302978516
0.3788005828857422,0.5341129302978516
0.3685398101806641,0.5357299804687500
0.3685398101806641,0.5357299804687500
0.3727020263671875,0.5281242370605469
0.3727020263671875,0.5281242370605469
0.3776126861572265,0.5411058425903320
0.3776126861572265,0.5411058425903320
0.3678714752197266,0.5284749984741210
0.3678714752197266,0.5284749984741210
0.3802316665649414,0.5369699478149413
0.3802316665649414,0.5369699478149413
0.3700881958007812,0.5389560699462891
0.3700881958007812,0.5389560699462891
0.3742715835571289,0.5310922622680664
0.3742715835571289,0.5310922622680664
0.3793607711791992,0.5440389633178710
0.3793607711791992,0.5440389633178710
0.3691692352294922,0.5310934066772460
0.3691692352294922,0.5310934066772460
0.3816793441772461,0.5398326873779297
0.3816793441772461,0.5398326873779297
0.3714654922485351,0.5414989471435546
0.3714654922485351,0.5414989471435546
0.3757644653320312,0.5333198547363281
0.3757644653320312,0.5333198547363281
0.3804840087890625,0.5459890365600586
0.3804840087890625,0.5459890365600586
0.3703559875488281,0.5334692001342773
0.3703559875488281,0.5334692001342773
0.3828666687011719,0.5419933319091796
0.3828666687011719,0.5419933319091796
0.3727746963500976,0.5433935165405274
0.3727746963500976,0.5433935165405274
0.3767755508422851,0.5349523544311523
0.3767755508422851,0.5349523544311523
0.3815980911254883,0.5477594375610352
0.3815980911254883,0.5477594375610352
0.3713825225830078,0.5348476409912110
0.3713825225830078,0.5348476409912110
0.3840780258178711,0.5428436279296874
0.3840780258178711,0.5428436279296874
0.3733634948730469,0.5436876296997070
0.3733634948730469,0.5436876296997070
0.3772356033325195,0.5354810714721679
0.3772356033325195,0.5354810714721679
0.3820512771606445,0.5483201980590821
0.3820512771606445,0.5483201980590821
0.3720256805419922,0.5356590270996093
0.3720256805419922,0.5356590270996093
0.3843973159790039,0.5437980651855469
0.3843973159790039,0.5437980651855469
0.3741851806640625,0.5457784652709960
0.3741851806640625,0.5457784652709960
0.3780979156494140,0.5376050949096679
0.3780979156494140,0.5376050949096679
0.3832019805908203,0.5502141952514649
0.3832019805908203,0.5502141952514649
0.3726688385009765,0.5367605209350585
0.3726688385009765,0.5367605209350585
0.3848499298095703,0.5443376541137696
0.3848499298095703,0.5443376541137696
0.3738487243652344,0.5446346282958984
0.3738487243652344,0.5446346282958984
0.3773431777954102,0.5347944259643554
0.3773431777954102,0.5347944259643554
0.3811786651611328,0.5457841873168945
0.3811786651611328,0.5457841873168945
0.3702112197875976,0.5316576004028321
0.3702112197875976,0.5316576004028321
0.3819946289062500,0.5384405136108398
0.3819946289062500,0.5384405136108398
0.3712177276611328,0.5386156082153321
0.3712177276611328,0.5386156082153321
0.3743968963623047,0.5288337707519531
0.3743968963623047,0.5288337707519531
0.3787101745605468,0.5405982971191406
0.3787101745605468,0.5405982971191406
0.3678789138793945,0.5266908645629883
0.3678789138793945,0.5266908645629883
0.3799713134765625,0.5336065292358398
0.3799713134765625,0.5336065292358398
0.3690456390380859,0.5337518692016602
0.3690456390380859,0.5337518692016602
0.3724136352539062,0.5246143341064453
0.3724136352539062,0.5246143341064453
0.3769237518310547,0.5363937377929687
0.3769237518310547,0.5363937377929687
0.3663482666015625,0.5227134704589843
0.3663482666015625,0.5227134704589843
0.3782655715942383,0.5297807693481446
0.3782655715942383,0.5297807693481446
0.3677318572998047,0.5309360504150390
0.3677318572998047,0.5309360504150390
0.3712268829345703,0.5220617294311524
0.3712268829345703,0.5220617294311524
0.3762084960937500,0.5342960357666016
0.3762084960937500,0.5342960357666016
0.3655815124511719,0.5210998535156249
0.3655815124511719,0.5210998535156249
0.3779554367065430,0.5289773941040039
0.3779554367065430,0.5289773941040039
0.3677352905273437,0.5307832717895508
0.3677352905273437,0.5307832717895508
0.3718517303466797,0.5224857330322266
0.3718517303466797,0.5224857330322266
0.3766170501708984,0.5351915359497070
0.3766170501708984,0.5351915359497070
0.3664060592651367,0.5230407714843750
0.3664060592651367,0.5230407714843750
0.3789659500122070,0.5312816619873046
0.3789659500122070,0.5312816619873046
0.3690742492675781,0.5332849502563476
0.3690742492675781,0.5332849502563476
0.3727392196655273,0.5249782562255859
0.3727392196655273,0.5249782562255859
0.3778707504272461,0.5380411148071289
0.3778707504272461,0.5380411148071289
0.3674938201904297,0.5256288528442382
0.3674938201904297,0.5256288528442382
0.3802768707275391,0.5337266921997070
0.3802768707275391,0.5337266921997070
0.3699399948120117,0.5353271484375000
0.3699399948120117,0.5353271484375000
0.3737085342407226,0.5271772384643555
0.3737085342407226,0.5271772384643555
0.3788377761840820,0.5400959014892578
0.3788377761840820,0.5400959014892578
0.3686548233032226,0.5276824951171875
0.3686548233032226,0.5276824951171875
0.3810493469238281,0.5355148315429688
0.3810493469238281,0.5355148315429688
0.3708984375000000,0.5374677658081054
0.3708984375000000,0.5374677658081054
0.3745719909667969,0.5291261672973633
0.3745719909667969,0.5291261672973633
0.3797035217285156,0.5415075302124023
0.3797035217285156,0.5415075302124023
0.3690685272216797,0.5287410736083984
0.3690685272216797,0.5287410736083984
0.3815797805786132,0.5368766784667969
0.3815797805786132,0.5368766784667969
0.3713235855102539,0.5386951446533202
0.3713235855102539,0.5386951446533202
0.3752162933349609,0.5301343917846679
0.3752162933349609,0.5301343917846679
0.3800216674804687,0.5425065994262696
0.3800216674804687,0.5425065994262696
0.3696298599243164,0.5302230834960937
0.3696298599243164,0.5302230834960937
0.3820541381835937,0.5378688812255860
0.3820541381835937,0.5378688812255860
0.3721115112304688,0.5395214080810546
0.3721115112304688,0.5395214080810546
0.3754177093505859,0.5305555343627929
0.3754177093505859,0.5305555343627929
0.3805046081542969,0.5432521820068359
0.3805046081542969,0.5432521820068359
0.3701087951660156,0.5308919906616211
0.3701087951660156,0.5308919906616211
0.3826183319091797,0.5384164810180664
0.3826183319091797,0.5384164810180664
0.3722385406494140,0.5397565841674804
0.3722385406494140,0.5397565841674804
0.3756025314331055,0.5311992645263671
0.3756025314331055,0.5311992645263671
0.3803884506225586,0.5430868148803710
0.3803884506225586,0.5430868148803710
0.3696138381958008,0.5294111251831054
0.3696138381958008,0.5294111251831054
0.3812284469604492,0.5354650497436523
0.3812284469604492,0.5354650497436523
0.3702798843383789,0.5361185073852539
0.3702798843383789,0.5361185073852539
0.3731391906738281,0.5261959075927735
0.3731391906738281,0.5261959075927735
0.3778261184692382,0.5374694824218750
0.3778261184692382,0.5374694824218750
0.3663293838500977,0.5236158370971680
0.3663293838500977,0.5236158370971680
0.3783119201660156,0.5303718566894531
0.3783119201660156,0.5303718566894531
0.3676792144775390,0.5313938140869140
0.3789247512817382,0.5313938140869140
0.3708177566528320,0.5220222473144531
0.3708177566528320,0.5220222473144531
0.3755887985229492,0.5337690353393555
0.3755887985229492,0.5337690353393555
0.3645984649658203,0.5212400436401367
0.3645984649658203,0.5212400436401367
0.3769678115844726,0.5282615661621094
0.3769678115844726,0.5282615661621094
0.3668964385986328,0.5297698974609375
0.3668964385986328,0.5297698974609375
0.3698444366455078,0.5203548431396484
0.3698444366455078,0.5203548431396484
0.3747608184814453,0.5328346252441406
0.3747608184814453,0.5328346252441406
0.3636892318725586,0.5201848983764649
0.3636892318725586,0.5201848983764649
0.3765151977539062,0.5272790908813476
0.3765151977539062,0.5272790908813476
0.3661365509033203,0.5289213180541992
0.3661365509033203,0.5289213180541992
0.3694776535034179,0.5203067779541015
0.3694776535034179,0.5203067779541015
0.3747808456420899,0.5330022811889649
0.3747808456420899,0.5330022811889649
0.3642883300781250,0.5209259033203125
0.3642883300781250,0.5209259033203125
0.3770359039306641,0.5284303665161133
0.3770359039306641,0.5284303665161133
0.3776699066162109,0.5342119216918945
0.3776699066162109,0.5335916519165039
0.3633424758911133,0.5280017852783203
0.3779268264770508,0.5280017852783203
0.3752632141113281,0.5273963928222656
0.3642843246459961,0.5273963928222656
0.3731426239013672,0.5362976074218749
0.3795467376708984,0.5362976074218749
0.3678606033325195,0.5236209869384766
0.3676958084106445,0.5236209869384766
0.3790689468383789,0.5365619659423828
0.3720497131347656,0.5365619659423828
0.3646785736083984,0.5309240341186523
0.3790157318115234,0.5309240341186523
0.3764631271362305,0.5303277969360352
0.3654916763305664,0.5303277969360352
0.3741994857788086,0.5392347335815429
0.3807123184204101,0.5392347335815429
0.3689867019653320,0.5260631561279296
0.3689821243286133,0.5260631561279296
0.3802385330200195,0.5390665054321289
0.3728982925415039,0.5390665054321289
0.3658916473388672,0.5333610534667969
0.3802316665649414,0.5333610534667969
0.3776973724365234,0.5328689575195312
0.3666257858276367,0.5328689575195312
0.3754777908325195,0.5415527343750000
0.3821359634399414,0.5415527343750000
0.3701665878295898,0.5284664154052734
0.3700475692749023,0.5284664154052734
0.3814859390258789,0.5413822174072266
0.3740924835205078,0.5413822174072266
0.3669393539428711,0.5357294082641602
0.3811838150024414,0.5357294082641602
0.3787731170654297,0.5346920013427734
0.3679344177246094,0.5346920013427734
0.3764991760253906,0.5434501647949218
0.3827939987182617,0.5434501647949218
0.3710420608520508,0.5302316665649414
0.3708246231079101,0.5302316665649414
0.3821525573730469,0.5430576324462890
0.3748157501220703,0.5430576324462890
0.3676506042480469,0.5372577667236328
0.3821176528930664,0.5372577667236328
0.3793218612670898,0.5363410949707031
0.3682600021362304,0.5363410949707031
0.3771669387817383,0.5450483322143554
0.3834451675415039,0.5450483322143554
0.3717510223388672,0.5319059371948242
0.3716079711914063,0.5319059371948242
0.3830137252807617,0.5444784164428711
0.3758457183837891,0.5444784164428711
0.3684402465820312,0.5388175964355468
0.3827608108520508,0.5388175964355468
0.3801332473754883,0.5375581741333008
0.3690650939941406,0.5375581741333008
0.3778627395629883,0.5462831497192383
0.3841621398925781,0.5462831497192383
0.3722276687622070,0.5325496673583984
0.3721395492553711,0.5325496673583984
0.3831161499023437,0.5443113327026367
0.3754411697387695,0.5443113327026367
0.3680402755737305,0.5373115539550781
0.3818487167358398,0.5373115539550781
0.3788778305053711,0.5349534988403321
0.3675395965576172,0.5349534988403321
0.3761054992675781,0.5420814514160156
0.3821794509887695,0.5420814514160156
0.3697866439819336,0.5274370193481445
0.3694261550903320,0.5274370193481445
0.3805189132690430,0.5387580871582031
0.3727872848510742,0.5387580871582031
0.3653732299804687,0.5319505691528320
0.3792497634887695,0.5319505691528320
0.3765066146850586,0.5298025131225585
0.3652559280395508,0.5298025131225585
0.3738155364990234,0.5374637603759765
0.3797521591186523,0.5374637603759765
0.3677295684814453,0.5233715057373046
0.3674451828002930,0.5233715057373046
0.3785396575927734,0.5352315902709961
0.3708715438842773,0.5352315902709961
0.3635450363159179,0.5284057617187500
0.3776933670043945,0.5284057617187500
0.3746395111083984,0.5262651443481445
0.3633029937744141,0.5262651443481445
0.3720090866088867,0.5338136672973632
0.3781064987182617,0.5338136672973632
0.3659734725952148,0.5197494506835937
0.3658573150634766,0.5197494506835937
0.3770204544067383,0.5312713623046875
0.3696842193603516,0.5312713623046875
0.3621208190917969,0.5246177673339844
0.3762777328491211,0.5246177673339844
0.3734361648559570,0.5226551055908203
0.3622329711914062,0.5226551055908203
0.3712194442749023,0.5308422088623047
0.3772533416748047,0.5308422088623047
0.3652931213378906,0.5173055648803710
0.3654527664184570,0.5173055648803710
0.3767068862915039,0.5296834945678711
0.3692029953002929,0.5296834945678711
0.3621477127075195,0.5239980697631835
0.3763652801513672,0.5239980697631835
0.3736124038696289,0.5230298995971679
0.3627010345458984,0.5230298995971679
0.3716445922851562,0.5318012237548828
0.3780344009399414,0.5318012237548828
0.3660318374633789,0.5187223434448242
0.3659957885742187,0.5187223434448242
0.3774570465087890,0.5313566207885742
0.3699136734008789,0.5313566207885742
0.3629018783569336,0.5260694503784179
0.3771623611450195,0.5260694503784179
0.3744312286376953,0.5247842788696289
0.3637161254882812,0.5247842788696289
0.3724502563476562,0.5335052490234374
0.3785276412963867,0.5335052490234374
0.3666990280151367,0.5202232360839844
0.3667242050170899,0.5202232360839844
0.3781259536743164,0.5328409194946289
0.3707153320312500,0.5328409194946289
0.3636548995971680,0.5271068572998047
0.3780063629150390,0.5271068572998047
0.3749879837036132,0.5258405685424804
0.3640600204467773,0.5258405685424804
0.3729755401611328,0.5344093322753906
0.3791038513183594,0.5344093322753906
0.3670864105224609,0.5212263107299805
0.3670509338378906,0.5212263107299805
0.3784818649291992,0.5333845138549804
0.3713138580322266,0.5333845138549804
0.3638174057006836,0.5276716232299804
0.3778244018554687,0.5276716232299804
0.3750429153442383,0.5261610031127929
0.3640428543090820,0.5261610031127929
0.3729486465454102,0.5350542068481445
0.3791067123413086,0.5350542068481445
0.3671155929565429,0.5216623306274414
0.3674406051635742,0.5216623306274414
0.3784555435180664,0.5340465545654297
0.3710300445556641,0.5340465545654297
0.3639490127563477,0.5283359527587891
0.3780115127563476,0.5283359527587891
0.3752586364746094,0.5271314620971680
0.3641601562500000,0.5271314620971680
0.3729623794555664,0.5353248596191406
0.3797492980957031,0.5353248596191406
0.3670944213867187,0.5221561431884766
0.3669090270996094,0.5221561431884766
0.3782318115234375,0.5340471267700195
0.3707628250122070,0.5340471267700195
0.3637418746948242,0.5290660858154297
0.3778295516967773,0.5290660858154297
0.3750280380249023,0.5274415969848633
0.3651918411254882,0.5274415969848633
0.3731334686279297,0.5363222122192383
0.3791696548461914,0.5363222122192383
0.3673639297485352,0.5232004165649414
0.3675121307373047,0.5232004165649414
0.3791290283203125,0.5363914489746093
0.3718488693237305,0.5363914489746093
0.3648210525512695,0.5305629730224609
0.3800926208496094,0.5305629730224609
0.3761117935180664,0.5290512084960938
0.3650716781616211,0.5290512084960938
0.3740432739257812,0.5371524810791015
0.3798482894897461,0.5371524810791015
0.3678840637207031,0.5245170593261719
0.3678634643554687,0.5245170593261719
0.3791833877563476,0.5358684539794921
0.3722946166992188,0.5358684539794921
0.3641092300415039,0.5296577453613281
0.3777809143066406,0.5296577453613281
0.3747104644775390,0.5270095825195312
0.3634265899658203,0.5270095825195312
0.3722597122192383,0.5348773956298828
0.3778701782226562,0.5348773956298828
0.3655729293823242,0.5203639984130859
0.3662097930908203,0.5203639984130859
0.3768081665039062,0.5316461563110352
0.3687023162841797,0.5316461563110352
0.3615171432495117,0.5253301620483398
0.3755710601806641,0.5253301620483398
0.3725589752197265,0.5237274169921875
0.3615468978881836,0.5237274169921875
0.3705814361572266,0.5318275451660156
0.3769695281982422,0.5318275451660156
0.3640703201293945,0.5178817749023438
0.3644153594970703,0.5178817749023438
0.3758125305175781,0.5299215316772461
0.3680379867553711,0.5299215316772461
0.3610376358032226,0.5246372222900391
0.3755447387695313,0.5246372222900391
0.3722871780395507,0.5225618362426757
0.3622163772583007,0.5225618362426757
0.3705110549926758,0.5318389892578125
0.3764310836791992,0.5318389892578125
0.3640399932861328,0.5185758590698242
0.3641693115234375,0.5185758590698242
0.3761804580688476,0.5316312789916992
0.3685506820678711,0.5316312789916992
0.3613981246948242,0.5262651443481445
0.3766136169433594,0.5262651443481445
0.3727037429809570,0.5247356414794921
0.3615943908691406,0.5247356414794921
0.3710409164428711,0.5340162277221679
0.3769237518310547,0.5340162277221679
0.3650499343872070,0.5212961196899414
0.3655237197875976,0.5212961196899414
0.3772453308105468,0.5339664459228516
0.3702432632446289,0.5339664459228516
0.3626884460449218,0.5295799255371093
0.3770982742309570,0.5295799255371093
0.3742910385131836,0.5285030364990234
0.3633287429809570,0.5285030364990234
0.3728862762451172,0.5388055801391601
0.3788606643676758,0.5388055801391601
0.3669977188110352,0.5257301330566406
0.3682073593139648,0.5257301330566406
0.3791473388671875,0.5390035629272460
0.3714557647705078,0.5390035629272460
0.3646905899047851,0.5342370986938476
0.3792028427124023,0.5342370986938476
0.3762325286865234,0.5334068298339844
0.3653429031372070,0.5334068298339844
0.3748294830322266,0.5426696777343750
0.3813428878784180,0.5426696777343750
0.3687503814697266,0.5294208526611328
0.3693866729736328,0.5294208526611328
0.3808135986328125,0.5418291091918945
0.3729566574096679,0.5418291091918945
0.3662006378173828,0.5370082855224609
0.3806402206420899,0.5370082855224609
0.3776367187500000,0.5350919723510742
0.3672706604003906,0.5350919723510742
0.3762428283691406,0.5440887451171875
0.3819614410400390,0.5440887451171875
0.3700109481811523,0.5305904388427735
0.3705511093139648,0.5305904388427735
0.3821411132812500,0.5432430267333984
0.3742881774902344,0.5432430267333984
0.3674589157104492,0.5376056671142578
0.3826309204101562,0.5376056671142578
0.3788400650024414,0.5358839035034180
0.3678188323974609,0.5358839035034180
0.3772882461547851,0.5446323394775391
0.3830709457397461,0.5446323394775391
0.3711238861083984,0.5315454483032226
0.3716268539428711,0.5315454483032226
0.3829370498657226,0.5433631896972656
0.3759601593017578,0.5433631896972656
0.3682714462280273,0.5379014968872070
0.3825622558593750,0.5379014968872070
0.3794958114624024,0.5355897903442383
0.3683767318725586,0.5355897903442383
0.3778861999511718,0.5447616577148438
0.3835218429565430,0.5447616577148438
0.3714906692504883,0.5306762695312500
0.3727237701416016,0.5306762695312500
0.3832820892333984,0.5424882888793945
0.3753587722778320,0.5424882888793945
0.3685632705688476,0.5367439270019531
0.3827922821044922,0.5367439270019531
0.3796251296997070,0.5351240158081054
0.3685998916625977,0.5351240158081054
0.3781076431274414,0.5436321258544922
0.3844728469848633,0.5436321258544922
0.3717224121093750,0.5301721572875976
0.3721790313720703,0.5301721572875976
0.3836963653564453,0.5424156188964844
0.3759796142578125,0.5424156188964844
0.3691091537475586,0.5377475738525390
0.3833965301513672,0.5377475738525390
0.3802122116088867,0.5353208541870117
0.3698043823242188,0.5353208541870117
0.3784263610839844,0.5435674667358398
0.3836774826049805,0.5435674667358398
0.3714958190917969,0.5289299011230468
0.3717023849487305,0.5289299011230468
0.3828804016113281,0.5404821395874023
0.3747905731201172,0.5404821395874023
0.3676603317260742,0.5338817596435547
0.3822395324707031,0.5338817596435547
0.3781900405883789,0.5310745239257812
0.3669507980346680,0.5310745239257812
0.3762582778930664,0.5391946792602539
0.3816055297851562,0.5391946792602539
0.3693437576293945,0.5253370285034179
0.3698015213012695,0.5253370285034179
0.3809412002563476,0.5364149093627929
0.3736433029174804,0.5364149093627929
0.3659786224365234,0.5307197570800781
0.3800428390502930,0.5307197570800781
0.3767309188842773,0.5280315399169921
0.3655878067016601,0.5280315399169921
0.3750411987304688,0.5368806838989257
0.3802619934082031,0.5368806838989257
0.3702833175659180,0.5328844070434570
0.3803667068481445,0.5328844070434570
0.3717555999755859,0.5226190567016601
0.3634792327880859,0.5226190567016601
0.3774862289428711,0.5345569610595703
0.3774862289428711,0.5345569610595703
0.3656141281127930,0.5227163314819335
0.3656141281127930,0.5227163314819335
0.3788394927978516,0.5281030654907226
0.3788394927978516,0.5281030654907226
0.3686845779418945,0.5296085357666015
0.3686845779418945,0.5296085357666015
0.3707645416259766,0.5206987380981445
0.3707645416259766,0.5206987380981445
0.3767440795898437,0.5327241897583007
0.3767440795898437,0.5327241897583007
0.3654808044433593,0.5211730957031250
0.3654808044433593,0.5211730957031250
0.3779800415039062,0.5268213272094726
0.3779800415039062,0.5268213272094726
0.3687011718750000,0.5300874710083008
0.3687011718750000,0.5300874710083008
0.3709562301635742,0.5213006973266602
0.3709562301635742,0.5213006973266602
0.3778467178344727,0.5335842132568359
0.3778467178344727,0.5335842132568359
0.3747556686401367,0.5217973709106445
0.3747556686401367,0.5217973709106445
0.3787736892700195,0.5287456512451172
0.3675018310546875,0.5287456512451172
0.3695011138916016,0.5317314147949218
0.3804914474487305,0.5317314147949218
0.3723295211791992,0.5223690032958984
0.3723295211791992,0.5223690032958984
0.3780567169189453,0.5340454101562500
0.3780567169189453,0.5340454101562500
0.3662967681884766,0.5234367370605468
0.3662967681884766,0.5234367370605468
0.3792434692382812,0.5297681808471679
0.3792434692382812,0.5297681808471679
0.3706174850463867,0.5324558258056641
0.3706174850463867,0.5324558258056641
0.3720840454101562,0.5226682662963867
0.3720840454101562,0.5226682662963867
0.3784132003784180,0.5353706359863281
0.3784132003784180,0.5353706359863281
0.3665845870971680,0.5241228103637695
0.3665845870971680,0.5241228103637695
0.3803157806396484,0.5300954818725586
0.3803157806396484,0.5300954818725586
0.3702667236328125,0.5321582794189453
0.3811403274536133,0.5321582794189453
0.3724605560302734,0.5236135482788086
0.3724605560302734,0.5236135482788086
0.3787170410156250,0.5357208251953125
0.3787170410156250,0.5357208251953125
0.3675121307373047,0.5240066528320312
0.3675121307373047,0.5240066528320312
0.3796308517456055,0.5289808273315429
0.3796308517456055,0.5289808273315429
0.3701482772827148,0.5324289321899414
0.3701482772827148,0.5324289321899414
0.3721126556396484,0.5230447769165039
0.3721126556396484,0.5230447769165039
0.3790975570678711,0.5347898483276367
0.3790975570678711,0.5347898483276367
0.3662034988403320,0.5222694396972656
0.3662034988403320,0.5222694396972656
0.3789173126220703,0.5288011550903320
0.3789173126220703,0.5288011550903320
0.3696876525878906,0.5318189620971679
0.3696876525878906,0.5318189620971679
0.3726963043212890,0.5225515365600586
0.3726963043212890,0.5225515365600586
0.3781425476074219,0.5335733413696289
0.3781425476074219,0.5335733413696289
0.3663202285766601,0.5233886718749999
0.3663202285766601,0.5233886718749999
0.3792194366455078,0.5290678024291992
0.3792194366455078,0.5290678024291992
0.3707256317138672,0.5312570571899414
0.3707256317138672,0.5312570571899414
0.3712886810302734,0.5200149536132812
0.3770547866821289,0.5317720413208008
0.3644376754760742,0.5194381713867188
0.3644376754760742,0.5194381713867188
0.3777820587158203,0.5238590240478516
0.3777820587158203,0.5238590240478516
0.3670537948608398,0.5245508193969727
0.3670537948608398,0.5245508193969727
0.3684196472167969,0.5151254653930664
0.3602468490600586,0.5151254653930664
0.3743900299072265,0.5262611389160156
0.3743900299072265,0.5262611389160156
0.3625860214233398,0.5139781951904296
0.3625860214233398,0.5139781951904296
0.3744976043701172,0.5179470062255859
0.3744976043701172,0.5179470062255859
0.3648513793945312,0.5212892532348633
0.3648513793945312,0.5212892532348633
0.3664363861083984,0.5118638992309570
0.3664363861083984,0.5118638992309570
0.3737182617187500,0.5234046936035156
0.3737182617187500,0.5234046936035156
0.3602491378784179,0.5110324859619141
0.3602491378784179,0.5110324859619141
0.3735803604125976,0.5182416915893554
0.3735803604125976,0.5182416915893554
0.3649171829223632,0.5223529815673827
0.3649171829223632,0.5223529815673827
0.3679973602294922,0.5140228271484375
0.3679973602294922,0.5140228271484375
0.3744180679321289,0.5264471054077148
0.3744180679321289,0.5264471054077148
0.3623416900634766,0.5166257858276367
0.3623416900634766,0.5166257858276367
0.3759298324584961,0.5234086990356445
0.3759298324584961,0.5234086990356445
0.3675750732421875,0.5274650573730468
0.3675750732421875,0.5274650573730468
0.3689987182617188,0.5183000564575195
0.3689987182617188,0.5183000564575195
0.3760654449462891,0.5321136474609375
0.3760654449462891,0.5321136474609375
0.3639369964599609,0.5216777801513671
0.3728954315185547,0.5216777801513671
0.3778615951538086,0.5280309677124023
0.3778615951538086,0.5280309677124023
0.3684991836547851,0.5313674926757812
0.3792772293090820,0.5313674926757812
0.3704830169677734,0.5230293273925781
0.3704830169677734,0.5230293273925781
0.3774496078491211,0.5359554290771484
0.3774496078491211,0.5359554290771484
0.3656942367553711,0.5250932693481445
0.3656942367553711,0.5250932693481445
0.3788686752319336,0.5310459136962891
0.3788686752319336,0.5310459136962891
0.3700355529785156,0.5353305816650390
0.3700355529785156,0.5353305816650390
0.3720611572265625,0.5265953063964843
0.3720611572265625,0.5265953063964843
0.3793882369995117,0.5395568847656250
0.3793882369995117,0.5395568847656250
0.3669445037841797,0.5286020278930664
0.3669445037841797,0.5286020278930664
0.3805292129516601,0.5352991104125976
0.3805292129516601,0.5352991104125976
0.3717189788818359,0.5390018463134766
0.3717189788818359,0.5390018463134766
0.3739643096923828,0.5296772003173827
0.3739643096923828,0.5296772003173827
0.3804960250854492,0.5418399810791016
0.3804960250854492,0.5418399810791016
0.3683378219604492,0.5311901092529296
0.3683378219604492,0.5311901092529296
0.3817789077758789,0.5372714996337891
0.3817789077758789,0.5372714996337891
0.3731523513793945,0.5406589508056641
0.3731523513793945,0.5406589508056641
0.3749158859252930,0.5313571929931641
0.3749158859252930,0.5313571929931641
0.3816564559936523,0.5441562652587890
0.3816564559936523,0.5441562652587890
0.3695680618286133,0.5333730697631835
0.3695680618286133,0.5333730697631835
0.3830051422119141,0.5391380310058593
0.3830051422119141,0.5391380310058593
0.3735488891601562,0.5418634414672852
0.3735488891601562,0.5418634414672852
0.3750761032104492,0.5326801300048828
0.3750761032104492,0.5326801300048828
0.3816684722900390,0.5460565567016601
0.3816684722900390,0.5460565567016601
0.3698118209838867,0.5365150451660156
0.3698118209838867,0.5365150451660156
0.3836511611938476,0.5451707839965820
0.3836511611938476,0.5451707839965820
0.3763338088989258,0.5546573638916016
0.3763338088989258,0.5546573638916016
0.3792520523071289,0.5488643646240234
0.3792520523071289,0.5488643646240234
0.3866764068603515,0.5629629135131836
0.3844842910766602,0.5629629135131836
0.3751247406005859,0.5531490325927734
0.3751247406005859,0.5531490325927734
0.3886854171752930,0.5600749969482421
0.3886854171752930,0.5600749969482421
0.3798397064208984,0.5634435653686524
0.3798397064208984,0.5634435653686524
0.3816352844238281,0.5538820266723633
0.3816352844238281,0.5538820266723633
0.3885910034179688,0.5659692764282226
0.3885910034179688,0.5659692764282226
0.3761192321777344,0.5547266006469727
0.3761192321777344,0.5547266006469727
0.3889005661010742,0.5601900100708007
0.3889005661010742,0.5601900100708007
0.3800559997558594,0.5630979537963867
0.3800559997558594,0.5630979537963867
0.3814126968383789,0.5531003952026367
0.3814126968383789,0.5531003952026367
0.3876045227050781,0.5646177291870117
0.3876045227050781,0.5646177291870117
0.3753427505493164,0.5528886795043945
0.3753427505493164,0.5528886795043945
0.3883632659912109,0.5576042175292969
0.3883632659912109,0.5576042175292969
0.3790002822875976,0.5592613220214844
0.3790002822875976,0.5592613220214844
0.3806888580322266,0.5485914230346679
0.3806888580322266,0.5485914230346679
0.3866249084472656,0.5580917358398437
0.3866249084472656,0.5580917358398437
0.3740535736083984,0.5451461791992187
0.3740535736083984,0.5451461791992187
0.3862735748291016,0.5490039825439453
0.3862735748291016,0.5490039825439453
0.3770072937011719,0.5520784378051757
0.3770072937011719,0.5520784378051757
0.3792600631713867,0.5441860198974610
0.3792600631713867,0.5441860198974610
0.3861705780029297,0.5570457458496093
0.3861705780029297,0.5570457458496093
0.3737485885620117,0.5459278106689452
0.3737485885620117,0.5459278106689452
0.3868343353271484,0.5516126632690429
0.3868343353271484,0.5516126632690429
0.3780647277832031,0.5551877975463867
0.3780647277832031,0.5551877975463867
0.3798614501953125,0.5466150283813477
0.3798614501953125,0.5466150283813477
0.3865036010742187,0.5593322753906250
0.3865036010742187,0.5593322753906250
0.3745840072631836,0.5495183944702148
0.3745840072631836,0.5495183944702148
0.3878602981567383,0.5558584213256835
0.3878602981567383,0.5558584213256835
0.3797550201416016,0.5597534179687500
0.3797550201416016,0.5597534179687500
0.3814916610717773,0.5509174346923827
0.3814916610717773,0.5509174346923827
0.3885612487792969,0.5638452529907226
0.3885612487792969,0.5638452529907226
0.3768951416015625,0.5538522720336914
0.3768951416015625,0.5538522720336914
0.3907545089721680,0.5601470947265624
0.3907545089721680,0.5601470947265624
0.3820198059082031,0.5636163711547851
0.3820198059082031,0.5636163711547851
0.3837638854980469,0.5551740646362304
0.3837638854980469,0.5551740646362304
0.3905748367309570,0.5675485610961913
0.3905748367309570,0.5675485610961913
0.3791147232055664,0.5572626113891601
0.3791147232055664,0.5572626113891601
0.3919120788574219,0.5629497528076172
0.3919120788574219,0.5629497528076172
0.3834108352661132,0.5669357299804687
0.3834108352661132,0.5669357299804687
0.3851097106933594,0.5583721160888672
0.3851097106933594,0.5583721160888672
0.3922416687011719,0.5704799652099609
0.3922416687011719,0.5704799652099609
0.3799890518188476,0.5595422744750976
0.3799890518188476,0.5595422744750976
0.3930776596069336,0.5657083511352539
0.3930776596069336,0.5657083511352539
0.3847932815551758,0.5694391250610351
0.3847932815551758,0.5694391250610351
0.3868188858032227,0.5607261657714844
0.3868188858032227,0.5607261657714844
0.3934141159057617,0.5726097106933593
0.3934141159057617,0.5726097106933593
0.3815294265747070,0.5627300262451171
0.3815294265747070,0.5627300262451171
0.3946432113647461,0.5685367584228516
0.3946432113647461,0.5685367584228516
0.3865917205810547,0.5719099044799805
0.3865917205810547,0.5719099044799805
0.3879856109619140,0.5623609542846679
0.3879856109619140,0.5623609542846679
0.3947490692138672,0.5744350433349609
0.3947490692138672,0.5744350433349609
0.3829284667968750,0.5637491226196288
0.3829284667968750,0.5637491226196288
0.3963832855224609,0.5691249847412109
0.3963832855224609,0.5691249847412109
0.3876371383666992,0.5721296310424805
0.3979894638061524,0.5721296310424805
0.3890316009521484,0.5632450103759765
0.3890316009521484,0.5632450103759765
0.3955295562744141,0.5746358871459961
0.3955295562744141,0.5746358871459961
0.3834926605224609,0.5629228591918946
0.3834926605224609,0.5629228591918946
0.3956468582153320,0.5666610717773437
0.3956468582153320,0.5666610717773437
0.3957578659057617,0.5687913894653320
0.3871673583984375,0.5687913894653320
0.3808588027954101,0.5623540878295898
0.3946111679077148,0.5623540878295898
0.3900804519653320,0.5579641342163085
0.3788303375244140,0.5579641342163085
0.3887992858886719,0.5656517028808593
0.3933500289916992,0.5656517028808593
0.3809663772583008,0.5508647918701172
0.3820409774780273,0.5508647918701172
0.3926994323730469,0.5612560272216797
0.3843235015869140,0.5612560272216797
0.3779960632324219,0.5558143615722656
0.3915086746215820,0.5558143615722656
0.3875020980834961,0.5522260665893555
0.3763938903808594,0.5522260665893555
0.3864852905273438,0.5605236053466797
0.3910531997680664,0.5605236053466797
0.3788635253906250,0.5461967468261718
0.3803403854370117,0.5461967468261718
0.3908512115478516,0.5574440002441406
0.3823373794555664,0.5574440002441406
0.3762290954589844,0.5524852752685546
0.3899768829345703,0.5524852752685546
0.3859004974365234,0.5492918014526367
0.3749496459960938,0.5492918014526367
0.3851938247680664,0.5578525543212890
0.3900415420532227,0.5578525543212890
0.3773935317993164,0.5437505722045898
0.3788440704345703,0.5437505722045898
0.3896375656127929,0.5551265716552735
0.3811145782470703,0.5551265716552735
0.3752328872680664,0.5507360458374023
0.3889560699462891,0.5507360458374023
0.3849712371826172,0.5477279663085938
0.3744558334350586,0.5477279663085938
0.3846239089965820,0.5573844909667969
0.3893440246582031,0.5573844909667969
0.3773420333862305,0.5440246582031250
0.3790380477905274,0.5440246582031250
0.3897983551025391,0.5564157485961914
0.3816123962402344,0.5564157485961914
0.3757953643798828,0.5528005599975586
0.3901107788085937,0.5528005599975586
0.3859125137329101,0.5506353378295898
0.3752632141113281,0.5506353378295898
0.3856996536254882,0.5605854034423828
0.3904649734497070,0.5605854034423828
0.3784778594970703,0.5477806091308594
0.3801177978515625,0.5477806091308594
0.3910520553588867,0.5600812911987304
0.3830909729003906,0.5600812911987304
0.3769094467163086,0.5565513610839844
0.3909090042114258,0.5565513610839844
0.3870420455932617,0.5542213439941406
0.3763166427612304,0.5542213439941406
0.3868944168090820,0.5642807006835937
0.3916139602661133,0.5642807006835937
0.3798122406005859,0.5509134292602539
0.3817354202270508,0.5509134292602539
0.3923830032348632,0.5633399963378906
0.3840511322021484,0.5633399963378906
0.3783857345581055,0.5594306945800781
0.3923698425292969,0.5594306945800781
0.3884536743164063,0.5570823669433593
0.3777111053466797,0.5570823669433593
0.3881990432739258,0.5666707992553711
0.3931674957275391,0.5666707992553711
0.3809171676635742,0.5532754898071289
0.3827184677124023,0.5532754898071289
0.3935337066650391,0.5653266906738281
0.3851594924926758,0.5653266906738281
0.3794769287109375,0.5613435745239258
0.3934289932250977,0.5613435745239258
0.3894990921020507,0.5587984085083008
0.3791124343872070,0.5587984085083008
0.3894241333007812,0.5684812545776367
0.3939388275146484,0.5684812545776367
0.3819385528564453,0.5549463272094727
0.3837089538574219,0.5549463272094727
0.3945991516113281,0.5671926498413086
0.3862289428710937,0.5671926498413086
0.3804971694946289,0.5633073806762695
0.3947462081909179,0.5633073806762695
0.3904163360595703,0.5606420516967773
0.3796691894531250,0.5606420516967773
0.3902572631835937,0.5703374862670898
0.3948720932006836,0.5703374862670898
0.3828832626342774,0.5570331573486328
0.3846622467041015,0.5570331573486328
0.3955066680908203,0.5690763473510742
0.3873956680297851,0.5690763473510742
0.3814481735229492,0.5653295516967773
0.3953870773315429,0.5653295516967773
0.3912820816040039,0.5626253128051758
0.3804759979248047,0.5626253128051758
0.3912014007568359,0.5724597930908203
0.3956714630126953,0.5724597930908203
0.3835155487060547,0.5584024429321289
0.3855188369750976,0.5584024429321289
0.3957395553588867,0.5697212219238281
0.3869779586791992,0.5697212219238281
0.3810533523559570,0.5645307540893555
0.3945894241333008,0.5645307540893555
0.3902744293212890,0.5605230331420898
0.3790340423583984,0.5605230331420898
0.3894710540771484,0.5683216094970703
0.3939210891723633,0.5683216094970703
0.3812662124633789,0.5532239913940430
0.3827190399169922,0.5532239913940430
0.3931606292724609,0.5635236740112305
0.3843011856079102,0.5635236740112305
0.3784807205200195,0.5583560943603515
0.3919692993164062,0.5583560943603515
0.3874912261962891,0.5541326522827148
0.3768304824829101,0.5541326522827148
0.3868698120117187,0.5625938415527344
0.3910531997680664,0.5625938415527344
0.3788166046142578,0.5479213714599609
0.3803449630737304,0.5479213714599609
0.3907207489013672,0.5589225769042968
0.3820941925048828,0.5589225769042968
0.3764322280883789,0.5542797088623047
0.3902881622314453,0.5542797088623047
0.3857002258300781,0.5507972717285156
0.3746492385864258,0.5507972717285156
0.3853757858276367,0.5595062255859374
0.3895729064941406,0.5595062255859374
0.3773986816406250,0.5456102371215820
0.3790266036987305,0.5456102371215820
0.3895540237426758,0.5567276000976562
0.3810991287231445,0.5567276000976562
0.3752088546752930,0.5522134780883788
0.3889503479003906,0.5522134780883788
0.3845895767211914,0.5486869812011719
0.3735506057739258,0.5486869812011719
0.3840906143188477,0.5578737258911133
0.3885000228881836,0.5578737258911133
0.3763732910156250,0.5438289642333984
0.3785528182983398,0.5438289642333984
0.3888158798217773,0.5554796218872070
0.3801961898803711,0.5554796218872070
0.3745582580566406,0.5511171340942382
0.3884634017944336,0.5511171340942382
0.3841123580932617,0.5479585647583007
0.3734516143798828,0.5479585647583007
0.3842250823974609,0.5572694778442383
0.3888673782348633,0.5572694778442383
0.3765460968017578,0.5433992385864258
0.3784933090209961,0.5433992385864258
0.3889841079711914,0.5552736282348633
0.3801961898803711,0.5552736282348633
0.3748197555541992,0.5516830444335937
0.3886796951293945,0.5516830444335937
0.3844945907592773,0.5484952926635742
0.3737096786499023,0.5484952926635742
0.3845066070556640,0.5582885742187500
0.3888696670532226,0.5582885742187500
0.3767177581787109,0.5444435119628906
0.3789813995361328,0.5444435119628906
0.3895614624023437,0.5568752288818359
0.3807689666748047,0.5568752288818359
0.3753696441650390,0.5530597686767578
0.3896593093872070,0.5530597686767578
0.3850542068481445,0.5500751495361328
0.3742092132568359,0.5500751495361328
0.3852624893188477,0.5598443984985352
0.3896106719970703,0.5598443984985352
0.3775629043579101,0.5462482452392577
0.3798837661743164,0.5462482452392577
0.3903779983520508,0.5582885742187500
0.3817823410034180,0.5582885742187500
0.3762828826904297,0.5545074462890625
0.3901737213134766,0.5545074462890625
0.3857992172241211,0.5513998031616211
0.3752672195434570,0.5513998031616211
0.3861705780029297,0.5613601684570312
0.3904455184936523,0.5613601684570312
0.3784440994262695,0.5474710464477539
0.3808267593383789,0.5474710464477539
0.3910285949707031,0.5595417022705078
0.3824375152587891,0.5595417022705078
0.3772075653076172,0.5559476852416992
0.3909948348999023,0.5559476852416992
0.3867010116577148,0.5531770706176757
0.3759464263916015,0.5531770706176757
0.3869813919067382,0.5629291534423828
0.3916139602661133,0.5629291534423828
0.3793138504028320,0.5494548797607421
0.3815866470336914,0.5494548797607421
0.3920774459838867,0.5614471435546875
0.3834932327270508,0.5614471435546875
0.3782077789306640,0.5581586837768554
0.3920156478881836,0.5581586837768554
0.3878871917724609,0.5552724838256836
0.3774095535278320,0.5552724838256836
0.3880846023559570,0.5650400161743164
0.3924505233764649,0.5650400161743164
0.3804983139038086,0.5515903472900391
0.3825181961059570,0.5515903472900391
0.3930982589721679,0.5635585784912109
0.3846685409545899,0.5635585784912109
0.3793144226074219,0.5596778869628906
0.3933752059936523,0.5596778869628906
0.3888021469116211,0.5565977096557617
0.3780927658081055,0.5565977096557617
0.3887374877929687,0.5654600143432617
0.3930461883544922,0.5654600143432617
0.3809349060058594,0.5513219833374023
0.3828226089477539,0.5513219833374023
0.3929546356201172,0.5616954803466797
0.3845741271972656,0.5616954803466797
0.3784246444702148,0.5565279006958007
0.3917673110961914,0.5565279006958007
0.3871044158935547,0.5517002105712890
0.3759332656860351,0.5517002105712890
0.3863113403320312,0.5598077774047852
0.3902355194091797,0.5598077774047852
0.3779748916625976,0.5445430755615234
0.3800514221191406,0.5445430755615234
0.3898355484008789,0.5552604675292968
0.3810041427612305,0.5552604675292968
0.3754560470581055,0.5503349304199219
0.3887872695922852,0.5503349304199219
0.3843069076538086,0.5463563919067382
0.3733045578002930,0.5463563919067382
0.3840740203857422,0.5548364639282226
0.3885011672973633,0.5548364639282226
0.3760231018066406,0.5404415130615234
0.3779394149780274,0.5404415130615234
0.3881189346313477,0.5513099670410156
0.3791564941406250,0.5513099670410156
0.3737932205200195,0.5470018386840820
0.3873247146606445,0.5470018386840820
0.3827568054199219,0.5430616378784180
0.3721544265747070,0.5430616378784180
0.3826818466186523,0.5518066406250000
0.3866071701049805,0.5518066406250000
0.3744089126586914,0.5373189926147460
0.3763875961303711,0.5373189926147460
0.3866289138793945,0.5484432220458985
0.3776144027709961,0.5484432220458985
0.3722654342651367,0.5439577102661133
0.3860939025878906,0.5439577102661133
0.3811918258666992,0.5397022247314452
0.3701196670532226,0.5397022247314452
0.3810916900634765,0.5485513687133788
0.3850868225097656,0.5485513687133788
0.3729595184326172,0.5342805862426757
0.3753032684326172,0.5342805862426757
0.3853998184204102,0.5459243774414062
0.3766662597656250,0.5459243774414062
0.3715026855468750,0.5422657012939452
0.3851354598999023,0.5422657012939452
0.3805292129516601,0.5387329101562500
0.3696842193603516,0.5387329101562500
0.3810115814208984,0.5487298965454102
0.3851097106933594,0.5487298965454102
0.3730453491210937,0.5349071502685546
0.3758560180664062,0.5349071502685546
0.3857122421264648,0.5470722198486327
0.3767641067504883,0.5470722198486327
0.3719610214233398,0.5438753128051758
0.3857328414916992,0.5438753128051758
0.3809955596923828,0.5406188964843750
0.3702495574951172,0.5406188964843750
0.3816644668579102,0.5507823944091796
0.3857425689697265,0.5507823944091796
0.3736381530761719,0.5371221542358399
0.3763166427612304,0.5371221542358399
0.3865316390991211,0.5493947982788085
0.3775548934936523,0.5493947982788085
0.3728158950805664,0.5462614059448242
0.3866912841796875,0.5462614059448242
0.3819534301757813,0.5429552078247070
0.3714603424072265,0.5429552078247070
0.3826280593872070,0.5530883789062500
0.3866558074951172,0.5530883789062500
0.3746103286743164,0.5391460418701172
0.3772001266479492,0.5391460418701172
0.3873910903930664,0.5514266967773437
0.3784137725830078,0.5514266967773437
0.3737440109252930,0.5481422424316406
0.3877979278564453,0.5481422424316406
0.3828592300415039,0.5446569442749023
0.3722482681274414,0.5446569442749023
0.3836872100830078,0.5548347473144531
0.3875673294067383,0.5548347473144531
0.3756156921386719,0.5410423278808594
0.3784080505371094,0.5410423278808594
0.3884702682495117,0.5533298492431641
0.3797195434570312,0.5533298492431641
0.3749261856079101,0.5503538131713867
0.3888633728027344,0.5503538131713867
0.3840620040893555,0.5470933914184570
0.3734064102172852,0.5470933914184570
0.3849981307983398,0.5575166702270508
0.3889085769653320,0.5575166702270508
0.3811855316162109,0.5563276290893554
0.3811855316162109,0.5563276290893554
0.3754325866699219,0.5466430664062499
0.3763183593750000,0.5466430664062499
0.3892198562622070,0.5595891952514648
0.3892198562622070,0.5595891952514648
0.3763864517211914,0.5496191024780274
0.3763864517211914,0.5496191024780274
0.3899660110473633,0.5545984268188476
0.3787490844726563,0.5545984268188476
0.3826978683471680,0.5593700408935547
0.3826978683471680,0.5593700408935547
0.3829233169555664,0.5501043319702148
0.3829233169555664,0.5501043319702148
0.3906497955322266,0.5623615264892577
0.3906497955322266,0.5623615264892577
0.3777997970581055,0.5514020919799805
0.3777997970581055,0.5514020919799805
0.3901348114013672,0.5546670913696289
0.3901348114013672,0.5546670913696289
0.3823225021362305,0.5581483840942383
0.3823225021362305,0.5581483840942383
0.3817354202270508,0.5470584869384766
0.3817354202270508,0.5470584869384766
0.3890853881835937,0.5577707290649414
0.3890853881835937,0.5577707290649414
0.3751579284667969,0.5455673217773437
0.3751579284667969,0.5455673217773437
0.3873373031616211,0.5487670898437500
0.3873373031616211,0.5487670898437500
0.3794151306152344,0.5519725799560546
0.3794151306152344,0.5519725799560546
0.3793247222900391,0.5408964157104492
0.3793247222900391,0.5408964157104492
0.3859640121459961,0.5518466949462890
0.3859640121459961,0.5518466949462890
0.3725601196289062,0.5407962799072266
0.3725601196289062,0.5407962799072266
0.3850605010986328,0.5443382263183594
0.3850605010986328,0.5443382263183594
0.3777935028076172,0.5481021881103515
0.3777935028076172,0.5481021881103515
0.3771160125732422,0.5370426177978516
0.3771160125732422,0.5370426177978516
0.3844316482543945,0.5488397598266601
0.3844316482543945,0.5488397598266601
0.3709962844848633,0.5375307083129882
0.3709962844848633,0.5375307083129882
0.3839452743530273,0.5408500671386719
0.3839452743530273,0.5408500671386719
0.3761289596557617,0.5444732666015625
0.3761289596557617,0.5444732666015625
0.3757575988769531,0.5343149185180663
0.3757575988769531,0.5343149185180663
0.3832729339599609,0.5459598541259766
0.3832729339599609,0.5459598541259766
0.3704143524169922,0.5353134155273437
0.3704143524169922,0.5353134155273437
0.3829999923706054,0.5389984130859374
0.3829999923706054,0.5389984130859374
0.3758274078369140,0.5436744689941406
0.3758274078369140,0.5436744689941406
0.3759521484375000,0.5337278366088867
0.3759521484375000,0.5337278366088867
0.3839303970336914,0.5460016250610351
0.3839303970336914,0.5460016250610351
0.3707485198974609,0.5355119705200195
0.3707485198974609,0.5355119705200195
0.3837484359741211,0.5403665542602539
0.3837484359741211,0.5403665542602539
0.3767515182495117,0.5454523086547851
0.3767515182495117,0.5454523086547851
0.3771263122558594,0.5359731674194336
0.3771263122558594,0.5359731674194336
0.3847160339355469,0.5484123229980469
0.3847160339355469,0.5484123229980469
0.3718420028686523,0.5386522293090820
0.3718420028686523,0.5386522293090820
0.3848876953125000,0.5430730819702149
0.3848876953125000,0.5430730819702149
0.3782821655273437,0.5480449676513671
0.3782821655273437,0.5480449676513671
0.3779628753662109,0.5379055023193359
0.3779628753662109,0.5379055023193359
0.3858736038208008,0.5507406234741211
0.3858736038208008,0.5507406234741211
0.3729595184326172,0.5408529281616211
0.3729595184326172,0.5408529281616211
0.3862901687622070,0.5451971054077148
0.3862901687622070,0.5451971054077148
0.3790197372436523,0.5497209548950195
0.3790197372436523,0.5497209548950195
0.3790683746337891,0.5404935836791992
0.3790683746337891,0.5404935836791992
0.3867719650268555,0.5529178619384766
0.3867719650268555,0.5529178619384766
0.3744541168212890,0.5429689407348632
0.3744541168212890,0.5429689407348632
0.3870374679565430,0.5471855163574219
0.3870374679565430,0.5471855163574219
0.3801275253295898,0.5523370742797852
0.3801275253295898,0.5523370742797852
0.3800960540771484,0.5429334640502930
0.3744592666625977,0.5429334640502930
0.3882528305053711,0.5553920745849609
0.3882528305053711,0.5553920745849609
0.3753255844116211,0.5450780868530273
0.3753255844116211,0.5450780868530273
0.3881092071533203,0.5498748779296875
0.3881092071533203,0.5498748779296875
0.3812261581420898,0.5547689437866211
0.3812261581420898,0.5547689437866211
0.3815637588500976,0.5449968338012695
0.3815637588500976,0.5449968338012695
0.3888462066650391,0.5568729400634765
0.3888462066650391,0.5568729400634765
0.3762325286865234,0.5471769332885742
0.3762325286865234,0.5471769332885742
0.3888210296630859,0.5511022567749023
0.3888210296630859,0.5511022567749023
0.3820163726806641,0.5551019668579101
0.3820163726806641,0.5551019668579101
0.3810550689697266,0.5438135147094726
0.3810550689697266,0.5438135147094726
0.3879524230957031,0.5548971176147460
0.3879524230957031,0.5548971176147460
0.3746452331542969,0.5432132720947266
0.3746452331542969,0.5432132720947266
0.3869613647460937,0.5458768844604492
0.3753255844116211,0.5458768844604492
0.3789842605590820,0.5485965728759765
0.3789842605590820,0.5485965728759765
0.3781797409057617,0.5378505706787109
0.3781797409057617,0.5378505706787109
0.3853763580322265,0.5489107131958008
0.3853763580322265,0.5489107131958008
0.3723981857299805,0.5375226974487305
0.3723981857299805,0.5375226974487305
0.3840608596801758,0.5402246475219726
0.3840608596801758,0.5402246475219726
0.3767566680908203,0.5444309234619140
0.3767566680908203,0.5444309234619140
0.3761569976806641,0.5338439941406250
0.3761569976806641,0.5338439941406250
0.3839990615844727,0.5452045440673828
0.3839990615844727,0.5452045440673828
0.3704984664916992,0.5341552734375000
0.3704984664916992,0.5341552734375000
0.3828426361083984,0.5379518508911133
0.3828426361083984,0.5379518508911133
0.3759275436401367,0.5423097610473633
0.3759275436401367,0.5423097610473633
0.3757101058959961,0.5318006515502930
0.3757101058959961,0.5318006515502930
0.3828741073608398,0.5434524536132812
0.3828741073608398,0.5434524536132812
0.3699651718139648,0.5332752227783203
0.3699651718139648,0.5332752227783203
0.3823831558227539,0.5369527816772460
0.3823831558227539,0.5369527816772460
0.3758291244506836,0.5415195465087891
0.3758291244506836,0.5415195465087891
0.3749839782714844,0.5309572219848633
0.3749839782714844,0.5309572219848633
0.3827207565307617,0.5434576034545898
0.3827207565307617,0.5434576034545898
0.3697923660278320,0.5331052780151367
0.3697923660278320,0.5331052780151367
0.3827877044677734,0.5368520736694335
0.3827877044677734,0.5368520736694335
0.3758955001831055,0.5417655944824219
0.3758955001831055,0.5417655944824219
0.3754302978515625,0.5320661544799804
0.3754302978515625,0.5320661544799804
0.3836082458496093,0.5449464797973632
0.3836082458496093,0.5449464797973632
0.3707548141479492,0.5351366043090821
0.3707548141479492,0.5351366043090821
0.3833101272583008,0.5390035629272460
0.3833101272583008,0.5390035629272460
0.3769443511962891,0.5445859909057617
0.3769443511962891,0.5445859909057617
0.3764150619506836,0.5345649719238281
0.3764150619506836,0.5345649719238281
0.3847503662109375,0.5475528717041015
0.3847503662109375,0.5475528717041015
0.3713562011718750,0.5373870849609375
0.3713562011718750,0.5373870849609375
0.3841650009155274,0.5416585922241210
0.3841650009155274,0.5416585922241210
0.3778306961059570,0.5471563339233398
0.3778306961059570,0.5471563339233398
0.3775028228759765,0.5370203018188476
0.3775028228759765,0.5370203018188476
0.3856138229370117,0.5499223709106446
0.3856138229370117,0.5499223709106446
0.3725423812866211,0.5402904510498047
0.3725423812866211,0.5402904510498047
0.3854736328125000,0.5443983078002930
0.3854736328125000,0.5443983078002930
0.3794374465942383,0.5500253677368164
0.3794374465942383,0.5500253677368164
0.3786529541015625,0.5398801803588867
0.3786529541015625,0.5398801803588867
0.3869928359985351,0.5533206939697265
0.3869928359985351,0.5533206939697265
0.3739013671875000,0.5436532974243163
0.3739013671875000,0.5436532974243163
0.3872308731079102,0.5481622695922851
0.3872308731079102,0.5481622695922851
0.3809921264648438,0.5538425445556641
0.3809921264648438,0.5538425445556641
0.3804410934448242,0.5443342208862304
0.3804410934448242,0.5443342208862304
0.3891317367553711,0.5577375411987304
0.3891317367553711,0.5577375411987304
0.3765426635742187,0.5482046127319335
0.3765426635742187,0.5482046127319335
0.3889863967895508,0.5522346496582031
0.3889863967895508,0.5522346496582031
0.3828214645385742,0.5586170196533203
0.3828214645385742,0.5586170196533203
0.3824300765991211,0.5491544723510742
0.3824300765991211,0.5491544723510742
0.3916202545166015,0.5621566772460938
0.3916202545166015,0.5621566772460938
0.3776853561401367,0.5516773223876953
0.3776853561401367,0.5516773223876953
0.3902286529541015,0.5558298110961913
0.3902286529541015,0.5558298110961913
0.3836116790771484,0.5603931427001952
0.3836116790771484,0.5603931427001952
0.3832317352294922,0.5489393234252929
0.3832317352294922,0.5489393234252929
0.3900037765502929,0.5595932006835938
0.3900037765502929,0.5595932006835938
0.3761684417724609,0.5492609024047851
0.3761684417724609,0.5492609024047851
0.3881961822509766,0.5517700195312499
0.3881961822509766,0.5517700195312499
0.3823087692260742,0.5558023452758789
0.3823087692260742,0.5558023452758789
0.3799312591552734,0.5434129714965820
0.3799312591552734,0.5434129714965820
0.3876995086669922,0.5559013366699218
0.3876995086669922,0.5559013366699218
0.3740346908569336,0.5452045440673828
0.3740346908569336,0.5452045440673828
0.3871530532836914,0.5480815887451171
0.3750251770019531,0.5480815887451171
0.3795141220092773,0.5518140792846680
0.3795141220092773,0.5518140792846680
0.3784091949462891,0.5417032241821289
0.3784091949462891,0.5417032241821289
0.3864830017089844,0.5538219451904297
0.3864830017089844,0.5538219451904297
0.3739665985107422,0.5431606292724609
0.3739665985107422,0.5431606292724609
0.3852476119995117,0.5455272674560546
0.3852476119995117,0.5455272674560546
0.3789281845092773,0.5514753341674804
0.3789281845092773,0.5514753341674804
0.3779245376586914,0.5406721115112304
0.3779245376586914,0.5406721115112304
0.3870752334594726,0.5529933929443359
0.3870752334594726,0.5529933929443359
0.3729051589965820,0.5419956207275390
0.3729051589965820,0.5419956207275390
0.3852275848388672,0.5462453842163085
0.3852275848388672,0.5462453842163085
0.3790443420410156,0.5518232345581054
0.3790443420410156,0.5518232345581054
0.3792011260986328,0.5410663604736328
0.3792011260986328,0.5410663604736328
0.3864795684814453,0.5528720855712891
0.3864795684814453,0.5528720855712891
0.3734012603759765,0.5438140869140625
0.3734012603759765,0.5438140869140625
0.3857454299926757,0.5471935272216797
0.3857454299926757,0.5471935272216797
0.3807815551757812,0.5523508071899413
0.3807815551757812,0.5523508071899413
0.3787330627441406,0.5408323287963867
0.3787330627441406,0.5408323287963867
0.3873224258422852,0.5545486450195313
0.3873224258422852,0.5545486450195313
0.3740644454956055,0.5451730728149414
0.3740644454956055,0.5451730728149414
0.3875656127929688,0.5489336013793945
0.3875656127929688,0.5489336013793945
0.3807752609252930,0.5542499542236328
0.3807752609252930,0.5542499542236328
0.3798173904418945,0.5446529388427734
0.3798173904418945,0.5446529388427734
0.3886133193969726,0.5580734252929688
0.3886133193969726,0.5580734252929688
0.3763074874877930,0.5484695434570312
0.3763074874877930,0.5484695434570312
0.3880130767822266,0.5513866424560546
0.3880130767822266,0.5513866424560546
0.3823087692260742,0.5582096099853515
0.3898109436035156,0.5575956344604492
0.3811597824096680,0.5475402832031250
0.3767646789550781,0.5475402832031250
0.3907516479492187,0.5606523513793945
0.3907516479492187,0.5606523513793945
0.3765501022338867,0.5501672744750976
0.3888113021850586,0.5501672744750976
0.3890819549560547,0.5542322158813476
0.3890819549560547,0.5542322158813476
0.3832866668701172,0.5602489471435547
0.3832866668701172,0.5602489471435547
0.3829547882080078,0.5496557235717773
0.3829547882080078,0.5496557235717773
0.3907865524291992,0.5621829986572265
0.3907865524291992,0.5621829986572265
0.3776189804077149,0.5535478591918945
0.3776189804077149,0.5535478591918945
0.3902223587036133,0.5574468612670899
0.3902223587036133,0.5574468612670899
0.3854427337646484,0.5633583068847656
0.3854427337646484,0.5633583068847656
0.3834835052490234,0.5520280838012696
0.3834835052490234,0.5520280838012696
0.3921432495117188,0.5660528182983399
0.3921432495117188,0.5660528182983399
0.3791439056396484,0.5566085815429688
0.3791439056396484,0.5566085815429688
0.3923984527587890,0.5601058959960937
0.3923984527587890,0.5601058959960937
0.3859954833984375,0.5653839111328125
0.3946283340454101,0.5653839111328125
0.3847892761230469,0.5551740646362304
0.3803569793701172,0.5551740646362304
0.3933197021484375,0.5676137924194335
0.3933197021484375,0.5676137924194335
0.3805349349975586,0.5567796707153320
0.3805349349975586,0.5567796707153320
0.3911378860473633,0.5577112197875976
0.3911378860473633,0.5577112197875976
0.3846931457519531,0.5627243041992187
0.3928510665893555,0.5627243041992187
0.3827367782592773,0.5502611160278320
0.3827367782592773,0.5502611160278320
0.3915721893310547,0.5612640380859375
0.3915721893310547,0.5612640380859375
0.3766227722167969,0.5492019653320312
0.3766227722167969,0.5492019653320312
0.3881114959716797,0.5516807556152343
0.3881114959716797,0.5516807556152343
0.3817440032958984,0.5562944412231445
0.3817440032958984,0.5562944412231445
0.3807924270629883,0.5439313888549805
0.3807924270629883,0.5439313888549805
0.3878437042236328,0.5548833847045899
0.3878437042236328,0.5548833847045899
0.3742612838745117,0.5450534820556641
0.3742612838745117,0.5450534820556641
0.3859102249145508,0.5472055435180664
0.3859102249145508,0.5472055435180664
0.3810281753540039,0.5522930145263671
0.3810281753540039,0.5522930145263671
0.3781877517700195,0.5396673202514648
0.3781877517700195,0.5396673202514648
0.3866426467895508,0.5527095794677734
0.3866426467895508,0.5527095794677734
0.3731369018554687,0.5426914215087890
0.3731369018554687,0.5426914215087890
0.3860504150390625,0.5447708129882812
0.3860504150390625,0.5447708129882812
0.3791582107543945,0.5494531631469727
0.3791582107543945,0.5494531631469727
0.3773054122924804,0.5384799957275390
0.3773054122924804,0.5384799957275390
0.3858827590942382,0.5512298583984375
0.3858827590942382,0.5512298583984375
0.3736770629882812,0.5414165496826172
0.3736770629882812,0.5414165496826172
0.3845117568969726,0.5431680679321289
0.3845117568969726,0.5431680679321289
0.3790443420410156,0.5500173568725586
0.3790443420410156,0.5500173568725586
0.3774925231933594,0.5388919830322265
0.3774925231933594,0.5388919830322265
0.3875432968139648,0.5519290924072265
0.3875432968139648,0.5519290924072265
0.3729211807250977,0.5418336868286132
0.3729211807250977,0.5418336868286132
0.3851617813110351,0.5457647323608398
0.3851617813110351,0.5457647323608398
0.3801040649414062,0.5522197723388672
0.3801040649414062,0.5522197723388672
0.3792222976684570,0.5406394958496094
0.3792222976684570,0.5406394958496094
0.3873624801635742,0.5534059524536132
0.3873624801635742,0.5534059524536132
0.3737617492675781,0.5450151443481445
0.3737617492675781,0.5450151443481445
0.3862661361694336,0.5479688644409180
0.3862661361694336,0.5479688644409180
0.3820621490478516,0.5544851303100585
0.3820621490478516,0.5544851303100585
0.3792102813720703,0.5421918869018555
0.3792102813720703,0.5421918869018555
0.3885349273681640,0.5565702438354492
0.3885349273681640,0.5565702438354492
0.3748558044433594,0.5473468780517577
0.3876262664794922,0.5473468780517577
0.3881778717041016,0.5499509811401367
0.3881778717041016,0.5499509811401367
0.3822624206542969,0.5561611175537109
