REDsignal,IRsignal
0.2881347656250000,0.2821907043457031
0.2903245925903320,0.2821907043457031
0.2886257171630859,0.2798332214355468
0.2875568389892578,0.2798332214355468
0.2894754409790039,0.2816431045532227
0.2875894546508789,0.2816431045532227
0.2895086288452148,0.2793989181518555
0.2919776916503906,0.2793989181518555
0.2896842956542969,0.2824687957763672
0.2866767883300781,0.2824687957763672
0.2882623672485352,0.2813879013061523
0.2904710769653320,0.2813879013061523
0.2882537841796875,0.2802223205566406
0.2871614456176758,0.2802223205566406
0.2909122467041015,0.2822187423706055
0.2879940032958984,0.2822187423706055
0.2887395858764648,0.2809844970703125
0.2919101715087891,0.2809844970703125
0.2900075912475586,0.2820322036743164
0.2870298385620117,0.2820322036743164
0.2885908126831054,0.2821866989135742
0.2907732009887695,0.2821866989135742
0.2903005599975586,0.2813678741455078
0.2887367248535156,0.2813678741455078
0.2904109954833984,0.2843891143798828
0.2885307312011718,0.2843891143798828
0.2893758773803711,0.2810388565063476
0.2925642013549805,0.2810388565063476
0.2900922775268555,0.2832818984985351
0.2870870590209961,0.2832818984985351
0.2904705047607422,0.2837957382202148
0.2917001724243164,0.2837957382202148
0.2899944305419922,0.2838466644287109
0.2890399932861328,0.2838466644287109
0.2912544250488281,0.2847885131835937
0.2893026351928711,0.2847885131835937
0.2900098800659179,0.2826570510864257
0.2932262420654297,0.2826570510864257
0.2925258636474609,0.2849882125854492
0.2889112472534179,0.2849882125854492
0.2901374816894531,0.2860845565795898
0.2920898437500000,0.2860845565795898
0.2903532028198242,0.2832870483398438
0.2891830444335937,0.2832870483398438
0.2904733657836914,0.2842157363891601
0.2881404876708984,0.2842157363891601
0.2902502059936523,0.2807447433471680
0.2919765472412109,0.2807447433471680
0.2896007537841797,0.2822044372558594
0.2860582351684570,0.2822044372558594
0.2872919082641601,0.2795448303222656
0.2888786315917969,0.2795448303222656
0.2867483139038086,0.2766511917114258
0.2852783203125000,0.2766511917114258
0.2881839752197266,0.2772462844848633
0.2852222442626953,0.2772462844848633
0.2853595733642578,0.2746404647827148
0.2881948471069336,0.2746404647827148
0.2860044479370117,0.2745563507080078
0.2827995300292969,0.2745563507080078
0.2836704254150391,0.2739910125732422
0.2854671478271484,0.2739910125732422
0.2853343963623047,0.2722051620483398
0.2833265304565429,0.2722051620483398
0.2852491378784179,0.2745780944824219
0.2831062316894531,0.2745780944824219
0.2838758468627929,0.2709022521972656
0.2869812011718750,0.2709022521972656
0.2854030609130859,0.2717182159423828
0.2854030609130859,0.2730691909790039
0.2832824707031250,0.2718761444091797
0.2832824707031250,0.2708833694458008
0.2861532211303711,0.2730531692504883
0.2823211669921875,0.2730531692504883
0.2838872909545898,0.2744035720825195
0.2859289169311524,0.2744035720825195
0.2844509124755859,0.2724208831787109
0.2837156295776367,0.2724208831787109
0.2857332229614258,0.2746290206909179
0.2838214874267578,0.2746290206909179
0.2858568191528320,0.2729078292846679
0.2884729385375976,0.2729078292846679
0.2862802505493164,0.2762563705444336
0.2834959030151367,0.2762563705444336
0.2852067947387695,0.2757865905761719
0.2872203826904297,0.2757865905761719
0.2853166580200195,0.2749288558959961
0.2844800949096680,0.2749288558959961
0.2880804061889649,0.2771141052246094
0.2852577209472656,0.2771141052246094
0.2860771179199219,0.2760601043701172
0.2892574310302734,0.2760601043701172
0.2873062133789062,0.2769824981689453
0.2844669342041016,0.2769824981689453
0.2859689712524414,0.2772937774658203
0.2878108978271484,0.2772937774658203
0.2874320983886718,0.2761665344238281
0.2859678268432617,0.2761665344238281
0.2876192092895508,0.2789428710937500
0.2855758666992188,0.2789428710937500
0.2864501953125000,0.2756132125854492
0.2896316528320312,0.2756132125854492
0.2869268417358398,0.2775959014892578
0.2841430664062500,0.2775959014892578
0.2873125076293945,0.2779884338378906
0.2882337570190430,0.2779884338378906
0.2867883682250976,0.2777006149291992
0.2859889984130859,0.2777006149291992
0.2879911422729492,0.2784290313720703
0.2858774185180664,0.2784290313720703
0.2865726470947266,0.2762529373168945
0.2898210525512695,0.2762529373168945
0.2889101028442383,0.2783123016357422
0.2854619979858398,0.2783123016357422
0.2867380142211914,0.2797107696533203
0.2886257171630859,0.2797107696533203
0.2871465682983398,0.2775089263916016
0.2864662170410156,0.2775089263916016
0.2878097534179687,0.2793731689453125
0.2858139038085937,0.2793731689453125
0.2882720947265625,0.2775243759155273
0.2905860900878906,0.2775243759155273
0.2884654998779297,0.2805404663085938
0.2856794357299804,0.2805404663085938
0.2873153686523438,0.2799104690551757
0.2891595840454101,0.2799104690551757
0.2877216339111328,0.2788415908813476
0.2869663238525391,0.2788415908813476
0.2900871276855468,0.2809679031372070
0.2874452590942383,0.2809679031372070
0.2880615234375000,0.2800872802734375
0.2912858963012695,0.2800872802734375
0.2893318176269531,0.2810354232788086
0.2865056991577148,0.2810354232788086
0.2875459671020508,0.2816041946411132
0.2894342422485351,0.2816041946411132
0.2896739959716797,0.2807619094848633
0.2880374908447266,0.2807619094848633
0.2899103164672852,0.2837408065795898
0.2878881454467773,0.2837408065795898
0.2888614654541016,0.2805810928344726
0.2920148849487305,0.2805810928344726
0.2896831512451172,0.2824911117553711
0.2868192672729492,0.2824911117553711
0.2894674301147461,0.2825700759887695
0.2904527664184570,0.2825700759887695
0.2884843826293945,0.2815549850463867
0.2874824523925781,0.2815549850463867
0.2889535903930664,0.2808877944946289
0.2864994049072265,0.2808877944946289
0.2862648010253906,0.2771495819091797
0.2889787673950195,0.2771495819091797
0.2879161834716797,0.2771913528442383
0.2835496902465820,0.2771913528442383
0.2844429016113281,0.2767524719238281
0.2857503890991211,0.2767524719238281
0.2839015960693359,0.2723962783813477
0.2827823638916016,0.2723962783813477
0.2840927124023437,0.2727006912231445
0.2815446853637695,0.2727006912231445
0.2840652465820312,0.2695770263671875
0.2859483718872070,0.2695770263671875
0.2828092575073242,0.2726846694946289
0.2798521041870117,0.2726846694946289
0.2811115264892578,0.2697343826293945
0.2827074050903320,0.2697343826293945
0.2797090530395508,0.2679210662841797
0.2787174224853515,0.2679210662841797
0.2847404479980469,0.2694946289062500
0.2800226211547852,0.2694946289062500
0.2806451797485351,0.2699586868286133
0.2837728500366211,0.2699586868286133
0.2814319610595703,0.2682008743286133
0.2787477493286133,0.2682008743286133
0.2798063278198242,0.2684400558471680
0.2815990447998047,0.2684400558471680
0.2833602905273437,0.2677230834960938
0.2809833526611328,0.2677230834960938
0.2821397781372070,0.2722297668457031
0.2801902770996094,0.2722297668457031
0.2811698913574219,0.2674587249755859
0.2843616485595703,0.2674587249755859
0.2809215545654297,0.2694969177246094
0.2783357620239258,0.2694969177246094
0.2836103439331055,0.2704370498657226
0.2833482742309570,0.2704370498657226
0.2822038650512695,0.2721771240234375
0.2815263748168945,0.2721771240234375
0.2835845947265625,0.2716838836669922
0.2816356658935547,0.2716838836669922
0.2825128555297852,0.2700239181518554
0.2857440948486328,0.2700239181518554
0.2862436294555664,0.2725696563720703
0.2822799682617188,0.2725696563720703
0.2831222534179688,0.2755090713500977
0.2848834991455078,0.2755090713500977
0.2837728500366211,0.2721319198608398
0.2830965042114258,0.2721319198608398
0.2839565277099609,0.2740459442138672
0.2818016052246093,0.2740459442138672
0.2861251831054688,0.2725152969360352
0.2875471115112305,0.2725152969360352
0.2853097915649414,0.2764783859252929
0.2825586318969727,0.2764783859252929
0.2842643737792969,0.2748006820678711
0.2859363555908203,0.2748006820678711
0.2846866607666015,0.2737443923950195
0.2840538024902344,0.2737443923950195
0.2875207901000976,0.2757253646850586
0.2845441818237305,0.2757253646850586
0.2851581573486328,0.2751073837280273
0.2882863998413086,0.2751073837280273
0.2861246109008789,0.2753105163574219
0.2833665847778320,0.2753105163574219
0.2841848373413086,0.2755348205566406
0.2857080459594726,0.2755348205566406
0.2864347457885742,0.2744590759277344
0.2847043991088867,0.2744590759277344
0.2865909576416015,0.2774196624755859
0.2843719482421875,0.2774196624755859
0.2854797363281250,0.2763376235961914
0.2832578659057617,0.2763376235961914
0.2866086959838867,0.2750289916992187
0.2866086959838867,0.2750289916992187
0.2873983383178711,0.2770145416259766
0.2873983383178711,0.2770145416259766
0.2849241256713867,0.2763313293457031
0.2849241256713867,0.2763313293457031
0.2842374801635742,0.2764795303344726
0.2842374801635742,0.2764795303344726
0.2873891830444336,0.2787019729614258
0.2873891830444336,0.2787019729614258
0.2868701934814453,0.2772056579589844
0.2868701934814453,0.2772056579589844
0.2883893966674805,0.2791992187500000
0.2883893966674805,0.2791992187500000
0.2838827133178711,0.2780776977539062
0.2878360748291016,0.2780776977539062
0.2881914138793945,0.2781606674194336
0.2881914138793945,0.2781606674194336
0.2885318756103515,0.2796129226684570
0.2885318756103515,0.2796129226684570
0.2869119644165039,0.2778202056884765
0.2869119644165039,0.2778202056884765
0.2859111785888672,0.2793605804443359
0.2859111785888672,0.2793605804443359
0.2863952636718750,0.2787002563476562
0.2863952636718750,0.2787002563476562
0.2886795043945312,0.2788524627685547
0.2886795043945312,0.2788524627685547
0.2886554718017578,0.2805181503295898
0.2886554718017578,0.2805181503295898
0.2850814819335937,0.2788198471069336
0.2850814819335937,0.2788198471069336
0.2892871856689453,0.2810874938964844
0.2892871856689453,0.2810874938964844
0.2876369476318359,0.2803184509277344
0.2876369476318359,0.2803184509277344
0.2893037796020508,0.2805639266967773
0.2893037796020508,0.2805639266967773
0.2867837905883789,0.2817392349243164
0.2867837905883789,0.2817392349243164
0.2880157470703125,0.2797153472900391
0.2880157470703125,0.2797153472900391
0.2893358230590820,0.2806646347045899
0.2893358230590820,0.2806646347045899
0.2864210128784180,0.2785520553588867
0.2864210128784180,0.2785520553588867
0.2851032257080078,0.2767868041992188
0.2851032257080078,0.2767868041992188
0.2866722106933594,0.2768016815185547
0.2866722106933594,0.2768016815185547
0.2850311279296875,0.2732271194458007
0.2850311279296875,0.2732271194458007
0.2852479934692383,0.2734674453735351
0.2852479934692383,0.2734674453735351
0.2799556732177734,0.2709697723388672
0.2799556732177734,0.2709697723388672
0.2836818695068359,0.2699861526489258
0.2836818695068359,0.2699861526489258
0.2832824707031250,0.2705806732177734
0.2832824707031250,0.2705806732177734
0.2817443847656250,0.2681230545043945
0.2817443847656250,0.2681230545043945
0.2806915283203125,0.2692205429077149
0.2806915283203125,0.2692205429077149
0.2807487487792968,0.2683845520019531
0.2807487487792968,0.2683845520019531
0.2830169677734375,0.2679948806762695
0.2830169677734375,0.2679948806762695
0.2824974060058594,0.2694763183593750
0.2824974060058594,0.2694763183593750
0.2790510177612305,0.2673797607421875
0.2790510177612305,0.2673797607421875
0.2828830718994140,0.2692600250244140
0.2828830718994140,0.2692600250244140
0.2809284210205078,0.2685167312622070
0.2809284210205078,0.2685167312622070
0.2829248428344727,0.2685235977172851
0.2829248428344727,0.2685235977172851
0.2806520462036133,0.2700742721557617
0.2806520462036133,0.2700742721557617
0.2821512222290039,0.2687868118286132
0.2821512222290039,0.2687868118286132
0.2842872619628906,0.2708204269409180
0.2842872619628906,0.2708204269409180
0.2819234848022461,0.2704868316650391
0.2819234848022461,0.2704868316650391
0.2817323684692383,0.2704507827758789
0.2817323684692383,0.2704507827758789
0.2841997146606445,0.2724168777465820
0.2841997146606445,0.2724168777465820
0.2834157943725586,0.2708656311035156
0.2834157943725586,0.2708656311035156
0.2849121093750000,0.2727155685424805
0.2849121093750000,0.2727155685424805
0.2805936813354492,0.2719242095947266
0.2805936813354492,0.2719242095947266
0.2849315643310547,0.2719614028930664
0.2849315643310547,0.2719614028930664
0.2852777481079101,0.2735029220581054
0.2852777481079101,0.2735029220581054
0.2837087631225586,0.2717582702636719
0.2837087631225586,0.2717582702636719
0.2827051162719726,0.2731372833251953
0.2827051162719726,0.2731372833251953
0.2831056594848633,0.2724517822265625
0.2831056594848633,0.2724517822265625
0.2850997924804687,0.2722011566162109
0.2850997924804687,0.2722011566162109
0.2849744796752929,0.2735864639282227
0.2849744796752929,0.2735864639282227
0.2815675735473633,0.2717468261718750
0.2815675735473633,0.2717468261718750
0.2854551315307617,0.2735149383544922
0.2834598541259766,0.2735149383544922
0.2837671279907226,0.2729381561279297
0.2837671279907226,0.2729381561279297
0.2853395462036133,0.2728174209594726
0.2853395462036133,0.2728174209594726
0.2830644607543945,0.2742261886596680
0.2830644607543945,0.2742261886596680
0.2843313217163086,0.2727602005004883
0.2843313217163086,0.2727602005004883
0.2860885620117187,0.2745557785034179
0.2860885620117187,0.2745557785034179
0.2839857101440429,0.2741214752197266
0.2839857101440429,0.2741214752197266
0.2836910247802734,0.2738428115844727
0.2836910247802734,0.2738428115844727
0.2861166000366211,0.2756715774536133
0.2861166000366211,0.2756715774536133
0.2853984832763672,0.2739870071411133
0.2853984832763672,0.2739870071411133
0.2865909576416015,0.2761705398559570
0.2865909576416015,0.2761705398559570
0.2823034286499023,0.2754936218261719
0.2823034286499023,0.2754936218261719
0.2868450164794922,0.2754907608032227
0.2868450164794922,0.2754907608032227
0.2869062423706055,0.2771879196166992
0.2869062423706055,0.2771879196166992
0.2858030319213867,0.2754404067993164
0.2858030319213867,0.2754404067993164
0.2850076675415039,0.2772502899169922
0.2850076675415039,0.2772502899169922
0.2853366851806641,0.2770608901977539
0.2853366851806641,0.2770608901977539
0.2879236221313476,0.2768875122070312
0.2879236221313476,0.2768875122070312
0.2875665664672851,0.2785629272460937
0.2875665664672851,0.2785629272460937
0.2841745376586914,0.2765378952026367
0.2841745376586914,0.2765378952026367
0.2879957199096679,0.2787248611450195
0.2879957199096679,0.2787248611450195
0.2860599517822265,0.2783151626586914
0.2860599517822265,0.2783151626586914
0.2880935668945312,0.2780931472778320
0.2880935668945312,0.2780931472778320
0.2858247756958008,0.2795625686645508
0.2858247756958008,0.2795625686645508
0.2871213912963867,0.2780702590942383
0.2871213912963867,0.2780702590942383
0.2891069412231445,0.2800575256347656
0.2891069412231445,0.2800575256347656
0.2867013931274414,0.2797170639038086
0.2867013931274414,0.2797170639038086
0.2863861083984375,0.2790458679199219
0.2863861083984375,0.2790458679199219
0.2886045455932617,0.2802858352661133
0.2886045455932617,0.2802858352661133
0.2870933532714844,0.2776845932006836
0.2870933532714844,0.2776845932006836
0.2878463745117187,0.2781080245971679
0.2878463745117187,0.2781080245971679
0.2824899673461914,0.2758392333984375
0.2824899673461914,0.2758392333984375
0.2858791351318359,0.2738399505615234
0.2858791351318359,0.2738399505615234
0.2853475570678711,0.2736831665039062
0.2853475570678711,0.2736831665039062
0.2829648971557617,0.2705080032348633
0.2829648971557617,0.2705080032348633
0.2815229415893555,0.2705194473266602
0.2783226013183593,0.2705194473266602
0.2810726165771484,0.2691884994506836
0.2810726165771484,0.2691884994506836
0.2827354431152344,0.2680910110473633
0.2827354431152344,0.2680910110473633
0.2823572158813477,0.2690128326416015
0.2823572158813477,0.2690128326416015
0.2786556243896484,0.2666679382324219
0.2786556243896484,0.2666679382324219
0.2825031280517578,0.2682106018066406
0.2825031280517578,0.2682106018066406
0.2805850982666016,0.2676469802856445
0.2805850982666016,0.2676469802856445
0.2821603775024414,0.2672985076904297
0.2821603775024414,0.2672985076904297
0.2798583984375000,0.2685293197631836
0.2798583984375000,0.2685293197631836
0.2810892105102539,0.2670513153076172
0.2810892105102539,0.2670513153076172
0.2829259872436523,0.2688137054443359
0.2829259872436523,0.2688137054443359
0.2807184219360351,0.2685710906982422
0.2807184219360351,0.2685710906982422
0.2805278778076172,0.2682592391967774
0.2805278778076172,0.2682592391967774
0.2831348419189453,0.2703603744506836
0.2831348419189453,0.2703603744506836
0.2825157165527344,0.2690162658691406
0.2825157165527344,0.2690162658691406
0.2840114593505859,0.2709920883178711
0.2840114593505859,0.2709920883178711
0.2796792984008789,0.2707042694091797
0.2796792984008789,0.2707042694091797
0.2841012954711914,0.2707345962524414
0.2841012954711914,0.2707345962524414
0.2843124389648438,0.2724111557006836
0.2853607177734375,0.2707695007324218
0.2825420379638672,0.2722171783447265
0.2825420379638672,0.2722171783447265
0.2827331542968750,0.2719385147094727
0.2875179290771484,0.2719385147094727
0.2849195480346680,0.2715190887451172
0.2849195480346680,0.2715190887451172
0.2845905303955078,0.2729232788085937
0.2845905303955078,0.2729232788085937
0.2810491561889648,0.2708078384399414
0.2810491561889648,0.2708078384399414
0.2849962234497070,0.2724678039550781
0.2849962234497070,0.2724678039550781
0.2828956604003906,0.2720975875854492
0.2828956604003906,0.2720975875854492
0.2846569061279297,0.2715717315673828
0.2846569061279297,0.2715717315673828
0.2824138641357422,0.2729507446289062
0.2824138641357422,0.2729507446289062
0.2836252212524414,0.2713943481445312
0.2836252212524414,0.2713943481445312
0.2856811523437500,0.2730566024780273
0.2856811523437500,0.2730566024780273
0.2831188201904297,0.2729799270629883
0.2831188201904297,0.2729799270629883
0.2828395843505859,0.2723642349243164
0.2828395843505859,0.2723642349243164
0.2853006362915039,0.2742147445678711
0.2853006362915039,0.2742147445678711
0.2843467712402344,0.2725914001464844
0.2843467712402344,0.2725914001464844
0.2859764099121094,0.2742593765258789
0.2859764099121094,0.2742593765258789
0.2815366744995117,0.2740419387817383
0.2815366744995117,0.2740419387817383
0.2859409332275391,0.2740253448486328
0.2859409332275391,0.2740253448486328
0.2864805221557617,0.2758111953735352
0.2864805221557617,0.2758111953735352
0.2850162506103516,0.2742485046386718
0.2850162506103516,0.2742485046386718
0.2845527648925781,0.2758066177368164
0.2845527648925781,0.2758066177368164
0.2847553253173828,0.2759399414062500
0.2847553253173828,0.2759399414062500
0.2868227005004882,0.2756664276123047
0.2868227005004882,0.2756664276123047
0.2869153976440429,0.2771810531616211
0.2869153976440429,0.2771810531616211
0.2835399627685547,0.2754753112792969
0.2835399627685547,0.2754753112792969
0.2876323699951172,0.2774906158447266
0.2876323699951172,0.2774906158447266
0.2859014511108398,0.2773876190185547
0.2859014511108398,0.2773876190185547
0.2874727249145508,0.2771467208862304
0.2874727249145508,0.2771467208862304
0.2852909088134766,0.2784885406494140
0.2852909088134766,0.2784885406494140
0.2865200042724609,0.2770414352416992
0.2898141860961914,0.2770414352416992
0.2884935379028320,0.2788455963134766
0.2884935379028320,0.2788455963134766
0.2862516403198242,0.2787969589233398
0.2862516403198242,0.2787969589233398
0.2860216140747070,0.2783603668212891
0.2860216140747070,0.2783603668212891
0.2884311676025391,0.2801164627075195
0.2884311676025391,0.2801164627075195
0.2877347946166992,0.2785858154296875
0.2877347946166992,0.2785858154296875
0.2892042160034179,0.2804935455322266
0.2892042160034179,0.2804935455322266
0.2847536087036133,0.2801296234130859
0.2847536087036133,0.2801296234130859
0.2889684677124023,0.2796798706054687
0.2889684677124023,0.2796798706054687
0.2890960693359375,0.2807384490966797
0.2890960693359375,0.2807384490966797
0.2890537261962891,0.2780422210693359
0.2872037887573242,0.2780422210693359
0.2859912872314453,0.2781538009643554
0.2859912872314453,0.2781538009643554
0.2852016448974609,0.2765270233154297
0.2852016448974609,0.2765270233154297
0.2865119934082031,0.2743612289428711
0.2865119934082031,0.2743612289428711
0.2853097915649414,0.2743125915527344
0.2853097915649414,0.2743125915527344
0.2811721801757812,0.2707288742065430
0.2811721801757812,0.2707288742065430
0.2845401763916016,0.2714910507202148
0.2845401763916016,0.2714910507202148
0.2818204879760742,0.2703374862670898
0.2818204879760742,0.2703374862670898
0.2832447052001953,0.2691358566284179
0.2832447052001953,0.2691358566284179
0.2809804916381836,0.2700044631958008
0.2809804916381836,0.2700044631958008
0.2817867279052734,0.2680297851562500
0.2817867279052734,0.2680297851562500
0.2837448120117188,0.2694717407226562
0.2837448120117188,0.2694717407226562
0.2811229705810547,0.2692514419555664
0.2811229705810547,0.2692514419555664
0.2808311462402344,0.2684326171875000
0.2808311462402344,0.2684326171875000
0.2831663131713867,0.2701755523681640
0.2831663131713867,0.2701755523681640
0.2821174621582031,0.2685001373291016
0.2821174621582031,0.2685001373291016
0.2838678359985352,0.2703821182250977
0.2838678359985352,0.2703821182250977
0.2796741485595703,0.2703552246093750
0.2796741485595703,0.2703552246093750
0.2839427947998047,0.2703649520874024
0.2839427947998047,0.2703649520874024
0.2847215652465820,0.2722549438476562
0.2847215652465820,0.2722549438476562
0.2833219528198242,0.2708776473999023
0.2833219528198242,0.2708776473999023
0.2832029342651367,0.2726823806762695
0.2832029342651367,0.2726823806762695
0.2832361221313476,0.2730445861816406
0.2832361221313476,0.2730445861816406
0.2854207992553711,0.2726480484008789
0.2854207992553711,0.2726480484008789
0.2854551315307617,0.2743303298950195
0.2854551315307617,0.2743303298950195
0.2822587966918945,0.2723653793334961
0.2822587966918945,0.2723653793334961
0.2862024307250977,0.2742187500000000
0.2862024307250977,0.2742187500000000
0.2842540740966797,0.2740562438964844
0.2842540740966797,0.2740562438964844
0.2857629776000977,0.2734251022338867
0.2857629776000977,0.2734251022338867
0.2837453842163086,0.2746004104614257
0.2837453842163086,0.2746004104614257
0.2845087051391602,0.2727470397949219
0.2845087051391602,0.2727470397949219
0.2863134384155273,0.2743892669677734
0.2863134384155273,0.2743892669677734
0.2839725494384766,0.2740859985351562
0.2839725494384766,0.2740859985351562
0.2837219238281250,0.2733146667480469
0.2837219238281250,0.2733146667480469
0.2859415054321289,0.2749488830566406
0.2859415054321289,0.2749488830566406
0.2850654602050781,0.2731304168701172
0.2850654602050781,0.2731304168701172
0.2864696502685547,0.2749563217163086
0.2864696502685547,0.2749563217163086
0.2821969985961914,0.2746879577636719
0.2821969985961914,0.2746879577636719
0.2862607955932617,0.2744579315185547
0.2862607955932617,0.2744579315185547
0.2865709304809570,0.2760755538940430
0.2865709304809570,0.2760755538940430
0.2853401184082031,0.2743337631225586
0.2853401184082031,0.2743337631225586
0.2851329803466797,0.2760606765747070
0.2851329803466797,0.2760606765747070
0.2850574493408203,0.2763553619384765
0.2850574493408203,0.2763553619384765
0.2874813079833984,0.2759611129760742
0.2874813079833984,0.2759611129760742
0.2873491287231445,0.2777240753173828
0.2873491287231445,0.2777240753173828
0.2840990066528320,0.2758558273315430
0.2840990066528320,0.2758558273315430
0.2881153106689453,0.2779094696044922
0.2881153106689453,0.2779094696044922
0.2860376358032227,0.2780427932739258
0.2860376358032227,0.2780427932739258
0.2879705429077148,0.2775970458984375
0.2879705429077148,0.2775970458984375
0.2861738204956055,0.2791557312011719
0.2861738204956055,0.2791557312011719
0.2870859146118164,0.2776182174682617
0.2870859146118164,0.2776182174682617
0.2892723083496094,0.2795173645019531
0.2892723083496094,0.2795173645019531
0.2867380142211914,0.2797142028808594
0.2867380142211914,0.2797142028808594
0.2866710662841797,0.2789863586425781
0.2866710662841797,0.2789863586425781
0.2890308380126953,0.2809009552001953
0.2890308380126953,0.2809009552001953
0.2879693984985351,0.2791328430175781
0.2879693984985351,0.2791328430175781
0.2898405075073242,0.2810960769653320
0.2898405075073242,0.2810960769653320
0.2856044769287109,0.2811052322387695
0.2856044769287109,0.2811052322387695
0.2896528244018555,0.2808626174926758
0.2896528244018555,0.2808626174926758
0.2902479171752930,0.2825220108032226
0.2902479171752930,0.2825220108032226
0.2887573242187500,0.2809850692749024
0.2887573242187500,0.2809850692749024
0.2886302947998047,0.2825986862182617
0.2856611251831054,0.2825986862182617
0.2883745193481445,0.2827468872070312
0.2883745193481445,0.2827468872070312
0.2902599334716797,0.2816888809204102
0.2888454437255859,0.2816888809204102
0.2899726867675781,0.2825254440307617
0.2899726867675781,0.2825254440307617
0.2861074447631836,0.2792924880981445
0.2861074447631836,0.2792924880981445
0.2891647338867188,0.2797639846801758
0.2891647338867188,0.2797639846801758
0.2863340377807617,0.2780565261840820
0.2863340377807617,0.2780565261840820
0.2869571685791015,0.2758775711059570
0.2869571685791015,0.2758775711059570
0.2843507766723632,0.2756933212280273
0.2843507766723632,0.2756933212280273
0.2843868255615234,0.2726663589477539
0.2843868255615234,0.2726663589477539
0.2857446670532227,0.2734703063964843
0.2857446670532227,0.2734703063964843
0.2830444335937500,0.2726428985595703
0.2830444335937500,0.2726428985595703
0.2826570510864257,0.2713159561157226
0.2826570510864257,0.2713159561157226
0.2846488952636719,0.2726509094238281
0.2846488952636719,0.2726509094238281
0.2836240768432617,0.2706150054931640
0.2836240768432617,0.2706150054931640
0.2850952148437500,0.2723379135131836
0.2850952148437500,0.2723379135131836
0.2808408737182617,0.2720140457153320
0.2808408737182617,0.2720140457153320
0.2847335815429687,0.2716112136840820
0.2847335815429687,0.2716112136840820
0.2850448608398438,0.2732603073120117
0.2850448608398438,0.2732603073120117
0.2838701248168945,0.2715820312500000
0.2838701248168945,0.2715820312500000
0.2840171813964844,0.2735778808593750
0.2840171813964844,0.2735778808593750
0.2838970184326172,0.2741323471069336
0.2838970184326172,0.2741323471069336
0.2863025665283203,0.2739217758178711
0.2850059509277343,0.2739217758178711
0.2863992691040039,0.2758844375610351
0.2863992691040039,0.2758844375610351
0.2833934783935547,0.2740848541259766
0.2833934783935547,0.2740848541259766
0.2873405456542968,0.2763456344604492
0.2873405456542968,0.2763456344604492
0.2852817535400390,0.2765338897705078
0.2852817535400390,0.2765338897705078
0.2872289657592773,0.2760772705078125
0.2872289657592773,0.2760772705078125
0.2855890274047851,0.2775312423706054
0.2855890274047851,0.2775312423706054
0.2862499237060547,0.2757379531860352
0.2862499237060547,0.2757379531860352
0.2883218765258789,0.2775341033935547
0.2883218765258789,0.2775341033935547
0.2856451034545898,0.2774505615234375
0.2856451034545898,0.2774505615234375
0.2856296539306640,0.2763708114624023
0.2856296539306640,0.2763708114624023
0.2876420974731445,0.2778705596923828
0.2876420974731445,0.2778705596923828
0.2863346099853515,0.2758129119873047
0.2863346099853515,0.2758129119873047
0.2880392074584961,0.2774946212768555
0.2880392074584961,0.2774946212768555
0.2838071823120117,0.2772846221923828
0.2838071823120117,0.2772846221923828
0.2876609802246093,0.2767078399658203
0.2876609802246093,0.2767078399658203
0.2881055831909179,0.2781806945800781
0.2881055831909179,0.2781806945800781
0.2865394592285156,0.2764114379882812
0.2865394592285156,0.2764114379882812
0.2864919662475586,0.2780330657958984
0.2864919662475586,0.2780330657958984
0.2861223220825195,0.2783065795898437
0.2861223220825195,0.2783065795898437
0.2882354736328125,0.2777658462524414
0.2882354736328125,0.2777658462524414
0.2884048461914062,0.2794664382934570
0.2884048461914062,0.2794664382934570
0.2852983474731445,0.2776033401489258
0.2852983474731445,0.2776033401489258
0.2892345428466797,0.2797903060913086
0.2892345428466797,0.2797903060913086
0.2874126434326172,0.2800420761108398
0.2874126434326172,0.2800420761108398
0.2890834808349609,0.2796564102172852
0.2890834808349609,0.2796564102172852
0.2874830245971680,0.2812305450439453
0.2874830245971680,0.2812305450439453
0.2882663726806641,0.2796615600585937
0.2882663726806641,0.2796615600585937
0.2903589248657226,0.2817689895629883
0.2903589248657226,0.2817689895629883
0.2880472183227539,0.2820608139038086
0.2918495178222656,0.2820608139038086
0.2881450653076172,0.2814210891723632
0.2881450653076172,0.2814210891723632
0.2904350280761719,0.2833614349365234
0.2904350280761719,0.2833614349365234
0.2895618438720703,0.2816076278686523
0.2895618438720703,0.2816076278686523
0.2912149429321289,0.2838191986083984
0.2912149429321289,0.2838191986083984
0.2871253967285156,0.2839090347290039
0.2871253967285156,0.2839090347290039
0.2911565780639648,0.2836641311645507
0.2911565780639648,0.2836641311645507
0.2916234970092773,0.2854368209838867
0.2916234970092773,0.2854368209838867
0.2904264450073242,0.2838071823120117
0.2904264450073242,0.2838071823120117
0.2904596328735352,0.2858036041259766
0.2875362396240234,0.2858036041259766
0.2902032852172852,0.2862092971801758
0.2902032852172852,0.2862092971801758
0.2925716400146484,0.2857160568237305
0.2925716400146484,0.2857160568237305
0.2925252914428711,0.2874864578247070
0.2925252914428711,0.2874864578247070
0.2892631530761718,0.2851942062377930
0.2892631530761718,0.2851942062377930
0.2928714752197266,0.2867048263549805
0.2928714752197266,0.2867048263549805
0.2901792526245117,0.2857812881469726
0.2901792526245117,0.2857812881469726
0.2912017822265625,0.2836223602294922
0.2912017822265625,0.2836223602294922
0.2886611938476563,0.2832864761352539
0.2886611938476563,0.2832864761352539
0.2883270263671875,0.2797227859497070
0.2910421371459961,0.2797227859497070
0.2896133422851562,0.2798257827758789
0.2896133422851562,0.2798257827758789
0.2861051559448242,0.2785120010375977
0.2861051559448242,0.2785120010375977
0.2854505538940429,0.2763113021850586
0.2840068817138672,0.2763113021850586
0.2870578765869141,0.2770608901977539
0.2870578765869141,0.2770608901977539
0.2854866027832031,0.2743188858032227
0.2854866027832031,0.2743188858032227
0.2869726181030273,0.2757373809814453
0.2869726181030273,0.2757373809814453
0.2826009750366211,0.2752910614013672
0.2826009750366211,0.2752910614013672
0.2863901138305664,0.2744613647460937
0.2863901138305664,0.2744613647460937
0.2869125366210937,0.2759759902954101
0.2869125366210937,0.2759759902954101
0.2852365493774414,0.2741151809692383
0.2852365493774414,0.2741151809692383
0.2852863311767578,0.2758895874023438
0.2852863311767578,0.2758895874023438
0.2850397109985351,0.2763668060302734
0.2850397109985351,0.2763668060302734
0.2871162414550781,0.2758947372436523
0.2871162414550781,0.2758947372436523
0.2875699996948242,0.2778625488281250
0.2875699996948242,0.2778625488281250
0.2845201492309570,0.2761075973510742
0.2845201492309570,0.2761075973510742
0.2885507583618164,0.2785692214965820
0.2885507583618164,0.2785692214965820
0.2867700576782227,0.2789777755737304
0.2867700576782227,0.2789777755737304
0.2884735107421875,0.2786327362060547
0.2884735107421875,0.2786327362060547
0.2888769149780273,0.2773195266723633
0.2888769149780273,0.2793874740600586
0.2888769149780273,0.2793874740600586
0.2890502929687500,0.2808231353759765
0.2894239425659180,0.2808231353759765
0.2884872436523437,0.2809993743896484
0.2884952545166016,0.2809993743896484
0.2899337768554687,0.2808654785156250
0.2874029159545898,0.2808654785156250
0.2882783889770508,0.2795288085937500
0.2916927337646484,0.2795288085937500
0.2905477523803711,0.2799882888793945
0.2871562957763672,0.2799882888793945
0.2884168624877930,0.2823663711547851
0.2894542694091797,0.2823663711547851
0.2884832382202148,0.2797050476074219
0.2884494781494141,0.2797050476074219
0.2894205093383789,0.2808403015136718
0.2868083953857422,0.2808403015136718
0.2891429901123047,0.2796552658081055
0.2918357849121094,0.2796552658081055
0.2898244857788086,0.2814256668090820
0.2869514465332031,0.2814256668090820
0.2884803771972656,0.2812133789062500
0.2895652770996094,0.2812133789062500
0.2885765075683593,0.2800849914550781
0.2886062622070312,0.2800849914550781
0.2909832000732422,0.2814216613769531
0.2879699707031250,0.2814216613769531
0.2886972427368164,0.2816265106201172
0.2921585083007812,0.2816265106201172
0.2901494979858398,0.2808706283569336
0.2873725891113281,0.2808706283569336
0.2884014129638672,0.2821535110473632
0.2895086288452148,0.2821535110473632
0.2899904251098633,0.2811544418334961
0.2893306732177734,0.2811544418334961
0.2907348632812500,0.2839605331420899
0.2882863998413086,0.2839605331420899
0.2893186569213867,0.2815406799316406
0.2928308486938476,0.2815406799316406
0.2907577514648437,0.2821969985961914
0.2879356384277343,0.2821969985961914
0.2904573440551758,0.2836709976196289
0.2911342620849609,0.2836709976196289
0.2899080276489258,0.2839776992797852
0.2900259017944336,0.2839776992797852
0.2914655685424805,0.2840761184692382
0.2890651702880859,0.2840761184692382
0.2895790100097656,0.2830633163452148
0.2931501388549805,0.2830633163452148
0.2925390243530273,0.2839776992797852
0.2890136718750000,0.2839776992797852
0.2905717849731445,0.2867792129516601
0.2917345046997070,0.2867792129516601
0.2909214019775391,0.2844383239746094
0.2910467147827148,0.2844383239746094
0.2924617767333984,0.2860553741455078
0.2899492263793945,0.2860553741455078
0.2919582366943359,0.2852691650390625
0.2950950622558594,0.2852691650390625
0.2928611755371094,0.2873788833618164
0.2900922775268555,0.2873788833618164
0.2917190551757812,0.2874933242797851
0.2928737640380859,0.2874933242797851
0.2915107727050781,0.2866733551025391
0.2916046142578125,0.2866733551025391
0.2944725036621094,0.2881204605102539
0.2911663055419922,0.2881204605102539
0.2921281814575195,0.2883493423461914
0.2955717086791992,0.2883493423461914
0.2934951782226562,0.2871763229370117
0.2904985427856445,0.2871763229370117
0.2917533874511719,0.2874710083007813
0.2925167083740234,0.2874710083007813
0.2921773910522461,0.2852537155151367
0.2912561416625977,0.2852537155151367
0.2920080184936523,0.2861852645874023
0.2890434265136719,0.2861852645874023
0.2895320892333984,0.2818971633911133
0.2925424575805664,0.2818971633911133
0.2896368026733399,0.2806686401367187
0.2862922668457031,0.2806686401367187
0.2887355804443359,0.2804718017578125
0.2887372970581055,0.2804718017578125
0.2874595642089844,0.2792821884155273
0.2871688842773437,0.2792821884155273
0.2883665084838867,0.2780891418457031
0.2856393814086914,0.2780891418457031
0.2863025665283203,0.2761064529418945
0.2896156311035156,0.2761064529418945
0.2884798049926758,0.2761877059936523
0.2849790573120117,0.2761877059936523
0.2862144470214844,0.2783935546875000
0.2872243881225586,0.2783935546875000
0.2862190246582031,0.2755382537841797
0.2862619400024414,0.2755382537841797
0.2871763229370117,0.2766975402832031
0.2846202850341797,0.2766975402832031
0.2869182586669922,0.2755840301513672
0.2896974563598633,0.2755840301513672
0.2877771377563477,0.2775661468505859
0.2848651885986328,0.2775661468505859
0.2864925384521484,0.2774614334106445
0.2876644134521484,0.2774614334106445
0.2866733551025391,0.2764806747436523
0.2868169784545898,0.2764806747436523
0.2891944885253906,0.2780942916870117
0.2863231658935547,0.2780942916870117
0.2870773315429687,0.2786384582519531
0.2907033920288086,0.2786384582519531
0.2888088226318359,0.2781023025512695
0.2859930038452148,0.2781023025512695
0.2871654510498047,0.2796741485595703
0.2883064270019531,0.2796741485595703
0.2887762069702148,0.2789474487304687
0.2882017135620117,0.2789474487304687
0.2897020339965820,0.2818330764770507
0.2872306823730469,0.2818330764770507
0.2882217407226562,0.2794372558593750
0.2918369293212891,0.2794372558593750
0.2897655487060547,0.2800123214721680
0.2868741989135742,0.2800123214721680
0.2894056320190430,0.2813867568969726
0.2900253295898437,0.2813867568969726
0.2887819290161133,0.2815561294555664
0.2888082504272461,0.2815561294555664
0.2902519226074219,0.2812929153442383
0.2876770019531250,0.2812929153442383
0.2880506515502930,0.2800489425659179
0.2916320800781250,0.2800489425659179
0.2909294128417969,0.2805324554443359
0.2873170852661133,0.2805324554443359
0.2888277053833008,0.2831565856933594
0.2899143218994141,0.2831565856933594
0.2888929367065430,0.2803699493408203
0.2889135360717773,0.2803699493408203
0.2902633666992188,0.2814548492431641
0.2876918792724609,0.2814548492431641
0.2895338058471680,0.2803699493408203
0.2925687789916992,0.2803699493408203
0.2903400421142578,0.2823429107666016
0.2874773025512695,0.2823429107666016
0.2889879226684570,0.2820716857910156
0.2900459289550781,0.2820716857910156
0.2886686325073242,0.2809415817260742
0.2887670516967774,0.2809415817260742
0.2914564132690430,0.2823045730590820
0.2882406234741211,0.2823045730590820
0.2891658782958984,0.2826215744018555
0.2927249908447265,0.2826215744018555
0.2907709121704101,0.2817255020141601
0.2879779815673828,0.2817255020141601
0.2894691467285156,0.2831027984619141
0.2904876708984375,0.2831027984619141
0.2905076980590820,0.2820425033569336
0.2901477813720703,0.2820425033569336
0.2913454055786133,0.2848485946655273
0.2888111114501953,0.2848485946655273
0.2898101806640625,0.2822427749633789
0.2933406829833984,0.2822427749633789
0.2908910751342773,0.2829626083374023
0.2880512237548828,0.2829626083374023
0.2910095214843750,0.2844749450683594
0.2913236618041992,0.2844749450683594
0.2904911041259766,0.2849000930786132
0.2906364440917968,0.2849000930786132
0.2921018600463867,0.2849058151245117
0.2895887374877930,0.2849058151245117
0.2905048370361328,0.2840600967407226
0.2941366195678711,0.2840600967407226
0.2931404113769531,0.2849418640136719
0.2898387908935547,0.2849418640136719
0.2912464141845703,0.2878463745117187
0.2923101425170898,0.2878463745117187
0.2914484024047851,0.2854660034179687
0.2916469573974609,0.2854660034179687
0.2925991058349609,0.2870183944702148
0.2901214599609375,0.2870183944702148
0.2925430297851562,0.2862155914306641
0.2953868865966797,0.2862155914306641
0.2934511184692383,0.2883665084838867
0.2906209945678711,0.2883665084838867
0.2921825408935547,0.2881204605102539
0.2931570053100586,0.2881204605102539
0.2920068740844726,0.2865949630737304
0.2919393539428711,0.2865949630737304
0.2940113067626953,0.2869508743286133
0.2906822204589843,0.2869508743286133
0.2910278320312500,0.2859781265258789
0.2940685272216797,0.2859781265258789
0.2916503906250000,0.2833236694335937
0.2882400512695312,0.2833236694335937
0.2889186859130859,0.2827371597290039
0.2894187927246094,0.2827371597290039
0.2893638610839844,0.2799053192138672
0.2882423400878906,0.2799053192138672
0.2891967773437500,0.2809947967529297
0.2863185882568359,0.2809947967529297
0.2869628906250000,0.2770763397216797
0.2902530670166015,0.2770763397216797
0.2878601074218750,0.2765790939331055
0.2847764968872070,0.2765790939331055
0.2870996475219726,0.2770700454711914
0.2874818801879883,0.2770700454711914
0.2860719680786133,0.2766992568969727
0.2860239028930664,0.2766992568969727
0.2874069213867188,0.2759777069091797
0.2847730636596680,0.2759777069091797
0.2851490020751953,0.2746175765991211
0.2886056900024414,0.2746175765991211
0.2879390716552734,0.2750553131103515
0.2843502044677734,0.2750553131103515
0.2859357833862304,0.2776565551757812
0.2869451522827148,0.2776565551757812
0.2860404968261719,0.2749660491943359
0.2861881256103516,0.2749660491943359
0.2874944686889648,0.2762506484985351
0.2849601745605468,0.2762506484985351
0.2868827819824218,0.2754140853881836
0.2900281906127929,0.2754140853881836
0.2877771377563477,0.2775220870971680
0.2850105285644531,0.2775220870971680
0.2867385864257813,0.2776456832885742
0.2878269195556640,0.2776456832885742
0.2864965438842773,0.2767684936523437
0.2867282867431640,0.2767684936523437
0.2895372390747070,0.2784793853759766
0.2863861083984375,0.2784793853759766
0.2873582839965820,0.2791734695434570
0.2910638809204101,0.2791734695434570
0.2891458511352539,0.2784833908081055
0.2864067077636719,0.2784833908081055
0.2880048751831055,0.2800220489501953
0.2890377044677734,0.2800220489501953
0.2890171051025390,0.2791076660156250
0.2887596130371093,0.2791076660156250
0.2898988723754883,0.2818164825439453
0.2872987747192383,0.2818164825439453
0.2882520675659180,0.2791374206542969
0.2918140411376953,0.2791374206542969
0.2892345428466797,0.2796409606933594
0.2863918304443359,0.2796409606933594
0.2892894744873047,0.2808912277221680
0.2894788742065429,0.2808912277221680
0.2885335922241211,0.2809661865234375
0.2886463165283203,0.2809661865234375
0.2899972915649414,0.2804380416870117
0.2873394012451172,0.2804380416870117
0.2882263183593750,0.2792112350463867
0.2917150497436523,0.2792112350463867
0.2905689239501953,0.2796815872192382
0.2871826171875000,0.2796815872192382
0.2884826660156250,0.2822536468505859
0.2894840240478516,0.2822536468505859
0.2885393142700195,0.2795539855957031
0.2886331558227539,0.2795539855957031
0.2895063400268554,0.2806468963623047
0.2868862152099609,0.2806468963623047
0.2891841888427734,0.2796066284179687
0.2920663833618164,0.2796066284179687
0.2900493621826172,0.2815618515014648
0.2871305465698242,0.2815618515014648
0.2888797760009765,0.2813272476196289
0.2897964477539062,0.2813272476196289
0.2887853622436523,0.2802240371704102
0.2889295578002929,0.2802240371704102
0.2912652969360351,0.2815738677978515
0.2882303237915039,0.2815738677978515
0.2889518737792969,0.2820270538330078
0.2925991058349609,0.2820270538330078
0.2905838012695313,0.2811492919921875
0.2877885818481445,0.2811492919921875
0.2889072418212891,0.2825695037841797
0.2899234771728516,0.2825695037841797
0.2903772354125976,0.2816516876220703
0.2897884368896484,0.2816516876220703
0.2911582946777344,0.2845418930053711
0.2886674880981445,0.2845418930053711
0.2896562576293945,0.2821031570434570
0.2933200836181640,0.2821031570434570
0.2914066314697266,0.2828510284423828
0.2886337280273437,0.2828510284423828
0.2911359786987305,0.2845252990722656
0.2916893005371093,0.2845252990722656
0.2906238555908203,0.2851089477539062
0.2908573150634766,0.2851089477539062
0.2922306060791016,0.2849390029907227
0.2897083282470703,0.2849390029907227
0.2902536392211914,0.2841270446777344
0.2939043045043945,0.2841270446777344
0.2932525634765625,0.2850225448608398
0.2897575378417969,0.2850225448608398
0.2914175033569336,0.2879465103149414
0.2923507690429688,0.2879465103149414
0.2914329528808594,0.2851627349853516
0.2915605545043945,0.2851627349853516
0.2927038192749024,0.2859060287475586
0.2899097442626953,0.2859060287475586
0.2915250778198242,0.2839977264404297
0.2943923950195312,0.2839977264404297
0.2894668579101562,0.2813432693481445
0.2915468215942383,0.2813432693481445
0.2883504867553711,0.2811819076538086
0.2848852157592773,0.2811819076538086
0.2870321273803711,0.2796106338500977
0.2870321273803711,0.2796106338500977
0.2879550933837891,0.2769853591918945
0.2879550933837891,0.2769853591918945
0.2875865936279297,0.2771072387695312
0.2875865936279297,0.2771072387695312
0.2835330963134766,0.2737192153930664
0.2835330963134766,0.2737192153930664
0.2867282867431640,0.2746101379394531
0.2867282867431640,0.2746101379394531
0.2843381881713867,0.2738725662231445
0.2843381881713867,0.2738725662231445
0.2854499816894531,0.2725158691406250
0.2854499816894531,0.2725158691406250
0.2837396621704101,0.2734920501708984
0.2837396621704101,0.2734920501708984
0.2841350555419922,0.2713846206665039
0.2841350555419922,0.2713846206665039
0.2859855651855469,0.2730165481567383
0.2859855651855469,0.2730165481567383
0.2835851669311523,0.2730600357055664
0.2835851669311523,0.2730600357055664
0.2834215164184570,0.2719945907592773
0.2834215164184570,0.2719945907592773
0.2858728408813476,0.2738176345825195
0.2856582641601562,0.2738176345825195
0.2848869323730469,0.2720043182373047
0.2848869323730469,0.2720043182373047
0.2865016937255859,0.2742353439331054
0.2865016937255859,0.2742353439331054
0.2825712203979492,0.2743143081665039
0.2825712203979492,0.2743143081665039
0.2863700866699219,0.2739732742309570
0.2863700866699219,0.2739732742309570
0.2870796203613281,0.2759525299072266
0.2870796203613281,0.2759525299072266
0.2858385086059570,0.2743881225585937
0.2858385086059570,0.2743881225585937
0.2858854293823242,0.2763221740722656
0.2858854293823242,0.2763221740722656
0.2857172012329102,0.2766906738281250
0.2857172012329102,0.2766906738281250
0.2877857208251953,0.2759971618652344
0.2877857208251953,0.2759971618652344
0.2878921508789062,0.2776662826538086
0.2878921508789062,0.2776662826538086
0.2846305847167969,0.2753877639770508
0.2846305847167969,0.2753877639770508
0.2882228851318359,0.2771741867065430
0.2882228851318359,0.2771741867065430
0.2859901428222656,0.2771015167236328
0.2859901428222656,0.2771015167236328
0.2875150680541992,0.2760326385498047
0.2875150680541992,0.2760326385498047
0.2859649658203125,0.2771919250488281
0.2859649658203125,0.2771919250488281
0.2864147186279297,0.2751588821411133
0.2864147186279297,0.2751588821411133
0.2883430480957031,0.2768262863159179
0.2883430480957031,0.2768262863159179
0.2857183456420898,0.2767381668090820
0.2857183456420898,0.2767381668090820
0.2854465484619140,0.2754495620727539
0.2854465484619140,0.2754495620727539
0.2877285003662109,0.2770923614501953
0.2877285003662109,0.2770923614501953
0.2863248825073242,0.2750713348388672
0.2863248825073242,0.2750713348388672
0.2880706787109375,0.2769269943237305
0.2880706787109375,0.2769269943237305
0.2839776992797852,0.2766918182373047
0.2839776992797852,0.2766918182373047
0.2875448226928711,0.2760612487792969
0.2875448226928711,0.2760612487792969
0.2883476257324218,0.2777423858642578
0.2883476257324218,0.2777423858642578
0.2866859436035156,0.2757831573486328
0.2866859436035156,0.2757831573486328
0.2865634918212890,0.2775552749633789
0.2865634918212890,0.2775552749633789
0.2863231658935547,0.2778413772583008
0.2863231658935547,0.2778413772583008
0.2882297515869141,0.2772010803222656
0.2882297515869141,0.2772010803222656
0.2887075424194336,0.2789400100708008
0.2887075424194336,0.2789400100708008
0.2854116439819336,0.2769504547119140
0.2854116439819336,0.2769504547119140
0.2892597198486328,0.2792095184326172
0.2892597198486328,0.2792095184326172
0.2874544143676758,0.2795225143432617
0.2874544143676758,0.2795225143432617
0.2889650344848633,0.2789491653442382
0.2889650344848633,0.2789491653442382
0.2876346588134766,0.2804574966430664
0.2867025375366211,0.2804574966430664
0.2881994247436523,0.2787975311279297
0.2881994247436523,0.2787975311279297
0.2901317596435547,0.2807865142822266
0.2901317596435547,0.2807865142822266
0.2878337860107422,0.2807441711425781
0.2878337860107422,0.2807441711425781
0.2874721527099609,0.2791717529296875
0.2874721527099609,0.2791717529296875
0.2893815994262695,0.2800901412963867
0.2888031005859375,0.2800901412963867
0.2876237869262695,0.2767616271972656
0.2876237869262695,0.2767616271972656
0.2882440567016601,0.2772348403930664
0.2882440567016601,0.2772348403930664
0.2832607269287109,0.2754838943481445
0.2832607269287109,0.2754838943481445
0.2860748291015625,0.2731361389160156
0.2860748291015625,0.2731361389160156
0.2858001708984375,0.2733283996582031
0.2858001708984375,0.2733283996582031
0.2837121963500976,0.2702236175537109
0.2837121963500976,0.2702236175537109
0.2831748962402343,0.2709777832031250
0.2799036026000977,0.2709777832031250
0.2824447631835937,0.2705698013305664
0.2824447631835937,0.2705698013305664
0.2842454910278320,0.2691209793090820
0.2842454910278320,0.2691209793090820
0.2841344833374023,0.2704284667968750
0.2841344833374023,0.2704284667968750
0.2807109832763672,0.2679708480834961
0.2807109832763672,0.2679708480834961
0.2843238830566406,0.2698196411132812
0.2843238830566406,0.2698196411132812
0.2821414947509766,0.2698991775512695
0.2821414947509766,0.2698991775512695
0.2838420867919922,0.2689195632934570
0.2838420867919922,0.2689195632934570
0.2824258804321289,0.2704141616821289
0.2824258804321289,0.2704141616821289
0.2828899383544922,0.2686408996582031
0.2828899383544922,0.2686408996582031
0.2851072311401367,0.2707752227783203
0.2818387985229492,0.2707752227783203
0.2828063964843750,0.2712810516357422
0.2828063964843750,0.2712810516357422
0.2828624725341797,0.2704399108886719
0.2828624725341797,0.2704399108886719
0.2853172302246094,0.2725296020507812
0.2850975036621093,0.2725296020507812
0.2841539382934570,0.2708227157592774
0.2841539382934570,0.2708227157592774
0.2859935760498047,0.2729227066040039
0.2859935760498047,0.2729227066040039
0.2821237564086914,0.2730525970458984
0.2821237564086914,0.2730525970458984
0.2857629776000977,0.2723407745361328
0.2857629776000977,0.2723407745361328
0.2865423202514648,0.2739732742309570
0.2865423202514648,0.2739732742309570
0.2847461700439453,0.2720283508300781
0.2847461700439453,0.2720283508300781
0.2846551895141601,0.2735240936279297
0.2846551895141601,0.2735240936279297
0.2841836929321289,0.2736219406127929
0.2841836929321289,0.2736219406127929
0.2859106063842773,0.2725633621215820
0.2859106063842773,0.2725633621215820
0.2862230300903320,0.2739709854125976
0.2862230300903320,0.2739709854125976
0.2828922271728516,0.2717216491699219
0.2828922271728516,0.2717216491699219
0.2865034103393554,0.2736328125000000
0.2865034103393554,0.2736328125000000
0.2845779418945312,0.2735532760620117
0.2845779418945312,0.2735532760620117
0.2858711242675781,0.2728466033935547
0.2858711242675781,0.2728466033935547
0.2844829559326172,0.2740648269653320
0.2844829559326172,0.2740648269653320
0.2849000930786132,0.2723379135131836
0.2849000930786132,0.2723379135131836
0.2867557525634766,0.2743188858032227
0.2867557525634766,0.2743188858032227
0.2846929550170899,0.2744544982910156
0.2846929550170899,0.2744544982910156
0.2845561981201172,0.2734022140502930
0.2845561981201172,0.2734022140502930
0.2868719100952148,0.2753047943115234
0.2868719100952148,0.2753047943115234
0.2858219146728516,0.2734056472778320
0.2858219146728516,0.2734056472778320
0.2874023437500000,0.2755828857421875
0.2874023437500000,0.2755828857421875
0.2834146499633789,0.2754838943481445
0.2834146499633789,0.2754838943481445
0.2870361328125000,0.2749448776245117
0.2870361328125000,0.2749448776245117
0.2876535415649414,0.2767318725585937
0.2876535415649414,0.2767318725585937
0.2863031387329101,0.2749237060546875
0.2863031387329101,0.2749237060546875
0.2862802505493164,0.2767559051513672
0.2862802505493164,0.2767559051513672
0.2861663818359375,0.2772771835327149
0.2861663818359375,0.2772771835327149
0.2881433486938477,0.2766048431396484
0.2881433486938477,0.2766048431396484
0.2883905410766601,0.2784399032592773
0.2883905410766601,0.2784399032592773
0.2851593017578125,0.2764022827148437
0.2851593017578125,0.2764022827148437
0.2888952255249023,0.2785446166992188
0.2888952255249023,0.2785446166992188
0.2867305755615234,0.2785789489746094
0.2867305755615234,0.2785789489746094
0.2882068634033203,0.2776634216308594
0.2882068634033203,0.2776634216308594
0.2866407394409179,0.2788633346557617
0.2866407394409179,0.2788633346557617
0.2869125366210937,0.2764606475830078
0.2869125366210937,0.2764606475830078
0.2885450363159179,0.2775444030761718
0.2885450363159179,0.2775444030761718
0.2854648590087890,0.2765596389770508
0.2854648590087890,0.2765596389770508
0.2841259002685547,0.2740264892578125
0.2841259002685547,0.2740264892578125
0.2860702514648437,0.2744390487670899
0.2860702514648437,0.2744390487670899
0.2840074539184570,0.2710807800292969
0.2840074539184570,0.2710807800292969
0.2850528717041015,0.2718143463134766
0.2850528717041015,0.2718143463134766
0.2796277999877930,0.2706510543823242
0.2796277999877930,0.2706510543823242
0.2835496902465820,0.2693435668945313
0.2835496902465820,0.2693435668945313
0.2842718124389648,0.2704730987548828
0.2842718124389648,0.2704730987548828
0.2823097229003906,0.2682500839233398
0.2850454330444336,0.2682500839233398
0.2820693969726563,0.2696674346923828
0.2793125152587890,0.2696674346923828
0.2819046020507812,0.2697664260864258
0.2819046020507812,0.2697664260864258
0.2835519790649414,0.2689430236816406
0.2835519790649414,0.2689430236816406
0.2841613769531250,0.2705640792846680
0.2830930709838867,0.2705640792846680
0.2815778732299805,0.2684549331665039
0.2815778732299805,0.2684549331665039
0.2847169876098632,0.2705778121948242
0.2847169876098632,0.2705778121948242
0.2827377319335938,0.2708690643310547
0.2827377319335938,0.2708690643310547
0.2843587875366211,0.2704107284545899
0.2843587875366211,0.2704107284545899
0.2847707748413086,0.2722766876220703
0.2847707748413086,0.2722766876220703
0.2839570999145508,0.2704593658447266
0.2839570999145508,0.2704593658447266
0.2858694076538086,0.2726343154907226
0.2858694076538086,0.2726343154907226
0.2837677001953125,0.2730165481567383
0.2837677001953125,0.2730165481567383
0.2853858947753906,0.2724283218383789
0.2853858947753906,0.2724283218383789
0.2863346099853515,0.2741111755371093
0.2863346099853515,0.2741111755371093
0.2850494384765625,0.2720787048339844
0.2850494384765625,0.2720787048339844
0.2867397308349609,0.2740110397338867
0.2867397308349609,0.2740110397338867
0.2838197708129883,0.2738353729248047
0.2838197708129883,0.2738353729248047
0.2860239028930664,0.2729450225830078
0.2860239028930664,0.2729450225830078
0.2863964080810547,0.2743331909179688
0.2863964080810547,0.2743331909179688
0.2849905014038086,0.2720912933349609
0.2849905014038086,0.2720912933349609
0.2859861373901367,0.2738771438598633
0.2859861373901367,0.2738771438598633
0.2844165802001953,0.2737129211425781
0.2844165802001953,0.2737129211425781
0.2859546661376953,0.2729965209960937
0.2859546661376953,0.2729965209960937
0.2865217208862305,0.2745843887329101
0.2865217208862305,0.2745843887329101
0.2848331451416016,0.2723814010620117
0.2848331451416016,0.2723814010620117
0.2868032455444336,0.2743474960327149
0.2868032455444336,0.2743474960327149
0.2846277236938476,0.2744247436523438
0.2846277236938476,0.2744247436523438
0.2862905502319336,0.2736585617065430
0.2862905502319336,0.2736585617065430
0.2867454528808593,0.2753774642944336
0.2870166778564453,0.2744167327880859
0.2868015289306641,0.2757522583007813
0.2873256683349609,0.2757522583007813
0.2858333587646484,0.2752223968505859
0.2859220504760742,0.2752223968505859
0.2876409530639648,0.2761213302612305
0.2849761962890625,0.2761213302612305
0.2858945846557617,0.2751874923706055
0.2897666931152343,0.2751874923706055
0.2878967285156250,0.2759994506835937
0.2850677490234375,0.2759994506835937
0.2868204116821289,0.2779397964477539
0.2875871658325195,0.2779397964477539
0.2869531631469727,0.2767244338989258
0.2872678756713867,0.2767244338989258
0.2885118484497070,0.2779947280883789
0.2858024597167969,0.2779947280883789
0.2870607376098633,0.2770620346069336
0.2908195495605468,0.2770620346069336
0.2886337280273437,0.2781990051269531
0.2860010147094726,0.2781990051269531
0.2877948760986328,0.2794406890869141
0.2887269973754883,0.2794406890869141
0.2877902984619141,0.2787923812866211
0.2879819869995117,0.2787923812866211
0.2895555496215820,0.2798406600952149
0.2867929458618164,0.2798406600952149
0.2876094818115234,0.2789611816406250
0.2914100646972656,0.2789611816406250
0.2890565872192383,0.2788324356079102
0.2863220214843750,0.2788324356079102
0.2878532409667969,0.2795362472534180
0.2883052825927734,0.2795362472534180
0.2875310897827149,0.2775306701660156
0.2874761581420898,0.2775306701660156
0.2881885528564453,0.2774202346801758
0.2850568771362305,0.2774202346801758
0.2854831695556641,0.2742628097534179
0.2888351440429687,0.2742628097534179
0.2860124588012695,0.2730274200439453
0.2829580307006836,0.2730274200439453
0.2844354629516602,0.2727458953857422
0.2846603393554688,0.2727458953857422
0.2835010528564453,0.2709056854248047
0.2837076187133789,0.2709056854248047
0.2844732284545898,0.2703792572021484
0.2815727233886718,0.2703792572021484
0.2823457717895508,0.2686672210693359
0.2811630249023437,0.2686054229736328
0.2825757980346680,0.2699369430541992
0.2833574295043945,0.2699369430541992
0.2825065612792969,0.2682014465332031
0.2828149795532227,0.2682014465332031
0.2837917327880859,0.2690517425537109
0.2811819076538086,0.2690517425537109
0.2822919845581054,0.2677808761596679
0.2860656738281250,0.2677808761596679
0.2838294982910156,0.2687719345092773
0.2811046600341797,0.2687719345092773
0.2827491760253906,0.2696817398071289
0.2836114883422852,0.2696817398071289
0.2827663421630859,0.2687147140502930
0.2832870483398438,0.2687147140502930
0.2846900939941406,0.2700571060180664
0.2820293426513672,0.2700571060180664
0.2830398559570312,0.2696468353271484
0.2870389938354492,0.2696468353271484
0.2849212646484375,0.2701114654541015
0.2822937011718750,0.2701114654541015
0.2838735580444336,0.2717290878295898
0.2847261428833008,0.2717290878295898
0.2843004226684570,0.2708593368530273
0.2846614837646484,0.2708593368530273
0.2857566833496094,0.2723848342895508
0.2830965042114258,0.2723848342895508
0.2840457916259765,0.2710218429565430
0.2879745483398438,0.2710218429565430
0.2856874465942383,0.2715505599975586
0.2830821990966797,0.2715505599975586
0.2848777770996094,0.2728219985961914
0.2854854583740234,0.2728219985961914
0.2846179962158203,0.2719842910766602
0.2851449966430664,0.2719842910766602
0.2860445022583007,0.2724849700927734
0.2834741592407227,0.2724849700927734
0.2841579437255859,0.2713165283203125
0.2879562377929688,0.2713165283203125
0.2859895706176758,0.2716661453247070
0.2832258224487305,0.2716661453247070
0.2847782135009765,0.2730686187744141
0.2854654312133789,0.2730686187744141
0.2846122741699219,0.2715900421142578
0.2850608825683594,0.2715900421142578
0.2860136032104492,0.2724534988403320
0.2833883285522461,0.2724534988403320
0.2845293045043945,0.2713708877563477
0.2882108688354492,0.2713708877563477
0.2858493804931641,0.2720993041992187
0.2833333969116211,0.2720993041992187
0.2849252700805664,0.2730005264282226
0.2856136322021484,0.2730005264282226
0.2847278594970703,0.2719539642333984
0.2851982116699219,0.2719539642333984
0.2864564895629882,0.2729478836059570
0.2837511062622070,0.2729478836059570
0.2847175598144531,0.2724014282226562
0.2884546279907226,0.2724014282226562
0.2862298965454101,0.2725175857543945
0.2837539672851562,0.2725175857543945
0.2853521347045898,0.2738325119018555
0.2860113143920898,0.2738325119018555
0.2854145050048828,0.2728694915771484
0.2858928680419922,0.2728694915771484
0.2868026733398437,0.2742273330688477
0.2842781066894531,0.2742273330688477
0.2851650238037109,0.2729948043823242
0.2890394210815430,0.2729948043823242
0.2867300033569336,0.2735172271728515
0.2841814041137695,0.2735172271728515
0.2861223220825195,0.2749723434448242
0.2867483139038086,0.2749723434448242
0.2859409332275391,0.2744195938110351
0.2864782333374024,0.2744195938110351
0.2874870300292969,0.2751852035522461
0.2849664688110352,0.2751852035522461
0.2858528137207031,0.2743623733520508
0.2897912979125977,0.2743623733520508
0.2877061843872070,0.2749546051025391
0.2850843429565429,0.2749546051025391
0.2867145538330078,0.2767684936523437
0.2874052047729492,0.2767684936523437
0.2866178512573242,0.2754438400268555
0.2872203826904297,0.2754438400268555
0.2881336212158203,0.2765825271606445
0.2855587005615234,0.2765825271606445
0.2866830825805664,0.2757888793945312
0.2904647827148437,0.2757888793945312
0.2882675170898437,0.2764846801757813
0.2855998992919922,0.2764846801757813
0.2871362686157227,0.2770975112915039
0.2876678466796875,0.2770975112915039
0.2866367340087890,0.2753087997436524
0.2869646072387695,0.2753087997436524
0.2878847122192383,0.2753997802734375
0.2848594665527344,0.2753997802734375
0.2852800369262695,0.2735441207885742
0.2887607574462890,0.2735441207885742
0.2861761093139648,0.2721845626831055
0.2831851959228516,0.2721845626831055
0.2843358993530273,0.2721158981323242
0.2846197128295898,0.2721158981323242
0.2836961746215820,0.2697212219238281
0.2838558197021484,0.2697212219238281
0.2845550537109375,0.2699998855590820
0.2816682815551758,0.2699998855590820
0.2823194503784179,0.2677419662475586
0.2859809875488281,0.2677419662475586
0.2835582733154297,0.2674650192260742
0.2808391571044922,0.2674650192260742
0.2825248718261719,0.2684074401855469
0.2830495834350586,0.2684074401855469
0.2820974349975586,0.2673465728759766
0.2825529098510742,0.2673465728759766
0.2835216522216797,0.2678277969360351
0.2808958053588867,0.2678277969360351
0.2816534042358398,0.2667720794677734
0.2854665756225586,0.2667720794677734
0.2835302352905273,0.2671754837036133
0.2808328628540039,0.2671754837036133
0.2824562072753906,0.2689464569091797
0.2831674575805664,0.2689464569091797
0.2824699401855469,0.2675788879394531
0.2830621719360352,0.2675788879394531
0.2840051651000977,0.2687770843505859
0.2814828872680664,0.2687770843505859
0.2826375961303711,0.2680961608886719
0.2865583419799805,0.2680961608886719
0.2843364715576172,0.2692148208618164
0.2819103240966797,0.2692148208618164
0.2835788726806641,0.2704793930053711
0.2843370437622070,0.2704793930053711
0.2834461212158203,0.2697504043579101
0.2840749740600586,0.2697504043579101
0.2853818893432617,0.2709674835205078
0.2826930999755859,0.2709674835205078
0.2836263656616211,0.2705205917358398
0.2875316619873047,0.2705205917358398
0.2853080749511719,0.2706459045410156
0.2828075408935547,0.2706459045410156
0.2844823837280273,0.2719945907592773
0.2850957870483398,0.2719945907592773
0.2844188690185547,0.2708026885986328
0.2849006652832031,0.2708026885986328
0.2857572555541992,0.2721015930175781
0.2831119537353515,0.2721015930175781
0.2839960098266601,0.2706167221069336
0.2878005981445312,0.2706167221069336
0.2853921890258789,0.2707717895507812
0.2828132629394531,0.2707717895507812
0.2846248626708984,0.2719104766845703
0.2850677490234375,0.2719104766845703
0.2842208862304688,0.2710779190063476
0.2848279953002930,0.2710779190063476
0.2857292175292969,0.2715059280395508
0.2830530166625976,0.2715059280395508
0.2839159011840820,0.2703643798828125
0.2876844406127930,0.2703643798828125
0.2856182098388672,0.2707929611206055
0.2829877853393555,0.2707929611206055
0.2845430374145508,0.2723831176757812
0.2851741790771484,0.2723831176757812
0.2843845367431641,0.2709314346313477
0.2848886489868164,0.2709314346313477
0.2857486724853516,0.2719242095947266
0.2831085205078125,0.2719242095947266
0.2843582153320313,0.2709634780883789
0.2880449295043945,0.2709634780883789
0.2858064651489258,0.2717800140380859
0.2833190917968750,0.2717800140380859
0.2849950790405273,0.2727819442749023
0.2856628417968750,0.2727819442749023
0.2848491668701172,0.2718120574951172
0.2854637145996093,0.2718120574951172
0.2865291595458984,0.2728654861450195
0.2838758468627929,0.2728654861450195
0.2846820831298828,0.2723178863525391
0.2886491775512695,0.2723178863525391
0.2863660812377929,0.2725107192993164
0.2839256286621094,0.2725107192993164
0.2854757308959961,0.2739469528198242
0.2861389160156250,0.2739469528198242
0.2856239318847656,0.2730325698852539
0.2861331939697265,0.2730325698852539
0.2871356964111328,0.2745849609375000
0.2844972610473633,0.2745849609375000
0.2854047775268554,0.2733455657958984
0.2894142150878906,0.2733455657958984
0.2871271133422851,0.2739801406860352
0.2846397399902343,0.2739801406860352
0.2865211486816406,0.2755376815795899
0.2871294021606445,0.2755376815795899
0.2863191604614257,0.2749048233032226
0.2869485855102539,0.2749048233032226
0.2879476547241211,0.2756595611572266
0.2853172302246094,0.2756595611572266
0.2861457824707031,0.2747961044311523
0.2900894165039062,0.2747961044311523
0.2880626678466797,0.2753551483154297
0.2853813171386719,0.2753551483154297
0.2870040893554687,0.2768886566162109
0.2875791549682617,0.2768886566162109
0.2866035461425781,0.2749443054199219
0.2869623184204101,0.2749443054199219
0.2876747131347656,0.2750736236572265
0.2847707748413086,0.2750736236572265
0.2855575561523437,0.2731035232543945
0.2889987945556641,0.2731035232543945
0.2863666534423828,0.2725124359130859
0.2833608627319336,0.2725124359130859
0.2846780776977539,0.2720855712890625
0.2849418640136719,0.2720855712890625
0.2835823059082031,0.2696731567382812
0.2838798522949219,0.2696731567382812
0.2847673416137695,0.2695203781127929
0.2817438125610351,0.2695203781127929
0.2823326110839844,0.2679147720336914
0.2859952926635742,0.2679147720336914
0.2836687088012695,0.2672750473022461
0.2808889389038086,0.2672750473022461
0.2823966979980468,0.2680904388427734
0.2829339981079101,0.2680904388427734
0.2821918487548828,0.2666284561157227
0.2826290130615234,0.2666284561157227
0.2834598541259766,0.2677734375000000
0.2807962417602539,0.2677734375000000
0.2816459655761719,0.2662605285644531
0.2855741500854492,0.2662605285644531
0.2831771850585937,0.2666599273681641
0.2806440353393554,0.2666599273681641
0.2825477600097656,0.2680612564086914
0.2830976486206054,0.2680612564086914
0.2822444915771484,0.2674850463867187
0.2829133987426758,0.2674850463867187
0.2839221954345703,0.2682323455810547
0.2813713073730469,0.2682323455810547
0.2823097229003906,0.2675502777099609
0.2862808227539063,0.2675502777099609
0.2843708038330078,0.2683954238891602
0.2818679809570312,0.2683954238891602
0.2835262298583984,0.2704668045043945
0.2842695236206055,0.2704668045043945
0.2834770202636719,0.2692823410034180
0.2842346191406250,0.2692823410034180
0.2851455688476562,0.2705881118774414
0.2825843811035156,0.2705881118774414
0.2837247848510742,0.2698196411132812
0.2875522613525390,0.2698196411132812
0.2838718414306641,0.2707660675048828
0.2838718414306641,0.2701240539550781
0.2838718414306641,0.2694402694702148
0.2850877761840820,0.2712707519531250
0.2821249008178711,0.2712707519531250
0.2836217880249023,0.2713451385498047
0.2836217880249023,0.2713451385498047
0.2849750518798828,0.2702447891235352
0.2849750518798828,0.2702447891235352
0.2854133605957031,0.2716901779174805
0.2854133605957031,0.2716901779174805
0.2836154937744140,0.2695272445678711
0.2836154937744140,0.2695272445678711
0.2854700088500977,0.2712341308593750
0.2854700088500977,0.2712341308593750
0.2836011886596679,0.2712089538574219
0.2836011886596679,0.2712089538574219
0.2848892211914062,0.2701074600219727
0.2848892211914062,0.2701074600219727
0.2849819183349609,0.2714544296264648
0.2849819183349609,0.2714544296264648
0.2839920043945313,0.2695255279541016
0.2839920043945313,0.2695255279541016
0.2856525421142578,0.2713033676147461
0.2856525421142578,0.2713033676147461
0.2837316513061524,0.2715139389038086
0.2837316513061524,0.2715139389038086
0.2847879409790039,0.2704702377319336
0.2847879409790039,0.2704702377319336
0.2857435226440430,0.2721364974975586
0.2857435226440430,0.2721364974975586
0.2843753814697266,0.2703071594238281
0.2843753814697266,0.2703071594238281
0.2860284805297851,0.2721433639526367
0.2860284805297851,0.2721433639526367
0.2838964462280273,0.2724746704101562
0.2838964462280273,0.2724746704101562
0.2856250762939453,0.2715986251831055
0.2856250762939453,0.2715986251831055
0.2863849639892578,0.2732923507690430
0.2863849639892578,0.2732923507690430
0.2849939346313476,0.2715991973876953
0.2849939346313476,0.2715991973876953
0.2863500595092773,0.2735458374023437
0.2863500595092773,0.2735458374023437
0.2849973678588867,0.2739177703857422
0.2849973678588867,0.2739177703857422
0.2864856719970703,0.2730915069580078
0.2864856719970703,0.2730915069580078
0.2872117996215820,0.2749992370605469
0.2872117996215820,0.2749992370605469
0.2854866027832031,0.2732460021972656
0.2854866027832031,0.2732460021972656
0.2876243591308594,0.2753351211547851
0.2876243591308594,0.2753351211547851
0.2860164642333984,0.2757305145263672
0.2860164642333984,0.2757305145263672
0.2874240875244141,0.2749998092651367
0.2874240875244141,0.2749998092651367
0.2877811431884765,0.2767724990844727
0.2877811431884765,0.2767724990844727
0.2868730545043945,0.2750129699707031
0.2868730545043945,0.2750129699707031
0.2885438919067383,0.2770082473754883
0.2885438919067383,0.2770082473754883
0.2866796493530273,0.2770208358764648
0.2866796493530273,0.2770208358764648
0.2874320983886718,0.2755107879638672
0.2874320983886718,0.2755107879638672
0.2880249023437500,0.2763010025024414
0.2880249023437500,0.2763010025024414
0.2860668182373047,0.2732831954956055
0.2860668182373047,0.2732831954956055
0.2869480133056641,0.2738370895385742
0.2869480133056641,0.2738370895385742
0.2840023040771484,0.2725547790527343
0.2840023040771484,0.2725547790527343
0.2849447250366211,0.2702259063720703
0.2849447250366211,0.2702259063720703
0.2850128173828125,0.2707180023193359
0.2850128173828125,0.2707180023193359
0.2830141067504883,0.2678775787353516
0.2830141067504883,0.2678775787353516
0.2839702606201172,0.2691186904907226
0.2839702606201172,0.2691186904907226
0.2822999954223633,0.2687278747558594
0.2822999954223633,0.2687278747558594
0.2835056304931641,0.2674478530883789
0.2835056304931641,0.2674478530883789
0.2839645385742187,0.2689287185668945
0.2839645385742187,0.2689287185668945
0.2821941375732422,0.2669237136840820
0.2821941375732422,0.2669237136840820
0.2841642379760742,0.2688348770141601
0.2841642379760742,0.2688348770141601
0.2824733734130859,0.2690237045288086
0.2824733734130859,0.2690237045288086
0.2838329315185547,0.2682924270629883
0.2838329315185547,0.2682924270629883
0.2842924118041992,0.2701864242553711
0.2842924118041992,0.2701864242553711
0.2834678649902344,0.2686964035034179
0.2834678649902344,0.2686964035034179
0.2853887557983398,0.2709440231323242
0.2853887557983398,0.2709440231323242
0.2837442398071289,0.2716049194335937
0.2837442398071289,0.2716049194335937
0.2849481582641601,0.2708490371704101
0.2849481582641601,0.2708490371704101
0.2861280441284180,0.2727848052978515
0.2861280441284180,0.2727848052978515
0.2848628997802734,0.2711803436279297
0.2848628997802734,0.2711803436279297
0.2865766525268554,0.2731224060058594
0.2865766525268554,0.2731224060058594
0.2844257354736328,0.2732780456542969
0.2844257354736328,0.2732780456542969
0.2860828399658203,0.2721679687500000
0.2850173950195312,0.2721679687500000
0.2867185592651367,0.2737421035766601
0.2867185592651367,0.2737421035766601
0.2852251052856445,0.2716129302978516
0.2852251052856445,0.2716129302978516
0.2864032745361328,0.2733060836791992
0.2864032745361328,0.2733060836791992
0.2848840713500976,0.2731996536254883
0.2848840713500976,0.2731996536254883
0.2860610961914062,0.2720975875854492
0.2860610961914062,0.2720975875854492
0.2866155624389649,0.2735509872436523
0.2866155624389649,0.2735509872436523
0.2847770690917968,0.2714601516723633
0.2847770690917968,0.2714601516723633
0.2866893768310547,0.2731710433959961
0.2866893768310547,0.2731710433959961
0.2849298477172851,0.2733060836791992
0.2849298477172851,0.2733060836791992
0.2861835479736328,0.2722160339355469
0.2861835479736328,0.2722160339355469
0.2864152908325195,0.2737947463989258
0.2864152908325195,0.2737947463989258
0.2853349685668945,0.2719121932983398
0.2853349685668945,0.2719121932983398
0.2870098114013672,0.2737398147583008
0.2870098114013672,0.2737398147583008
0.2851861953735351,0.2739749908447265
0.2851861953735351,0.2739749908447265
0.2862247467041015,0.2730457305908203
0.2862247467041015,0.2730457305908203
0.2872495651245117,0.2747222900390625
0.2872495651245117,0.2747222900390625
0.2859409332275391,0.2728706359863281
0.2859409332275391,0.2728706359863281
0.2875665664672851,0.2748933792114258
0.2875665664672851,0.2748933792114258
0.2854585647583008,0.2751657485961914
0.2854585647583008,0.2751657485961914
0.2872255325317383,0.2743360519409180
0.2872255325317383,0.2743360519409180
0.2879802703857422,0.2761419296264648
0.2879802703857422,0.2761419296264648
0.2866418838500976,0.2743955612182617
0.2894416809082031,0.2743955612182617
0.2879928588867187,0.2764497756958008
0.2879928588867187,0.2764497756958008
0.2866086959838867,0.2767696380615234
0.2866086959838867,0.2767696380615234
0.2881393432617188,0.2759994506835937
0.2881393432617188,0.2759994506835937
0.2888711929321289,0.2778167724609375
0.2888711929321289,0.2778167724609375
0.2871448516845703,0.2760120391845703
0.2899503707885742,0.2760120391845703
0.2891819000244141,0.2780405044555664
0.2891819000244141,0.2780405044555664
0.2873903274536133,0.2780536651611328
0.2873903274536133,0.2780536651611328
0.2884580612182617,0.2766260147094726
0.2871030807495117,0.2766260147094726
0.2883699417114258,0.2773635864257812
0.2883699417114258,0.2773635864257812
0.2867265701293945,0.2743097305297851
0.2867265701293945,0.2743097305297851
0.2876523971557617,0.2747869491577148
0.2876523971557617,0.2747869491577148
0.2849905014038086,0.2733341217041015
0.2849905014038086,0.2733341217041015
0.2850088119506836,0.2708312988281250
0.2850088119506836,0.2708312988281250
0.2852926254272461,0.2711711883544922
0.2852926254272461,0.2711711883544922
0.2832916259765625,0.2682077407836914
0.2832916259765625,0.2682077407836914
0.2845281600952148,0.2691936492919922
0.2845281600952148,0.2691936492919922
0.2820682525634766,0.2687570571899414
0.2820682525634766,0.2687570571899414
0.2834947586059570,0.2673151016235352
0.2834947586059570,0.2673151016235352
0.2840497970581055,0.2687313079833984
0.2840497970581055,0.2687313079833984
0.2825420379638672,0.2667812347412109
0.2825420379638672,0.2667812347412109
0.2837934494018555,0.2685081481933594
0.2837934494018555,0.2685081481933594
0.2824905395507812,0.2687702178955078
0.2824905395507812,0.2687702178955078
0.2837785720825195,0.2679256439208984
0.2837785720825195,0.2679256439208984
0.2846117019653320,0.2697544097900391
0.2846117019653320,0.2697544097900391
0.2829769134521484,0.2682197570800781
0.2829769134521484,0.2682197570800781
0.2851936340332031,0.2703689575195312
0.2851936340332031,0.2703689575195312
0.2836938858032226,0.2709840774536132
0.2836938858032226,0.2709840774536132
0.2851015090942383,0.2702304840087891
0.2851015090942383,0.2702304840087891
0.2855466842651367,0.2721845626831055
0.2855466842651367,0.2721845626831055
0.2846826553344726,0.2704107284545899
0.2846826553344726,0.2704107284545899
0.2863300323486328,0.2723196029663086
0.2863300323486328,0.2723196029663086
0.2845035552978515,0.2724723815917969
0.2845035552978515,0.2724723815917969
0.2854665756225586,0.2714309692382812
0.2854665756225586,0.2714309692382812
0.2863546371459961,0.2728918075561523
0.2863546371459961,0.2728918075561523
0.2849081039428711,0.2707735061645508
0.2849081039428711,0.2707735061645508
0.2863723754882813,0.2724575042724609
0.2863723754882813,0.2724575042724609
0.2842357635498047,0.2723785400390625
0.2842357635498047,0.2723785400390625
0.2856983184814453,0.2711912155151367
0.2856983184814453,0.2711912155151367
0.2862602233886719,0.2725662231445312
0.2862602233886719,0.2725662231445312
0.2847656250000000,0.2705801010131836
0.2847656250000000,0.2705801010131836
0.2859844207763672,0.2722978591918945
0.2859844207763672,0.2722978591918945
0.2845819473266601,0.2724449157714844
0.2877422332763672,0.2724449157714844
0.2858207702636719,0.2713336944580078
0.2858207702636719,0.2713336944580078
0.2864215850830078,0.2728918075561523
0.2864215850830078,0.2728918075561523
0.2846780776977539,0.2709606170654297
0.2846780776977539,0.2709606170654297
0.2865589141845703,0.2728088378906250
0.2865589141845703,0.2728088378906250
0.2849298477172851,0.2730457305908203
0.2849298477172851,0.2730457305908203
0.2861331939697265,0.2720918655395508
0.2861331939697265,0.2720918655395508
0.2864564895629882,0.2737684249877930
0.2851095199584961,0.2737684249877930
0.2855215072631836,0.2719236373901367
0.2855215072631836,0.2719236373901367
0.2872014999389648,0.2739686965942383
0.2872014999389648,0.2739686965942383
0.2855260848999023,0.2742736816406250
0.2855260848999023,0.2742736816406250
0.2864816665649414,0.2734434127807617
0.2864816665649414,0.2734434127807617
0.2876117706298828,0.2751565933227539
0.2876117706298828,0.2751565933227539
0.2863306045532226,0.2734336853027344
0.2863306045532226,0.2734336853027344
0.2879476547241211,0.2754152297973633
0.2879476547241211,0.2754152297973633
0.2859701156616211,0.2757654190063477
0.2859701156616211,0.2757654190063477
0.2876352310180664,0.2749809265136718
0.2876352310180664,0.2749809265136718
0.2884912490844727,0.2766952514648438
0.2884912490844727,0.2766952514648438
0.2870767593383789,0.2748802185058594
0.2870767593383789,0.2748802185058594
0.2881851196289062,0.2764154434204101
0.2881851196289062,0.2764154434204101
0.2865755081176758,0.2759141921997070
0.2865755081176758,0.2759141921997070
0.2872438430786133,0.2740087509155273
0.2872438430786133,0.2740087509155273
0.2872381210327148,0.2743400573730468
0.2872381210327148,0.2743400573730468
0.2846591949462891,0.2708742141723633
0.2846591949462891,0.2708742141723633
0.2857475280761719,0.2711677551269531
0.2857475280761719,0.2711677551269531
0.2832847595214844,0.2698596954345703
0.2832847595214844,0.2698596954345703
0.2837184906005859,0.2676120758056640
0.2837184906005859,0.2676120758056640
0.2834604263305664,0.2681224822998047
0.2834604263305664,0.2681224822998047
0.2827526092529297,0.2675783157348633
0.2827526092529297,0.2675783157348633
0.2820756912231445,0.2663698196411133
0.2827503204345703,0.2663698196411133
0.2834381103515625,0.2665689468383789
0.2806531906127930,0.2665689468383789
0.2815687179565430,0.2653678894042968
0.2853990554809570,0.2653678894042968
0.2831943511962891,0.2656545639038086
0.2808248519897461,0.2656545639038086
0.2823766708374023,0.2674209594726563
0.2827949523925781,0.2674209594726563
0.2821334838867187,0.2659486770629882
0.2828933715820313,0.2659486770629882
0.2835840225219726,0.2670043945312500
0.2808929443359375,0.2670043945312500
0.2821334838867187,0.2661701202392578
0.2860490798950195,0.2661701202392578
0.2837379455566406,0.2672166824340820
0.2814920425415039,0.2672166824340820
0.2832132339477539,0.2685739517211914
0.2837345123291016,0.2685739517211914
0.2831308364868164,0.2678970336914062
0.2840074539184570,0.2678970336914062
0.2849716186523437,0.2691570281982422
0.2822834014892578,0.2691570281982422
0.2832979202270507,0.2688325881958007
0.2872781753540039,0.2688325881958007
0.2850036621093750,0.2691066741943359
0.2827074050903320,0.2691066741943359
0.2842741012573242,0.2706367492675781
0.2846563339233398,0.2706367492675781
0.2842226028442383,0.2696313858032227
0.2849510192871094,0.2696313858032227
0.2856714248657227,0.2708782196044922
0.2829116821289062,0.2708782196044922
0.2837917327880859,0.2693990707397461
0.2876987457275391,0.2693990707397461
0.2853132247924804,0.2696290969848633
0.2829076766967774,0.2696290969848633
0.2846643447875977,0.2708547592163086
0.2849727630615234,0.2708547592163086
0.2841470718383789,0.2699832916259766
0.2849252700805664,0.2699832916259766
0.2856296539306640,0.2702602386474609
0.2828493118286133,0.2702602386474609
0.2836475372314453,0.2691398620605469
0.2874692916870117,0.2691398620605469
0.2853755950927734,0.2694322586059570
0.2829597473144531,0.2694322586059570
0.2845407485961914,0.2711208343505859
0.2849258422851562,0.2711208343505859
0.2841407775878906,0.2696685791015625
0.2849779129028320,0.2696685791015625
0.2857046127319336,0.2705188751220703
0.2830129623413086,0.2705188751220703
0.2840703964233398,0.2694934844970703
0.2878818511962891,0.2694934844970703
0.2855449676513672,0.2703626632690430
0.2832006454467773,0.2703626632690430
0.2847827911376953,0.2714401245117187
0.2852542877197266,0.2714401245117187
0.2844451904296875,0.2705343246459961
0.2853366851806641,0.2705343246459961
0.2863351821899414,0.2714653015136719
0.2834873199462891,0.2714653015136719
0.2845161437988281,0.2710687637329102
0.2884592056274414,0.2710687637329102
0.2861698150634766,0.2711442947387695
0.2838529586791992,0.2711442947387695
0.2855724334716797,0.2726652145385742
0.2859746932983399,0.2726652145385742
0.2854242324829102,0.2718360900878906
0.2862264633178711,0.2718360900878906
0.2868610382080078,0.2732477188110352
0.2842609405517578,0.2732477188110352
0.2852033615112304,0.2720243453979492
0.2892059326171875,0.2720243453979492
0.2867454528808593,0.2725770950317383
0.2844097137451172,0.2725770950317383
0.2863866806030274,0.2741249084472656
0.2867631912231445,0.2741249084472656
0.2861154556274414,0.2736356735229492
0.2870018005371094,0.2736356735229492
0.2876976013183594,0.2742187500000000
0.2849430084228515,0.2742187500000000
0.2859203338623047,0.2733089447021484
0.2898799896240234,0.2733089447021484
0.2876083374023438,0.2736591339111328
0.2851673126220703,0.2736591339111328
0.2866401672363281,0.2750312805175781
0.2868976593017578,0.2750312805175781
0.2859352111816406,0.2727756500244141
0.2864662170410156,0.2727756500244141
0.2867036819458008,0.2724781036376953
0.2836040496826172,0.2724781036376953
0.2843645095825195,0.2698934555053711
0.2877130508422852,0.2698934555053711
0.2848840713500976,0.2690036773681641
0.2820465087890625,0.2690036773681641
0.2832630157470703,0.2683645248413086
0.2831748962402343,0.2683645248413086
0.2821609497070313,0.2657707214355469
0.2825603485107422,0.2657707214355469
0.2830736160278320,0.2654405593872070
0.2799367904663086,0.2654405593872070
0.2807229995727539,0.2637840270996094
0.2843708038330078,0.2637840270996094
0.2817941665649414,0.2630023956298828
0.2792747497558594,0.2630023956298828
0.2807086944580078,0.2637599945068359
0.2809450149536133,0.2637599945068359
0.2803945541381836,0.2623380661010742
0.2811132431030273,0.2623380661010742
0.2816499710083007,0.2633251190185547
0.2788845062255859,0.2633251190185547
0.2798143386840820,0.2618019104003906
0.2836755752563476,0.2618019104003906
0.2813295364379882,0.2620920181274414
0.2789623260498047,0.2620920181274414
0.2807796478271484,0.2633989334106445
0.2810583114624023,0.2633989334106445
0.2803407669067383,0.2626567840576172
0.2811750411987304,0.2626567840576172
0.2818387985229492,0.2632295608520508
0.2791345596313476,0.2632295608520508
0.2800369262695312,0.2623203277587891
0.2840332031250000,0.2623203277587891
0.2819606781005859,0.2629457473754883
0.2795476913452148,0.2629457473754883
0.2813009262084961,0.2649799346923828
0.2817855834960937,0.2649799346923828
0.2811046600341797,0.2637720108032227
0.2820831298828125,0.2637720108032227
0.2827978134155273,0.2649347305297852
0.2800855636596680,0.2649347305297852
0.2813203811645508,0.2640632629394531
0.2851753234863281,0.2640632629394531
0.2827823638916016,0.2650222778320312
0.2804752349853515,0.2650222778320312
0.2821552276611328,0.2660877227783203
0.2825334548950195,0.2660877227783203
0.2817043304443359,0.2648992538452148
0.2825323104858398,0.2648992538452148
0.2834209442138672,0.2656442642211914
0.2804637908935547,0.2656442642211914
0.2814697265625000,0.2648414611816406
0.2853023529052734,0.2648414611816406
0.2828699111938476,0.2646955490112304
0.2804718017578125,0.2646955490112304
0.2821157455444336,0.2658697128295898
0.2824190139770508,0.2658697128295898
0.2818387985229492,0.2645748138427734
0.2825786590576172,0.2645748138427734
0.2831394195556641,0.2657632827758789
0.2803939819335937,0.2657632827758789
0.2812768936157227,0.2642326354980469
0.2851942062377930,0.2642326354980469
0.2827234268188477,0.2645513534545899
0.2803487777709961,0.2645513534545899
0.2822896957397461,0.2658908843994141
0.2825202941894531,0.2658908843994141
0.2818702697753906,0.2652786254882812
0.2827022552490234,0.2652786254882812
0.2833482742309570,0.2657375335693359
0.2806154251098633,0.2657375335693359
0.2816162109375000,0.2647378921508789
0.2855340957641602,0.2647378921508789
0.2832395553588867,0.2652202606201172
0.2808837890625000,0.2652202606201172
0.2825099945068359,0.2670885086059570
0.2828887939453125,0.2670885086059570
0.2822364807128906,0.2657329559326172
0.2831411361694336,0.2657329559326172
0.2837293624877930,0.2667371749877930
0.2810119628906250,0.2667371749877930
0.2822307586669922,0.2658702850341797
0.2861217498779297,0.2658702850341797
0.2837745666503906,0.2667881011962890
0.2814714431762695,0.2667881011962890
0.2831720352172851,0.2679388046264649
0.2835571289062500,0.2679388046264649
0.2828767776489258,0.2670158386230468
0.2837837219238281,0.2670158386230468
0.2845899581909180,0.2680578231811523
0.2818302154541015,0.2680578231811523
0.2827875137329102,0.2675279617309570
0.2867597579956054,0.2675279617309570
0.2844165802001953,0.2677276611328125
0.2821763992309570,0.2677276611328125
0.2837528228759765,0.2693052291870117
0.2841196060180664,0.2693052291870117
0.2837041854858398,0.2683078765869141
0.2844966888427734,0.2683078765869141
0.2850717544555664,0.2695953369140625
0.2823537826538086,0.2695953369140625
0.2832286834716797,0.2678466796875000
0.2870441436767578,0.2678466796875000
0.2844320297241211,0.2675731658935547
0.2818227767944336,0.2675731658935547
0.2834152221679687,0.2679285049438476
0.2833213806152344,0.2679285049438476
0.2821758270263672,0.2658565521240234
0.2826244354248047,0.2658565521240234
0.2827995300292969,0.2647190093994141
0.2796003341674805,0.2647190093994141
0.2800781250000000,0.2620536804199219
0.2835079193115234,0.2620536804199219
0.2809747695922851,0.2610340118408203
0.2781995773315429,0.2610340118408203
0.2795528411865234,0.2615243911743164
0.2795637130737305,0.2615243911743164
0.2786441802978515,0.2589248657226562
0.2791929244995117,0.2589248657226562
0.2796495437622070,0.2590118408203125
0.2767112731933594,0.2590118408203125
0.2776994705200195,0.2572792053222656
0.2814439773559570,0.2572792053222656
0.2788015365600586,0.2575607299804688
0.2764291763305664,0.2575607299804688
0.2780101776123047,0.2581815719604492
0.2782585144042969,0.2581815719604492
0.2774133682250977,0.2568140029907227
0.2782110214233398,0.2568140029907227
0.2790155410766602,0.2575246810913086
0.2761859893798828,0.2575246810913086
0.2770563125610351,0.2567115783691406
0.2810159683227539,0.2567115783691406
0.2785875320434570,0.2566165924072266
0.2762598037719726,0.2566165924072266
0.2779191970825195,0.2579835891723632
0.2782470703125000,0.2579835891723632
0.2777275085449218,0.2568391799926757
0.2784891128540039,0.2568391799926757
0.2791471481323242,0.2582359313964844
0.2764183044433594,0.2582359313964844
0.2774808883666992,0.2569124221801758
0.2814737319946289,0.2569124221801758
0.2789657592773437,0.2575281143188476
0.2766443252563476,0.2575281143188476
0.2787157058715820,0.2591817855834961
0.2790739059448242,0.2591817855834961
0.2783706665039062,0.2587194442749023
0.2792867660522461,0.2587194442749023
0.2799757003784180,0.2594192504882812
0.2772817611694336,0.2594192504882812
0.2783151626586914,0.2584047317504883
0.2822536468505859,0.2584047317504883
0.2799722671508789,0.2588367462158203
0.2775941848754883,0.2588367462158203
0.2792009353637695,0.2605567932128906
0.2795614242553711,0.2605567932128906
0.2788135528564453,0.2589162826538086
0.2796684265136719,0.2589162826538086
0.2801376342773437,0.2596950531005859
0.2773132324218750,0.2596950531005859
0.2784856796264648,0.2584447860717773
0.2822622299194336,0.2584447860717773
0.2798057556152344,0.2591136932373047
0.2774162292480469,0.2591136932373047
0.2791139602661133,0.2598621368408203
0.2794389724731445,0.2598621368408203
0.2786693572998047,0.2587091445922852
0.2795711517333984,0.2587091445922852
0.2802217483520508,0.2595514297485351
0.2773784637451172,0.2595514297485351
0.2783866882324219,0.2588270187377930
0.2823240280151367,0.2588270187377930
0.2798864364624024,0.2588207244873047
0.2775363922119141,0.2588207244873047
0.2790893554687500,0.2601928710937500
0.2795024871826172,0.2601928710937500
0.2790733337402344,0.2591526031494141
0.2797943115234375,0.2591526031494141
0.2804906845092773,0.2604949951171875
0.2777669906616211,0.2604949951171875
0.2787220001220703,0.2591194152832031
0.2826993942260742,0.2591194152832031
0.2802755355834961,0.2595857620239257
0.2780330657958984,0.2595857620239257
0.2798555374145508,0.2610540390014648
0.2801765441894531,0.2610540390014648
0.2794200897216797,0.2604526519775390
0.2802680969238281,0.2604526519775390
0.2809804916381836,0.2610837936401367
0.2782344818115234,0.2610837936401367
0.2791488647460937,0.2601425170898438
0.2831388473510742,0.2601425170898438
0.2810176849365234,0.2606872558593750
0.2785869598388672,0.2606872558593750
0.2803247451782226,0.2625326156616211
0.2806657791137695,0.2625326156616211
0.2799522399902344,0.2611616134643555
0.2808912277221680,0.2611616134643555
0.2815423965454101,0.2622333526611328
0.2788347244262695,0.2622333526611328
0.2800020217895507,0.2613813400268555
0.2839399337768554,0.2613813400268555
0.2801742553710938,0.2609127044677734
0.2801742553710938,0.2609127044677734
0.2784324645996094,0.2628278732299805
0.2805147171020508,0.2628278732299805
0.2801536560058593,0.2629365921020508
0.2831216812133789,0.2629365921020508
0.2811950683593750,0.2617464065551758
0.2811950683593750,0.2617464065551758
0.2816848754882812,0.2629251480102539
0.2816848754882812,0.2629251480102539
0.2795413970947265,0.2601785659790039
0.2795413970947265,0.2601785659790039
0.2806583404541015,0.2607587814331054
0.2806583404541015,0.2607587814331054
0.2784027099609375,0.2593711853027343
0.2784027099609375,0.2593711853027343
0.2784307479858398,0.2567018508911132
0.2784307479858398,0.2567018508911132
0.2780359268188476,0.2568346023559570
0.2780359268188476,0.2568346023559570
0.2761859893798828,0.2534505844116211
0.2761859893798828,0.2534505844116211
0.2769956588745117,0.2541463851928711
0.2769956588745117,0.2541463851928711
0.2748991012573242,0.2532897949218750
0.2748991012573242,0.2532897949218750
0.2751886367797852,0.2514558792114258
0.2751886367797852,0.2514558792114258
0.2759296417236328,0.2524932861328125
0.2759296417236328,0.2524932861328125
0.2743503570556641,0.2499795913696289
0.2743503570556641,0.2499795913696289
0.2755651473999023,0.2515737533569336
0.2755651473999023,0.2515737533569336
0.2735818862915039,0.2514278411865234
0.2735818862915039,0.2514278411865234
0.2748739242553711,0.2501569747924804
0.2748739242553711,0.2501569747924804
0.2755044937133789,0.2516098022460938
0.2755044937133789,0.2516098022460938
0.2740877151489258,0.2495326995849609
0.2740877151489258,0.2495326995849609
0.2751754760742187,0.2513219833374024
0.2751754760742187,0.2513219833374024
0.2739961624145508,0.2513969421386719
0.2739961624145508,0.2513969421386719
0.2750495910644531,0.2503824234008789
0.2750495910644531,0.2503824234008789
0.2758197784423828,0.2521442413330078
0.2758197784423828,0.2521442413330078
0.2742364883422851,0.2503910064697266
0.2771249771118164,0.2503910064697266
0.2761087417602539,0.2524457931518554
0.2761087417602539,0.2524457931518554
0.2747440338134766,0.2527256011962891
0.2747440338134766,0.2527256011962891
0.2758180618286133,0.2518838882446289
0.2758180618286133,0.2518838882446289
0.2762844085693359,0.2535713195800781
0.2762844085693359,0.2535713195800781
0.2752922058105469,0.2515920639038086
0.2752922058105469,0.2515920639038086
0.2767484664916992,0.2533819198608399
0.2767484664916992,0.2533819198608399
0.2751079559326172,0.2533584594726562
0.2751079559326172,0.2533584594726562
0.2757493972778320,0.2520950317382812
0.2757493972778320,0.2520950317382812
0.2767129898071289,0.2536090850830078
0.2767129898071289,0.2536090850830078
0.2753099441528320,0.2515239715576172
0.2780616760253906,0.2515239715576172
0.2766128540039062,0.2532457351684570
0.2766128540039062,0.2532457351684570
0.2747337341308594,0.2532875061035156
0.2747337341308594,0.2532875061035156
0.2760709762573242,0.2521785736083984
0.2760709762573242,0.2521785736083984
0.2769144058227539,0.2537956237792969
0.2769144058227539,0.2537956237792969
0.2754861831665039,0.2518918991088867
0.2754861831665039,0.2518918991088867
0.2765722274780273,0.2537578582763672
0.2765722274780273,0.2537578582763672
0.2754890441894531,0.2540222167968750
0.2754890441894531,0.2540222167968750
0.2766242980957031,0.2530426025390625
0.2766242980957031,0.2530426025390625
0.2773189544677734,0.2547746658325195
0.2773189544677734,0.2547746658325195
0.2757350921630859,0.2528720855712890
0.2757350921630859,0.2528720855712890
0.2775661468505859,0.2548112869262695
0.2775661468505859,0.2548112869262695
0.2761745452880859,0.2550527572631836
0.2761745452880859,0.2550527572631836
0.2771747589111328,0.2541286468505859
0.2771747589111328,0.2541286468505859
0.2776393890380859,0.2558486938476562
0.2776393890380859,0.2558486938476562
0.2766609191894531,0.2538797378540039
0.2766609191894531,0.2538797378540039
0.2781246185302734,0.2558326721191406
0.2781246185302734,0.2558326721191406
0.2766855239868164,0.2560003280639648
0.2766855239868164,0.2560003280639648
0.2773578643798828,0.2550928115844727
0.2773578643798828,0.2550928115844727
0.2785451889038086,0.2567853927612305
0.2785451889038086,0.2567853927612305
0.2772045135498047,0.2548719406127929
0.2772045135498047,0.2548719406127929
0.2786830902099609,0.2569089889526367
0.2786830902099609,0.2569089889526367
0.2769338607788086,0.2570634841918945
0.2769338607788086,0.2570634841918945
0.2783157348632813,0.2561124801635742
0.2783157348632813,0.2561124801635742
0.2791540145874024,0.2578102111816406
0.2791540145874024,0.2578102111816406
0.2777950286865234,0.2559288024902344
0.2777950286865234,0.2559288024902344
0.2789714813232422,0.2579366683959961
0.2789714813232422,0.2579366683959961
0.2778345108032226,0.2581008911132812
0.2778345108032226,0.2581008911132812
0.2788742065429687,0.2569776535034179
0.2788742065429687,0.2569776535034179
0.2794584274291992,0.2583904266357422
0.2794584274291992,0.2583904266357422
0.2774803161621094,0.2557416915893554
0.2774803161621094,0.2557416915893554
0.2786916732788086,0.2566223144531250
0.2786916732788086,0.2566223144531250
0.2764692306518555,0.2553497314453125
0.2764692306518555,0.2553497314453125
0.2766008377075195,0.2527238845825195
0.2766008377075195,0.2527238845825195
0.2761236190795898,0.2528108596801757
0.2761236190795898,0.2528108596801757
0.2742628097534179,0.2493347167968750
0.2742628097534179,0.2493347167968750
0.2750604629516601,0.2499429702758789
0.2750604629516601,0.2499429702758789
0.2729181289672851,0.2490972518920898
0.2729181289672851,0.2490972518920898
0.2731613159179687,0.2471940994262695
0.2731613159179687,0.2471940994262695
0.2738782882690430,0.2481931686401367
0.2738782882690430,0.2481931686401367
0.2722698211669922,0.2458047866821289
0.2722698211669922,0.2458047866821289
0.2735149383544922,0.2473480224609375
0.2735149383544922,0.2473480224609375
0.2715854644775391,0.2471546173095703
0.2715854644775391,0.2471546173095703
0.2728597640991211,0.2458963394165039
0.2728597640991211,0.2458963394165039
0.2734994888305664,0.2474344253540039
0.2734994888305664,0.2474344253540039
0.2720981597900390,0.2453063964843750
0.2720981597900390,0.2453063964843750
0.2731206893920898,0.2471254348754883
0.2731206893920898,0.2471254348754883
0.2720037460327148,0.2471992492675781
0.2720037460327148,0.2471992492675781
0.2730165481567383,0.2462619781494141
0.2730165481567383,0.2462619781494141
0.2739051818847656,0.2480764389038086
0.2739051818847656,0.2480764389038086
0.2723093032836914,0.2462247848510742
0.2723093032836914,0.2462247848510742
0.2741855621337890,0.2483453750610352
0.2741855621337890,0.2483453750610352
0.2728912353515625,0.2486909866333008
0.2728912353515625,0.2486909866333008
0.2739715576171875,0.2478504180908203
0.2744825363159180,0.2495029449462891
0.2734199523925781,0.2475053787231445
0.2734199523925781,0.2475053787231445
0.2748218536376953,0.2493364334106445
0.2718429565429688,0.2493364334106445
0.2732683181762695,0.2492517471313477
0.2732683181762695,0.2492517471313477
0.2738651275634765,0.2479871749877930
0.2738651275634765,0.2479871749877930
0.2748716354370117,0.2495149612426758
0.2748716354370117,0.2495149612426758
0.2734371185302734,0.2473068237304688
0.2734371185302734,0.2473068237304688
0.2747669219970703,0.2491029739379883
0.2747669219970703,0.2491029739379883
0.2728591918945312,0.2491899490356445
0.2728591918945312,0.2491899490356445
0.2742874145507813,0.2480655670166015
0.2742874145507813,0.2480655670166015
0.2750015258789062,0.2496952056884766
0.2735172271728515,0.2496952056884766
0.2736242294311523,0.2477960586547852
0.2736242294311523,0.2477960586547852
0.2748390197753906,0.2496305465698242
0.2748390197753906,0.2496305465698242
0.2736368179321289,0.2498805999755859
0.2736368179321289,0.2498805999755859
0.2748613357543945,0.2488986968994140
0.2748613357543945,0.2488986968994140
0.2755542755126953,0.2507703781127930
0.2755542755126953,0.2507703781127930
0.2739177703857422,0.2488025665283203
0.2739177703857422,0.2488025665283203
0.2758077621459961,0.2508281707763672
0.2758077621459961,0.2508281707763672
0.2743509292602539,0.2511646270751953
0.2743509292602539,0.2511646270751953
0.2754735946655273,0.2502113342285156
0.2754735946655273,0.2502113342285156
0.2760131835937500,0.2520635604858398
0.2760131835937500,0.2520635604858398
0.2750581741333007,0.2502021789550781
0.2750581741333007,0.2502021789550781
0.2765882492065430,0.2521900177001953
0.2765882492065430,0.2521900177001953
0.2751222610473633,0.2524229049682617
0.2751222610473633,0.2524229049682617
0.2760538101196289,0.2515062332153320
0.2760538101196289,0.2515062332153320
0.2771289825439453,0.2532611846923828
0.2771289825439453,0.2532611846923828
0.2758106231689453,0.2513637542724609
0.2758106231689453,0.2513637542724609
0.2773372650146484,0.2533916473388672
0.2773372650146484,0.2533916473388672
0.2754781723022461,0.2534717559814453
0.2754781723022461,0.2534717559814453
0.2768846511840820,0.2524280548095703
0.2768846511840820,0.2524280548095703
0.2776039123535156,0.2540548324584961
0.2776039123535156,0.2540548324584961
0.2762998580932617,0.2521156311035156
0.2762998580932617,0.2521156311035156
0.2774442672729492,0.2539569854736328
0.2774442672729492,0.2539569854736328
0.2762100219726563,0.2541223526000976
0.2792295455932617,0.2541223526000976
0.2772903442382812,0.2530025482177734
0.2772903442382812,0.2530025482177734
0.2779827117919922,0.2547540664672852
0.2779827117919922,0.2547540664672852
0.2763416290283203,0.2527565002441406
0.2763416290283203,0.2527565002441406
0.2780977249145508,0.2547231674194336
0.2780977249145508,0.2547231674194336
0.2767261505126953,0.2549423217773437
0.2795585632324218,0.2549423217773437
0.2778493881225586,0.2540027618408203
0.2778493881225586,0.2540027618408203
0.2782075881958008,0.2556461334228515
0.2782075881958008,0.2556461334228515
0.2772520065307617,0.2538871765136719
0.2772520065307617,0.2538871765136719
0.2788244247436523,0.2558315277099609
0.2788244247436523,0.2558315277099609
0.2772851943969726,0.2561216354370117
0.2772851943969726,0.2561216354370117
0.2781515121459961,0.2551397323608398
0.2781515121459961,0.2551397323608398
0.2792352676391601,0.2567533493041992
0.2792352676391601,0.2567533493041992
0.2777687072753906,0.2544187545776367
0.2777687072753906,0.2544187545776367
0.2789051055908203,0.2556833267211914
0.2789051055908203,0.2556833267211914
0.2764011383056640,0.2546659469604492
0.2764011383056640,0.2546659469604492
0.2770305633544922,0.2522094726562500
0.2770305633544922,0.2522094726562500
0.2768629074096680,0.2523164749145508
0.2768629074096680,0.2523164749145508
0.2746158599853515,0.2487350463867187
0.2746158599853515,0.2487350463867187
0.2749008178710937,0.2491779327392578
0.2749008178710937,0.2491779327392578
0.2729598999023438,0.2480993270874023
0.2729598999023438,0.2480993270874023
0.2735755920410156,0.2459627151489258
0.2735755920410156,0.2459627151489258
0.2738187789916992,0.2468931198120117
0.2738187789916992,0.2468931198120117
0.2717422485351562,0.2442575454711914
0.2717422485351562,0.2442575454711914
0.2733478546142578,0.2457853317260742
0.2733478546142578,0.2457853317260742
0.2716833114624023,0.2455272674560547
0.2716833114624023,0.2455272674560547
0.2726045608520508,0.2443262100219726
0.2726045608520508,0.2443262100219726
0.2729484558105469,0.2457933425903320
0.2729484558105469,0.2457933425903320
0.2718046188354492,0.2436790466308594
0.2747194290161133,0.2436790466308594
0.2733512878417969,0.2454917907714844
0.2702671051025390,0.2454917907714844
0.2717159271240234,0.2455598831176758
0.2746341705322266,0.2455598831176758
0.2724941253662109,0.2445596694946289
0.2724941253662109,0.2445596694946289
0.2736019134521484,0.2463300704956055
0.2736019134521484,0.2463300704956055
0.2723276138305664,0.2445573806762695
0.2723276138305664,0.2445573806762695
0.2739955902099609,0.2467454910278320
0.2739955902099609,0.2467454910278320
0.2723070144653320,0.2470493316650391
0.2723070144653320,0.2470493316650391
0.2738782882690430,0.2462991714477539
0.2738782882690430,0.2462991714477539
0.2746662139892578,0.2480638504028320
0.2746662139892578,0.2480638504028320
0.2732929229736328,0.2460817337036133
0.2732929229736328,0.2460817337036133
0.2745317459106445,0.2478990554809570
0.2745317459106445,0.2478990554809570
0.2730972290039063,0.2479997634887695
0.2730972290039063,0.2479997634887695
0.2742061614990234,0.2466888427734375
0.2742061614990234,0.2466888427734375
0.2748424530029297,0.2482406616210937
0.2748424530029297,0.2482406616210937
0.2730583190917968,0.2460056304931640
0.2730583190917968,0.2460056304931640
0.2747491836547851,0.2477485656738281
0.2747491836547851,0.2477485656738281
0.2731899261474609,0.2477697372436523
0.2731899261474609,0.2477697372436523
0.2742393493652344,0.2466144561767578
0.2742393493652344,0.2466144561767578
0.2746393203735352,0.2482721328735351
0.2746393203735352,0.2482721328735351
0.2735172271728515,0.2462574005126953
0.2735172271728515,0.2462574005126953
0.2751176834106445,0.2482326507568359
0.2751176834106445,0.2482326507568359
0.2734468460083008,0.2484249114990234
0.2734468460083008,0.2484249114990234
0.2744127273559570,0.2474916458129883
0.2744127273559570,0.2474916458129883
0.2754993438720703,0.2492786407470703
0.2754993438720703,0.2492786407470703
0.2742336273193359,0.2474218368530273
0.2742336273193359,0.2474218368530273
0.2758083343505859,0.2494697570800781
0.2758083343505859,0.2494697570800781
0.2739692687988281,0.2498079299926758
0.2770088195800781,0.2498079299926758
0.2755926132202148,0.2488981246948242
0.2755926132202148,0.2488981246948242
0.2763582229614258,0.2507543563842773
0.2763582229614258,0.2507543563842773
0.2750427246093750,0.2489736557006836
0.2750427246093750,0.2489736557006836
0.2763874053955078,0.2510404586791992
0.2763874053955078,0.2510404586791992
0.2751960754394531,0.2512836456298828
0.2751960754394531,0.2512836456298828
0.2764526367187500,0.2504516601562500
0.2764526367187500,0.2504516601562500
0.2772834777832031,0.2522460937500000
0.2772834777832031,0.2522460937500000
0.2756332397460937,0.2503995895385742
0.2756332397460937,0.2503995895385742
0.2776044845581054,0.2524875640869140
0.2776044845581054,0.2524875640869140
0.2760623931884765,0.2527364730834961
0.2760623931884765,0.2527364730834961
0.2773172378540039,0.2518918991088867
0.2773172378540039,0.2518918991088867
0.2777881622314453,0.2536554336547852
0.2777881622314453,0.2536554336547852
0.2767850875854492,0.2517562866210937
0.2767850875854492,0.2517562866210937
0.2783964157104492,0.2537263870239257
0.2783964157104492,0.2537263870239257
0.2767850875854492,0.2538888931274414
0.2798040390014648,0.2538888931274414
0.2776674270629882,0.2528337478637695
0.2776674270629882,0.2528337478637695
0.2787157058715820,0.2545440673828125
0.2787157058715820,0.2545440673828125
0.2772651672363281,0.2525156021118164
0.2772651672363281,0.2525156021118164
0.2788009643554688,0.2545412063598633
0.2788009643554688,0.2545412063598633
0.2769412994384766,0.2546585083007812
0.2769412994384766,0.2546585083007812
0.2784902572631836,0.2537441253662109
0.2784902572631836,0.2537441253662109
0.2793331146240234,0.2555007934570312
0.2793331146240234,0.2555007934570312
0.2778379440307617,0.2536428451538086
0.2778379440307617,0.2536428451538086
0.2792295455932617,0.2556409835815430
0.2792295455932617,0.2556409835815430
0.2779140472412109,0.2559127807617188
0.2779140472412109,0.2559127807617188
0.2792501449584961,0.2549308776855468
0.2792501449584961,0.2549308776855468
0.2799465179443359,0.2567956924438476
0.2799465179443359,0.2567956924438476
0.2783763885498047,0.2548805236816406
0.2783763885498047,0.2548805236816406
0.2803064346313476,0.2570079803466797
0.2803064346313476,0.2570079803466797
0.2787580490112305,0.2572368621826172
0.2787580490112305,0.2572368621826172
0.2799997329711914,0.2563098907470703
0.2799997329711914,0.2563098907470703
0.2803127288818359,0.2578353881835938
0.2803127288818359,0.2578353881835938
0.2790578842163086,0.2554956436157226
0.2790578842163086,0.2554956436157226
0.2803144454956055,0.2567590713500976
0.2803144454956055,0.2567590713500976
0.2780284881591797,0.2558807373046875
0.2780284881591797,0.2558807373046875
0.2782585144042969,0.2534420013427734
0.2782585144042969,0.2534420013427734
0.2783432006835938,0.2535976409912109
0.2783432006835938,0.2535976409912109
0.2761493682861328,0.2500534057617188
0.2761493682861328,0.2500534057617188
0.2768508911132813,0.2506113052368164
0.2768508911132813,0.2506113052368164
0.2741312026977539,0.2494176864624023
0.2741312026977539,0.2494176864624023
0.2751245498657227,0.2474184036254883
0.2751245498657227,0.2474184036254883
0.2753505706787109,0.2482841491699219
0.2753505706787109,0.2482841491699219
0.2735687255859375,0.2457366943359375
0.2735687255859375,0.2457366943359375
0.2747062683105468,0.2472484588623047
0.2747062683105468,0.2472484588623047
0.2730875015258789,0.2470092773437500
0.2730875015258789,0.2470092773437500
0.2742771148681640,0.2458471298217773
0.2742771148681640,0.2458471298217773
0.2747972488403320,0.2473972320556641
0.2747972488403320,0.2473972320556641
0.2731573104858399,0.2453664779663086
0.2731573104858399,0.2453664779663086
0.2750541687011719,0.2472782135009766
0.2750541687011719,0.2472782135009766
0.2734113693237304,0.2474853515625000
0.2734113693237304,0.2474853515625000
0.2747434616088867,0.2466344833374023
0.2747434616088867,0.2466344833374023
0.2751377105712891,0.2484649658203125
0.2751377105712891,0.2484649658203125
0.2742467880249023,0.2467214584350586
0.2742467880249023,0.2467214584350586
0.2760892868041992,0.2489324569702148
0.2760892868041992,0.2489324569702148
0.2744407653808594,0.2494039535522461
0.2744407653808594,0.2494039535522461
0.2756549835205078,0.2486120223999023
0.2756549835205078,0.2486120223999023
0.2767101287841797,0.2504133224487304
0.2767101287841797,0.2504133224487304
0.2752922058105469,0.2484540939331055
0.2752922058105469,0.2484540939331055
0.2769275665283203,0.2503068923950195
0.2769275665283203,0.2503068923950195
0.2747674942016601,0.2502937316894531
0.2747674942016601,0.2502937316894531
0.2762792587280273,0.2490291595458984
0.2762792587280273,0.2490291595458984
0.2768280029296875,0.2504625320434570
0.2768280029296875,0.2504625320434570
0.2751897811889648,0.2483161926269531
0.2751897811889648,0.2483161926269531
0.2765052795410156,0.2500139236450195
0.2734205245971680,0.2500139236450195
0.2749683380126953,0.2499813079833984
0.2781406402587890,0.2499813079833984
0.2762386322021484,0.2488992691040039
0.2762386322021484,0.2488992691040039
0.2768239974975586,0.2505403518676758
0.2768239974975586,0.2505403518676758
0.2750759124755859,0.2485141754150391
0.2750759124755859,0.2485141754150391
0.2770998001098633,0.2505020141601562
0.2770998001098633,0.2505020141601562
0.2754112243652344,0.2507171630859375
0.2754112243652344,0.2507171630859375
0.2767084121704101,0.2498073577880859
0.2755050659179688,0.2498073577880859
0.2771169662475586,0.2515514373779297
0.2771169662475586,0.2515514373779297
0.2761144638061523,0.2497243881225586
0.2761144638061523,0.2497243881225586
0.2778436660766602,0.2517997741699219
0.2778436660766602,0.2517997741699219
0.2760835647583008,0.2521362304687500
0.2793617248535156,0.2521362304687500
0.2772474288940430,0.2512241363525390
0.2772474288940430,0.2512241363525390
0.2782258987426758,0.2530889511108398
0.2782258987426758,0.2530889511108398
0.2770357131958008,0.2512722015380859
0.2770357131958008,0.2512722015380859
0.2786767959594726,0.2532754898071289
0.2786767959594726,0.2532754898071289
0.2766197204589844,0.2535175323486328
0.2766197204589844,0.2535175323486328
0.2783506393432617,0.2526403427124023
0.2783506393432617,0.2526403427124023
0.2790235519409179,0.2543466567993164
0.2790235519409179,0.2543466567993164
0.2776611328125000,0.2525402069091797
0.2776611328125000,0.2525402069091797
0.2791540145874024,0.2543809890747070
0.2791540145874024,0.2543809890747070
0.2775581359863281,0.2546579360961914
0.2775581359863281,0.2546579360961914
0.2790349960327148,0.2536491394042968
0.2790349960327148,0.2536491394042968
0.2795282363891601,0.2553531646728516
0.2795282363891601,0.2553531646728516
0.2779397964477539,0.2534471511840820
0.2779397964477539,0.2534471511840820
0.2799522399902344,0.2553886413574218
0.2799522399902344,0.2553886413574218
0.2782098770141602,0.2555694580078125
0.2814067840576172,0.2555694580078125
0.2795385360717773,0.2546773910522461
0.2795385360717773,0.2546773910522461
0.2798337936401367,0.2564208984375000
0.2798337936401367,0.2564208984375000
0.2787883758544922,0.2543684005737304
0.2787883758544922,0.2543684005737304
0.2805215835571289,0.2564460754394531
0.2805215835571289,0.2564460754394531
0.2787351608276367,0.2567333221435547
0.2787351608276367,0.2567333221435547
0.2798995971679688,0.2557657241821289
0.2798995971679688,0.2557657241821289
0.2808460235595703,0.2574909210205078
0.2808460235595703,0.2574909210205078
0.2794498443603515,0.2555288314819336
0.2794498443603515,0.2555288314819336
0.2810926437377930,0.2572952270507812
0.2810926437377930,0.2572952270507812
0.2786590576171875,0.2569982528686524
0.2786590576171875,0.2569982528686524
0.2800203323364258,0.2552038192749023
0.2800203323364258,0.2552038192749023
0.2801479339599609,0.2558177947998047
0.2801479339599609,0.2558177947998047
0.2779335021972656,0.2526334762573242
0.2779335021972656,0.2526334762573242
0.2785577774047852,0.2531215667724609
0.2750701904296875,0.2531215667724609
0.2761659622192383,0.2518135070800781
0.2761659622192383,0.2518135070800781
0.2768875122070312,0.2496236801147461
0.2768875122070312,0.2496236801147461
0.2767564773559570,0.2502199172973633
0.2767564773559570,0.2502199172973633
0.2746885299682617,0.2473543167114258
0.2746885299682617,0.2473543167114258
0.2763845443725586,0.2487087249755859
0.2763845443725586,0.2487087249755859
0.2742193222045898,0.2483934402465820
0.2742193222045898,0.2483934402465820
0.2754283905029297,0.2470899581909179
0.2754283905029297,0.2470899581909179
0.2756326675415039,0.2485027313232422
0.2756326675415039,0.2485027313232422
0.2744281768798828,0.2463981628417969
0.2744281768798828,0.2463981628417969
0.2761327743530274,0.2482744216918945
0.2761327743530274,0.2482744216918945
0.2742193222045898,0.2484100341796875
0.2742193222045898,0.2484100341796875
0.2753803253173828,0.2473886489868164
0.2753803253173828,0.2473886489868164
0.2762844085693359,0.2491241455078125
0.2751995086669922,0.2491241455078125
0.2751005172729492,0.2473491668701172
0.2751005172729492,0.2473491668701172
0.2768903732299804,0.2495618820190429
0.2768903732299804,0.2495618820190429
0.2748029708862305,0.2499475479125977
0.2748029708862305,0.2499475479125977
0.2768033981323242,0.2492219924926758
0.2768033981323242,0.2492219924926758
0.2774711608886719,0.2511520385742188
0.2774711608886719,0.2511520385742188
0.2769184112548828,0.2493581771850586
0.2769184112548828,0.2534070968627929
0.2777069091796875,0.2513208389282227
0.2746953964233398,0.2513208389282227
0.2760686874389648,0.2514844894409179
0.2760686874389648,0.2514844894409179
0.2775552749633789,0.2504230499267578
0.2775552749633789,0.2504230499267578
0.2780639648437500,0.2519491195678711
0.2780639648437500,0.2519491195678711
0.2762689590454102,0.2497976303100586
0.2762689590454102,0.2497976303100586
0.2781286239624023,0.2515130996704101
0.2781286239624023,0.2515130996704101
0.2762191772460937,0.2514787673950195
0.2762191772460937,0.2514787673950195
0.2775409698486328,0.2504247665405273
0.2775409698486328,0.2504247665405273
0.2778488159179687,0.2519474029541016
0.2778488159179687,0.2519474029541016
0.2766912460327148,0.2499200820922851
0.2766912460327148,0.2499200820922851
0.2784662246704102,0.2518541336059570
0.2784662246704102,0.2518541336059570
0.2764720916748047,0.2520727157592773
0.2764720916748047,0.2520727157592773
0.2776668548583984,0.2511789321899414
0.2776668548583984,0.2511789321899414
0.2786247253417969,0.2528915405273438
0.2786247253417969,0.2528915405273438
0.2773315429687500,0.2511005401611328
0.2773315429687500,0.2511005401611328
0.2791580200195312,0.2531667709350586
0.2791580200195312,0.2531667709350586
0.2770437240600586,0.2535146713256836
0.2770437240600586,0.2535146713256836
0.2789022445678711,0.2527284622192383
0.2789022445678711,0.2527284622192383
0.2795825958251953,0.2545732498168945
0.2795825958251953,0.2545732498168945
0.2782310485839843,0.2528137207031250
0.2782310485839843,0.2528137207031250
0.2798315048217773,0.2548364639282226
0.2798315048217773,0.2548364639282226
0.2782230377197266,0.2551088333129883
0.2782230377197266,0.2551088333129883
0.2797817230224609,0.2543317794799805
0.2797817230224609,0.2543317794799805
0.2804449081420898,0.2561050415039062
0.2804449081420898,0.2561050415039062
0.2787637710571289,0.2542144775390625
0.2787637710571289,0.2542144775390625
0.2809209823608398,0.2562274932861328
0.2809209823608398,0.2562274932861328
0.2790430068969726,0.2565296173095703
0.2790430068969726,0.2565296173095703
0.2805639266967773,0.2556386947631836
0.2805639266967773,0.2556386947631836
0.2808322906494141,0.2573135375976562
0.2808322906494141,0.2573135375976562
0.2797794342041016,0.2554321289062500
0.2797794342041016,0.2554321289062500
0.2816522598266601,0.2574102401733399
0.2816522598266601,0.2574102401733399
0.2796936035156250,0.2577215194702148
0.2796936035156250,0.2577215194702148
0.2809473037719726,0.2568157196044922
0.2809473037719726,0.2568157196044922
0.2819131851196289,0.2586547851562500
0.2819131851196289,0.2586547851562500
0.2805553436279297,0.2567281723022461
0.2805553436279297,0.2567281723022461
0.2823165893554687,0.2587423324584961
0.2823165893554687,0.2587423324584961
0.2801845550537109,0.2590547561645508
0.2801845550537109,0.2590547561645508
0.2820722579956055,0.2581300735473633
0.2820722579956055,0.2581300735473633
0.2825408935546875,0.2597276687622070
0.2825408935546875,0.2597276687622070
0.2811029434204101,0.2575269699096679
0.2811029434204101,0.2575269699096679
0.2821563720703125,0.2587669372558594
0.2821563720703125,0.2587669372558594
0.2799808502197266,0.2579858779907226
0.2799808502197266,0.2579858779907226
0.2808757781982422,0.2556615829467773
0.2808757781982422,0.2556615829467773
0.2804597854614257,0.2557674407958984
0.2804597854614257,0.2557674407958984
0.2778625488281250,0.2522735595703125
0.2778625488281250,0.2522735595703125
0.2791185379028320,0.2526575088500976
0.2791185379028320,0.2526575088500976
0.2764314651489257,0.2515022277832031
0.2794149398803711,0.2515022277832031
0.2772977828979492,0.2495143890380859
0.2757980346679688,0.2495143890380859
0.2770671844482422,0.2502691268920899
0.2770671844482422,0.2502691268920899
0.2756183624267578,0.2476587295532227
0.2781520843505859,0.2476587295532227
0.2771564483642578,0.2490308761596680
0.2771564483642578,0.2490308761596680
0.2748664855957031,0.2488712310791016
0.2748664855957031,0.2488712310791016
0.2760463714599609,0.2477165222167969
0.2760463714599609,0.2477165222167969
0.2767410278320312,0.2491590499877930
0.2767410278320312,0.2491590499877930
0.2753511428833008,0.2471334457397461
0.2753511428833008,0.2471334457397461
0.2770694732666015,0.2489267349243164
0.2770694732666015,0.2489267349243164
0.2747600555419922,0.2490800857543945
0.2747600555419922,0.2490800857543945
0.2766660690307617,0.2481319427490234
0.2766660690307617,0.2481319427490234
0.2772462844848633,0.2498634338378906
0.2772462844848633,0.2498634338378906
0.2759130477905273,0.2481245040893555
0.2759130477905273,0.2481245040893555
0.2775821685791016,0.2502685546875000
0.2775821685791016,0.2502685546875000
0.2759273529052734,0.2506828308105469
0.2759273529052734,0.2506828308105469
0.2776863098144531,0.2500631332397461
0.2776863098144531,0.2500631332397461
0.2783878326416016,0.2518753051757812
0.2783878326416016,0.2518753051757812
0.2767759323120117,0.2500642776489257
0.2767759323120117,0.2500642776489257
0.2788856506347656,0.2520320892333984
0.2788856506347656,0.2520320892333984
0.2769584655761719,0.2521162033081055
0.2769584655761719,0.2521162033081055
0.2784313201904297,0.2511131286621094
0.2784313201904297,0.2511131286621094
0.2785966873168945,0.2526140213012695
0.2785966873168945,0.2526140213012695
0.2773687362670899,0.2505094528198242
0.2773687362670899,0.2505094528198242
0.2790990829467773,0.2522066116333008
0.2790990829467773,0.2522066116333008
0.2769721984863281,0.2522626876831054
0.2769721984863281,0.2522626876831054
0.2782407760620117,0.2511703491210938
0.2782407760620117,0.2511703491210938
0.2790166854858399,0.2527524948120117
0.2790166854858399,0.2527524948120117
0.2775701522827148,0.2507514953613281
0.2801422119140625,0.2507514953613281
0.2792982101440429,0.2526111602783203
0.2792982101440429,0.2526111602783203
0.2770608901977539,0.2527359008789062
0.2770608901977539,0.2527359008789062
0.2789337158203125,0.2519268035888672
0.2789337158203125,0.2519268035888672
0.2794715881347656,0.2536571502685547
0.2794715881347656,0.2536571502685547
0.2780960083007812,0.2518220901489258
0.2780960083007812,0.2518220901489258
0.2797073364257812,0.2537418365478515
0.2797073364257812,0.2537418365478515
0.2780427932739258,0.2540599822998047
0.2780427932739258,0.2540599822998047
0.2797874450683593,0.2532646179199219
0.2797874450683593,0.2532646179199219
0.2802989959716797,0.2551168441772461
0.2802989959716797,0.2551168441772461
0.2786172866821289,0.2530826568603515
0.2786172866821289,0.2530826568603515
0.2808328628540039,0.2551643371582031
0.2808328628540039,0.2551643371582031
0.2788232803344726,0.2555259704589843
0.2788232803344726,0.2555259704589843
0.2804929733276367,0.2547569274902344
0.2804929733276367,0.2547569274902344
0.2807275772094727,0.2564409255981445
0.2807275772094727,0.2564409255981445
0.2797222137451172,0.2546373367309570
0.2797222137451172,0.2546373367309570
0.2816499710083007,0.2566091537475586
0.2816499710083007,0.2566091537475586
0.2796020507812500,0.2570234298706054
0.2796020507812500,0.2570234298706054
0.2810371398925781,0.2561553955078125
0.2810371398925781,0.2561553955078125
0.2818525314331055,0.2579160690307617
0.2818525314331055,0.2579160690307617
0.2805936813354492,0.2561204910278320
0.2805936813354492,0.2561204910278320
0.2824390411376953,0.2580888748168945
0.2824390411376953,0.2580888748168945
0.2801359176635742,0.2583847045898438
0.2836292266845703,0.2583847045898438
0.2821580886840820,0.2575841903686523
0.2811212539672852,0.2575841903686523
0.2827199935913086,0.2591789245605469
0.2827199935913086,0.2591789245605469
0.2812362670898437,0.2571178436279297
0.2812362670898437,0.2571178436279297
0.2825088500976562,0.2584991455078125
0.2825088500976562,0.2584991455078125
0.2802806854248047,0.2579498291015625
0.2802806854248047,0.2579498291015625
0.2814107894897461,0.2559116363525391
0.2814107894897461,0.2559116363525391
0.2810691833496093,0.2560701370239258
0.2810691833496093,0.2560701370239258
0.2784633636474609,0.2525241851806641
0.2784633636474609,0.2525241851806641
0.2796804428100586,0.2528577804565429
0.2796804428100586,0.2528577804565429
0.2768554687500000,0.2517253875732422
0.2768554687500000,0.2517253875732422
0.2777847290039062,0.2495967864990234
0.2777847290039062,0.2495967864990234
0.2774339675903320,0.2502227783203125
0.2774339675903320,0.2502227783203125
0.2759307861328125,0.2475248336791992
0.2759307861328125,0.2475248336791992
0.2773693084716797,0.2487567901611328
0.2773693084716797,0.2487567901611328
0.2750284194946289,0.2485210418701172
0.2750284194946289,0.2485210418701172
0.2762489318847656,0.2472747802734375
0.2762489318847656,0.2472747802734375
0.2769041061401367,0.2486337661743164
0.2769041061401367,0.2486337661743164
0.2754924774169922,0.2465675354003906
0.2754924774169922,0.2465675354003906
0.2771495819091797,0.2482166290283203
0.2771495819091797,0.2482166290283203
0.2746988296508789,0.2483098983764648
0.2746988296508789,0.2483098983764648
0.2766689300537109,0.2473766326904297
0.2766689300537109,0.2473766326904297
0.2771232604980469,0.2490388870239258
0.2771232604980469,0.2490388870239258
0.2757946014404297,0.2471323013305664
0.2757946014404297,0.2471323013305664
0.2773738861083984,0.2491636276245117
0.2773738861083984,0.2491636276245117
0.2756898880004883,0.2495458602905273
