REDsignal,IRsignal
0.2990283966064453,0.2696943283081055
0.3011718750000000,0.2602592468261719
0.3011718750000000,0.2602592468261719
0.3028747558593750,0.2707986831665039
0.3028747558593750,0.2707986831665039
0.3016365051269531,0.2696943283081055
0.3016365051269531,0.2696943283081055
0.3012783050537109,0.2701772689819336
0.3012783050537109,0.2701772689819336
0.3012548446655273,0.2629125595092773
0.3012548446655273,0.2629125595092773
0.3018888473510742,0.2691661834716797
0.3018888473510742,0.2691661834716797
0.3039516448974609,0.2721588134765625
0.3039516448974609,0.2721588134765625
0.2998346328735351,0.2688302993774414
0.2998346328735351,0.2688302993774414
0.3034423828125000,0.2634252548217773
0.3034423828125000,0.2634252548217773
0.3018087387084961,0.2719545364379883
0.3041776657104492,0.2719545364379883
0.3028478622436523,0.2719041824340820
0.3028478622436523,0.2719041824340820
0.3020891189575195,0.2726583480834961
0.3020891189575195,0.2726583480834961
0.3020427703857422,0.2620777130126953
0.3020427703857422,0.2620777130126953
0.3041124343872070,0.2724374771118164
0.3041124343872070,0.2724374771118164
0.3029302597045898,0.2732139587402344
0.3029302597045898,0.2732139587402344
0.3010076522827148,0.2710367202758789
0.3010076522827148,0.2710367202758789
0.3041593551635742,0.2657083511352539
0.3041593551635742,0.2657083511352539
0.3024438858032226,0.2707643508911133
0.3024438858032226,0.2707643508911133
0.3046989440917969,0.2743354797363281
0.3046989440917969,0.2743354797363281
0.3004039764404297,0.2721931457519531
0.3004039764404297,0.2721931457519531
0.3021131515502929,0.2617904663085938
0.3021131515502929,0.2617904663085938
0.3031980514526367,0.2711277008056641
0.3031980514526367,0.2711277008056641
0.3011569976806641,0.2674552917480469
0.3011569976806641,0.2674552917480469
0.3001161575317383,0.2679834365844727
0.3001161575317383,0.2679834365844727
0.2995347976684570,0.2596035003662109
0.2995347976684570,0.2596035003662109
0.2995359420776367,0.2648723602294922
0.2995359420776367,0.2648723602294922
0.3012044906616211,0.2682323455810547
0.3012044906616211,0.2682323455810547
0.2968076705932617,0.2628416061401367
0.2968076705932617,0.2628416061401367
0.3000921249389648,0.2570222854614257
0.3000921249389648,0.2570222854614257
0.2983486175537109,0.2649833679199219
0.2983486175537109,0.2649833679199219
0.2991474151611328,0.2632959365844726
0.2991474151611328,0.2632959365844726
0.2982748031616211,0.2650199890136719
0.2982748031616211,0.2650199890136719
0.2979812622070312,0.2544330596923828
0.2979812622070312,0.2544330596923828
0.2999176025390625,0.2644609451293945
0.2999176025390625,0.2644609451293945
0.2987422943115234,0.2663286209106445
0.2987422943115234,0.2663286209106445
0.2968482971191406,0.2626613616943359
0.2968482971191406,0.2626613616943359
0.3000703811645508,0.2574874877929688
0.3000703811645508,0.2574874877929688
0.2985254287719726,0.2625846862792969
0.2985254287719726,0.2625846862792969
0.3008245468139648,0.2652952194213867
0.3008245468139648,0.2652952194213867
0.2968271255493164,0.2653427124023438
0.2968271255493164,0.2653427124023438
0.2990455627441406,0.2560981750488281
0.2990455627441406,0.2560981750488281
0.3007610321044922,0.2667039871215820
0.3007610321044922,0.2667039871215820
0.2996446609497070,0.2656660079956055
0.2996446609497070,0.2656660079956055
0.2992532730102539,0.2660980224609375
0.2992532730102539,0.2660980224609375
0.2992807388305664,0.2588945388793945
0.2992807388305664,0.2588945388793945
0.2998872756958008,0.2650051116943359
0.2998872756958008,0.2650051116943359
0.3017520904541016,0.2677499771118164
0.3017520904541016,0.2677499771118164
0.2976682662963867,0.2641782760620117
0.2976682662963867,0.2641782760620117
0.3010746002197265,0.2586439132690430
0.3010746002197265,0.2586439132690430
0.2993196487426757,0.2668184280395507
0.2993196487426757,0.2668184280395507
0.3002969741821289,0.2665861129760742
0.3002969741821289,0.2665861129760742
0.2994895935058594,0.2671279907226562
0.2994895935058594,0.2671279907226562
0.2993408203125000,0.2565576553344727
0.2993408203125000,0.2565576553344727
0.3013704299926758,0.2667051315307617
0.3001041412353516,0.2707963943481445
0.2982742309570313,0.2651613235473633
0.2982742309570313,0.2651613235473633
0.3009859085083008,0.2567968368530273
0.3009859085083008,0.2659658432006836
0.3022813796997070,0.2736619949340820
0.3022813796997070,0.2674844741821289
0.3022813796997070,0.2692125320434570
0.2982822418212890,0.2678907394409180
0.2982822418212890,0.2678907394409180
0.3004943847656250,0.2585123062133789
0.3004943847656250,0.2585123062133789
0.3022596359252930,0.2690889358520508
0.3022596359252930,0.2690889358520508
0.3008794784545898,0.2667251586914062
0.3008794784545898,0.2667251586914062
0.3005470275878906,0.2685596466064453
0.3005470275878906,0.2685596466064453
0.3005121231079101,0.2610883712768555
0.3032072067260742,0.2610883712768555
0.3010368347167969,0.2675628662109375
0.3010368347167969,0.2675628662109375
0.3032123565673828,0.2718309402465820
0.3032123565673828,0.2718309402465820
0.2991256713867188,0.2671554565429687
0.2991256713867188,0.2671554565429687
0.3028432846069336,0.2618436813354492
0.3028432846069336,0.2618436813354492
0.3011953353881836,0.2703031539916992
0.3011953353881836,0.2703031539916992
0.3021377563476562,0.2689710617065429
0.3021377563476562,0.2689710617065429
0.3014705657958984,0.2710138320922851
0.3014705657958984,0.2710138320922851
0.3013195037841797,0.2604509353637695
0.3013195037841797,0.2604509353637695
0.3032810211181641,0.2709234237670898
0.3032810211181641,0.2709234237670898
0.3021486282348633,0.2730468750000000
0.3021486282348633,0.2730468750000000
0.3004005432128906,0.2694734573364257
0.3004005432128906,0.2694734573364257
0.3036026000976562,0.2642766952514649
0.3036026000976562,0.2642766952514649
0.3020902633666992,0.2695369720458984
0.3020902633666992,0.2695369720458984
0.3044448852539062,0.2722337722778320
0.3044448852539062,0.2722337722778320
0.3003604888916016,0.2720220565795898
0.3003604888916016,0.2720220565795898
0.3024564743041992,0.2623758316040039
0.3024564743041992,0.2623758316040039
0.3039133071899414,0.2727029800415039
0.3039133071899414,0.2727029800415039
0.3024742126464844,0.2710258483886719
0.3024742126464844,0.2710258483886719
0.3017286300659179,0.2707082748413086
0.3017286300659179,0.2707082748413086
0.3010877609252929,0.2622854232788086
0.3010877609252929,0.2622854232788086
0.3010602951049804,0.2672590255737304
0.3010602951049804,0.2672590255737304
0.3022991180419922,0.2689064025878906
0.3022991180419922,0.2689064025878906
0.2995393753051758,0.2679588317871094
0.2995393753051758,0.2679588317871094
0.2995393753051758,0.2671932220458984
0.2986919403076172,0.2638967514038086
0.2986919403076172,0.2638967514038086
0.3002569198608399,0.2705892562866211
0.2974233627319336,0.2705892562866211
0.2970296859741211,0.2633056640625000
0.2970296859741211,0.2633056640625000
0.2990798950195312,0.2628959655761718
0.2990798950195312,0.2628959655761718
0.2988939285278320,0.2641370773315430
0.2987617492675781,0.2641370773315430
0.2976648330688477,0.2673362731933593
0.2976648330688477,0.2673362731933593
0.2996234893798828,0.2640644073486328
0.2996234893798828,0.2640644073486328
0.2959304809570312,0.2622407913208007
0.2959304809570312,0.2622407913208007
0.2988824844360352,0.2619403839111328
0.2988824844360352,0.2619403839111328
0.2987354278564453,0.2692205429077149
0.2987354278564453,0.2692205429077149
0.2976293563842773,0.2622756958007812
0.2976293563842773,0.2622756958007812
0.2995038986206054,0.2640272140502929
0.2995038986206054,0.2640272140502929
0.2967584609985351,0.2621074676513672
0.2967584609985351,0.2621074676513672
0.2991388320922851,0.2678031921386719
0.2991388320922851,0.2678031921386719
0.2991703033447266,0.2650102615356445
0.2991703033447266,0.2650102615356445
0.2973661422729492,0.2631380081176758
0.2973661422729492,0.2631380081176758
0.3003335952758789,0.2649719238281250
0.3003335952758789,0.2649719238281250
0.2975223541259766,0.2689641952514648
0.2975223541259766,0.2689641952514648
0.2999828338623047,0.2643150329589843
0.2999828338623047,0.2643150329589843
0.2997940063476562,0.2662548065185547
0.2997940063476562,0.2662548065185547
0.2987531661987304,0.2638875961303711
0.2987531661987304,0.2638875961303711
0.3008108139038086,0.2711940765380859
0.3008108139038086,0.2711940765380859
0.2978971481323242,0.2643871307373047
0.2978971481323242,0.2643871307373047
0.2993951797485351,0.2644254684448242
0.2993951797485351,0.2644254684448242
0.2999633789062500,0.2658983230590820
0.2999633789062500,0.2658983230590820
0.2988224029541016,0.2693058013916015
0.2988224029541016,0.2693058013916015
0.3008005142211914,0.2662027359008789
0.3008005142211914,0.2662027359008789
0.2978204727172851,0.2644712448120117
0.2978204727172851,0.2644712448120117
0.3002775192260742,0.2642028808593750
0.3002775192260742,0.2642028808593750
0.3000909805297852,0.2717233657836914
0.3000909805297852,0.2717233657836914
0.2990587234497070,0.2647161483764648
0.2990587234497070,0.2647161483764648
0.3003776550292969,0.2666433334350586
0.3003776550292969,0.2666433334350586
0.2982885360717774,0.2647567749023437
0.2982885360717774,0.2647567749023437
0.3006837844848633,0.2706052780151367
0.3006837844848633,0.2706052780151367
0.3006042480468750,0.2677082061767578
0.3006042480468750,0.2677082061767578
0.2994810104370117,0.2658016204833984
0.2994810104370117,0.2658016204833984
0.3016948699951172,0.2674638748168945
0.3016948699951172,0.2674638748168945
0.2989048004150390,0.2714818954467773
0.2989048004150390,0.2714818954467773
0.3013166427612304,0.2667955398559570
0.3013166427612304,0.2667955398559570
0.3004526138305664,0.2688663482666016
0.3004526138305664,0.2688663482666016
0.3002271652221680,0.2666170120239258
0.3002271652221680,0.2666170120239258
0.3022836685180664,0.2741432189941406
0.3022836685180664,0.2741432189941406
0.2995439529418945,0.2675897598266602
0.2995439529418945,0.2675897598266602
0.3016645431518555,0.2678306579589844
0.3016645431518555,0.2678306579589844
0.3017200469970703,0.2694665908813477
0.3017200469970703,0.2694665908813477
0.3007289886474609,0.2730926513671875
0.3007289886474609,0.2730926513671875
0.3028100967407226,0.2700130462646484
0.3028100967407226,0.2700130462646484
0.2993173599243164,0.2685155868530273
0.2993173599243164,0.2685155868530273
0.3022882461547852,0.2683816909790039
0.3022882461547852,0.2683816909790039
0.3022607803344726,0.2759868621826172
0.3022607803344726,0.2759868621826172
0.3012153625488281,0.2691432952880859
0.3012153625488281,0.2691432952880859
0.3031396865844727,0.2709806442260742
0.3031396865844727,0.2709806442260742
0.3005098342895507,0.2691186904907226
0.3005098342895507,0.2691186904907226
0.3028358459472656,0.2749483108520508
0.3028358459472656,0.2749483108520508
0.3027191162109375,0.2719253540039062
0.3027191162109375,0.2719253540039062
0.3009744644165039,0.2700468063354492
0.3009744644165039,0.2700468063354492
0.3036912918090820,0.2715488433837890
0.3003089904785156,0.2715488433837890
0.3009172439575195,0.2754690170288086
0.3009172439575195,0.2754690170288086
0.3031288146972656,0.2704450607299805
0.3031288146972656,0.2704450607299805
0.3027145385742188,0.2719121932983398
0.3027145385742188,0.2719121932983398
0.3014150619506836,0.2688360214233398
0.3014150619506836,0.2688360214233398
0.3028633117675781,0.2752407073974609
0.3028633117675781,0.2752407073974609
0.2995141983032226,0.2673883438110352
0.2995141983032226,0.2673883438110352
0.3003982543945312,0.2663623809814453
0.3003982543945312,0.2663623809814453
0.3003810882568359,0.2667297363281250
0.3003810882568359,0.2667297363281250
0.2986948013305664,0.2691833496093750
0.2986948013305664,0.2691833496093750
0.3002340316772461,0.2651962280273437
0.3002340316772461,0.2651962280273437
0.2969610214233399,0.2627231597900391
0.2969610214233399,0.2627231597900391
0.2989734649658203,0.2619667053222656
0.2989734649658203,0.2619667053222656
0.2986078262329102,0.2688989639282227
0.2986078262329102,0.2688989639282227
0.2973993301391601,0.2616519927978516
0.2973993301391601,0.2616519927978516
0.2985551834106445,0.2631694793701172
0.2985551834106445,0.2631694793701172
0.2963865280151367,0.2610466003417969
0.2963865280151367,0.2610466003417969
0.2985288619995117,0.2664608001708984
0.2985288619995117,0.2664608001708984
0.2984527587890625,0.2634178161621094
0.2984527587890625,0.2634178161621094
0.2972368240356445,0.2613246917724609
0.2972368240356445,0.2613246917724609
0.2992309570312500,0.2626401901245117
0.2992309570312500,0.2626401901245117
0.2965238571166992,0.2664653778076172
0.2965238571166992,0.2664653778076172
0.2988327026367187,0.2617864608764648
0.2966011047363281,0.2617864608764648
0.2979320526123047,0.2639350891113281
0.2979320526123047,0.2639350891113281
0.2977300643920898,0.2617733001708984
0.2977300643920898,0.2617733001708984
0.2998323440551758,0.2691736221313477
0.2998323440551758,0.2691736221313477
0.2972637176513672,0.2629400253295898
0.2972637176513672,0.2629400253295898
0.2995164871215820,0.2632249832153320
0.2995164871215820,0.2632249832153320
0.2994913101196289,0.2649707794189453
0.2994913101196289,0.2649707794189453
0.2985197067260742,0.2684864044189453
0.2985197067260742,0.2684864044189453
0.3004966735839844,0.2653249740600586
0.3004966735839844,0.2653249740600586
0.2970199584960938,0.2635631561279297
0.2970199584960938,0.2635631561279297
0.2999439239501953,0.2633062362670898
0.2999439239501953,0.2633062362670898
0.2996538162231445,0.2705680847167969
0.2996538162231445,0.2705680847167969
0.2986587524414062,0.2637153625488281
0.2986587524414062,0.2637153625488281
0.3004646301269531,0.2652397155761719
0.3004646301269531,0.2652397155761719
0.2977466583251953,0.2632312774658203
0.2977466583251953,0.2632312774658203
0.3000257492065430,0.2688217163085938
0.3000257492065430,0.2688217163085938
0.2997825622558594,0.2658811569213867
0.2999776840209961,0.2658811569213867
0.2981140136718750,0.2639734268188477
0.2981140136718750,0.2639734268188477
0.3008062362670899,0.2654302597045898
0.3008062362670899,0.2654302597045898
0.2981220245361328,0.2693630218505859
0.2981220245361328,0.2693630218505859
0.3004337310791015,0.2647968292236328
0.3004337310791015,0.2647968292236328
0.3001802444458008,0.2667469024658203
0.3001802444458008,0.2667469024658203
0.2992996215820312,0.2646165847778320
0.2992996215820312,0.2646165847778320
0.3014225006103515,0.2719831466674805
0.3014225006103515,0.2719831466674805
0.2988018035888672,0.2655693054199219
0.2988018035888672,0.2655693054199219
0.3003358840942383,0.2659543991088867
0.3003358840942383,0.2659543991088867
0.3008554458618164,0.2676109313964843
0.3008554458618164,0.2676109313964843
0.2999805450439453,0.2713245391845703
0.2999805450439453,0.2713245391845703
0.3020622253417969,0.2683427810668945
0.3020622253417969,0.2683427810668945
0.2992664337158203,0.2667388916015625
0.2992664337158203,0.2667388916015625
0.3017314910888672,0.2667274475097656
0.3017314910888672,0.2667274475097656
0.3014602661132812,0.2742404937744141
0.3014602661132812,0.2742404937744141
0.3005830764770508,0.2674146652221679
0.3005830764770508,0.2674146652221679
0.3018968582153320,0.2692846298217773
0.3018968582153320,0.2692846298217773
0.2999181747436523,0.2673534393310547
0.2999181747436523,0.2673534393310547
0.3021440505981445,0.2731533050537109
0.3021440505981445,0.2731533050537109
0.3019741058349609,0.2702716827392578
0.3019741058349609,0.2702716827392578
0.3010002136230469,0.2683914184570312
0.3010002136230469,0.2683914184570312
0.3030767440795898,0.2698493957519531
0.3030767440795898,0.2698493957519531
0.3004611968994140,0.2738479614257812
0.3004611968994140,0.2738479614257812
0.3027997970581054,0.2692193984985352
0.3027997970581054,0.2692193984985352
0.3017789840698242,0.2712793350219727
0.3017789840698242,0.2712793350219727
0.3015855789184570,0.2691141128540039
0.3015855789184570,0.2691141128540039
0.3036563873291016,0.2763341903686523
0.3036563873291016,0.2763341903686523
0.3010334014892578,0.2699380874633789
0.3010334014892578,0.2699380874633789
0.3030755996704101,0.2701995849609375
0.3030755996704101,0.2701995849609375
0.3028907775878906,0.2717050552368164
0.3028907775878906,0.2717050552368164
0.3020101547241211,0.2751188278198242
0.3020101547241211,0.2751188278198242
0.3038183212280273,0.2715213775634766
0.3038183212280273,0.2715213775634766
0.3000469207763672,0.2692005157470703
0.3045038223266601,0.2692005157470703
0.3024564743041992,0.2681505203247070
0.3024564743041992,0.2681505203247070
0.3015632629394531,0.2743709564208984
0.3015632629394531,0.2743709564208984
0.3000658035278320,0.2663583755493164
0.3000658035278320,0.2663583755493164
0.3011861801147461,0.2667669296264648
0.3011861801147461,0.2667669296264648
0.2981363296508789,0.2637073516845703
0.2981363296508789,0.2637073516845703
0.2998065948486328,0.2684291839599609
0.2998065948486328,0.2684291839599609
0.2990982055664063,0.2647058486938477
0.2990982055664063,0.2647058486938477
0.2971458435058594,0.2621887207031250
0.2971458435058594,0.2621887207031250
0.2995674133300781,0.2630779266357422
0.2995674133300781,0.2630779266357422
0.2967727661132812,0.2663755416870117
0.2967727661132812,0.2663755416870117
0.2987960815429687,0.2616737365722656
0.2964391708374023,0.2616737365722656
0.2982902526855469,0.2632925033569336
0.2982902526855469,0.2632925033569336
0.2973781585693359,0.2608606338500977
0.2973781585693359,0.2608606338500977
0.2994157791137695,0.2677762985229492
0.2994157791137695,0.2677762985229492
0.2967327117919922,0.2612846374511719
0.2967327117919922,0.2612846374511719
0.2981798171997070,0.2614929199218750
0.2981798171997070,0.2614929199218750
0.2984418869018555,0.2630298614501953
0.2984418869018555,0.2630298614501953
0.2976728439331054,0.2665214538574219
0.2976728439331054,0.2665214538574219
0.2997648239135742,0.2636426925659179
0.2997648239135742,0.2636426925659179
0.2971132278442383,0.2621629714965820
0.2971132278442383,0.2621629714965820
0.2994037628173828,0.2622791290283203
0.2994037628173828,0.2622791290283203
0.3007055282592773,0.2643745422363281
0.2968231201171875,0.2643745422363281
0.2967956542968750,0.2642211914062500
0.2967956542968750,0.2642211914062500
0.2992103576660156,0.2549474716186523
0.2992103576660156,0.2549474716186523
0.3004428863525391,0.2652666091918945
0.3004428863525391,0.2652666091918945
0.2992275238037109,0.2640993118286133
0.2992275238037109,0.2640993118286133
0.2990306854248047,0.2645484924316406
0.2955728530883789,0.2645484924316406
0.2985643386840820,0.2568494796752930
0.2985643386840820,0.2568494796752930
0.2995239257812500,0.2631288528442383
0.2995239257812500,0.2631288528442383
0.3011632919311523,0.2657100677490234
0.3011632919311523,0.2657100677490234
0.2970857620239258,0.2622722625732422
0.2970857620239258,0.2622722625732422
0.3005767822265625,0.2567968368530273
0.3005767822265625,0.2567968368530273
0.2986822128295898,0.2650016784667968
0.2986822128295898,0.2650016784667968
0.3001585006713867,0.2650445938110351
0.3001585006713867,0.2650445938110351
0.2992303848266601,0.2656293869018554
0.2992303848266601,0.2656293869018554
0.2989883422851562,0.2551036834716797
0.2989883422851562,0.2551036834716797
0.3010620117187500,0.2655979156494140
0.3010620117187500,0.2655979156494140
0.2996915817260742,0.2661684036254883
0.2996915817260742,0.2661684036254883
0.2985792160034180,0.2642257690429687
0.2985792160034180,0.2642257690429687
0.3012336730957031,0.2589437484741211
0.3012336730957031,0.2589437484741211
0.2995639801025390,0.2643299102783203
0.2995639801025390,0.2643299102783203
0.3022693634033203,0.2684726715087891
0.3022693634033203,0.2684726715087891
0.2982839584350586,0.2670158386230468
0.2982839584350586,0.2670158386230468
0.3007701873779297,0.2577884674072266
0.3007701873779297,0.2577884674072266
0.3021457672119141,0.2683090209960937
0.3021457672119141,0.2683090209960937
0.3008422851562500,0.2659807205200195
0.3008422851562500,0.2659807205200195
0.3007650375366211,0.2679548263549805
0.3007650375366211,0.2679548263549805
0.3003278732299804,0.2601951599121093
0.3003278732299804,0.2601951599121093
0.3014780044555664,0.2669986724853515
0.3014780044555664,0.2669986724853515
0.3031591415405273,0.2710819244384766
0.3031591415405273,0.2710819244384766
0.2992372512817383,0.2665575027465820
0.2992372512817383,0.2665575027465820
0.3028770446777344,0.2611621856689453
0.3028770446777344,0.2611621856689453
0.3010728836059570,0.2695381164550781
0.3040208816528320,0.2695381164550781
0.3025068283081054,0.2683439254760742
0.3006923675537109,0.2683439254760742
0.3015804290771484,0.2702722549438477
0.3015804290771484,0.2702722549438477
0.3012714385986328,0.2597356796264648
0.3012714385986328,0.2597356796264648
0.3034034729003906,0.2702774047851562
0.3034034729003906,0.2702774047851562
0.3021028518676758,0.2722583770751953
0.3021028518676758,0.2722583770751953
0.3009990692138672,0.2689710617065429
0.3009990692138672,0.2689710617065429
0.3036855697631836,0.2635219573974609
0.3036855697631836,0.2635219573974609
0.3019861221313476,0.2688789367675781
0.3019861221313476,0.2688789367675781
0.3044569015502930,0.2717262268066406
0.3044569015502930,0.2717262268066406
0.3003810882568359,0.2714859008789062
0.3003810882568359,0.2714859008789062
0.3030080795288086,0.2619541168212891
0.3030080795288086,0.2619541168212891
0.3041141510009766,0.2724620819091797
0.3041141510009766,0.2724620819091797
0.3026830673217774,0.2709892272949219
0.3026830673217774,0.2709892272949219
0.3023237228393554,0.2709863662719726
0.3023237228393554,0.2709863662719726
0.3014877319335937,0.2624147415161133
0.3014877319335937,0.2624147415161133
0.3020433425903320,0.2677986145019531
0.3020433425903320,0.2677986145019531
0.3028856277465820,0.2692171096801758
0.3028856277465820,0.2692171096801758
0.2982690811157226,0.2646308898925781
0.2982690811157226,0.2646308898925781
0.3011987686157226,0.2580745697021484
0.3011987686157226,0.2580745697021484
0.2986644744873047,0.2652551651000977
0.2986644744873047,0.2652551651000977
0.2999588012695312,0.2644437789916992
0.2999588012695312,0.2644437789916992
0.2985534667968750,0.2643075942993164
0.2985534667968750,0.2643075942993164
0.2978857040405273,0.2532417297363281
0.2978857040405273,0.2532417297363281
0.2998449325561524,0.2632278442382812
0.2998449325561524,0.2632278442382812
0.2981643676757812,0.2633754730224609
0.2981643676757812,0.2633754730224609
0.2970909118652343,0.2610877990722656
0.2957462310791015,0.2610877990722656
0.2995285034179687,0.2554922103881836
0.2995285034179687,0.2554922103881836
0.2976133346557617,0.2606266021728516
0.2976133346557617,0.2606266021728516
0.3002655029296875,0.2645055770874024
0.3002655029296875,0.2645055770874024
0.2961153030395507,0.2627815246582031
0.2992618560791016,0.2627815246582031
0.2987537384033203,0.2534763336181641
0.2987537384033203,0.2534763336181641
0.2998506546020508,0.2638183593750000
0.2998506546020508,0.2638183593750000
0.2985294342041016,0.2615169525146484
0.2985294342041016,0.2615169525146484
0.2985586166381836,0.2635042190551758
0.2952753067016601,0.2635042190551758
0.2981054306030274,0.2561714172363281
0.2981054306030274,0.2561714172363281
0.2994489669799805,0.2627843856811523
0.2994489669799805,0.2627843856811523
0.3010883331298828,0.2669185638427734
0.3010883331298828,0.2669185638427734
0.2972082138061523,0.2624811172485351
0.2972082138061523,0.2624811172485351
0.3008783340454101,0.2570577621459961
0.3008783340454101,0.2570577621459961
0.2989299774169922,0.2653450012207031
0.2989299774169922,0.2653450012207031
0.3005338668823242,0.2640512466430664
0.3005338668823242,0.2640512466430664
0.2994157791137695,0.2656356811523438
0.2994157791137695,0.2656356811523438
0.2988927841186523,0.2549697875976563
0.2988927841186523,0.2549697875976563
0.3009881973266602,0.2652391433715820
0.3009881973266602,0.2652391433715820
0.2994501113891602,0.2669105529785156
0.2994501113891602,0.2669105529785156
0.2985425949096679,0.2634796142578125
0.2972236633300781,0.2634796142578125
0.3009756088256836,0.2578817367553711
0.3009756088256836,0.2578817367553711
0.2992418289184570,0.2631780624389649
0.2992418289184570,0.2631780624389649
0.3017068862915039,0.2659418106079102
0.3017068862915039,0.2659418106079102
0.2976179122924805,0.2655326843261719
0.3009269714355469,0.2655326843261719
0.3003679275512695,0.2562131881713867
0.3003679275512695,0.2562131881713867
0.3013607025146484,0.2666976928710937
0.3013607025146484,0.2666976928710937
0.3001035690307617,0.2656797409057617
0.3001035690307617,0.2656797409057617
0.3002111434936524,0.2663949966430664
0.3002111434936524,0.2663949966430664
0.2995800018310547,0.2587503433227539
0.2995800018310547,0.2587503433227539
0.3011346817016601,0.2655189514160156
0.3011346817016601,0.2655189514160156
0.3025274276733398,0.2682123184204102
0.3025274276733398,0.2682123184204102
0.2985877990722656,0.2651350021362305
0.2985877990722656,0.2651350021362305
0.3022785186767578,0.2597620010375977
0.3022785186767578,0.2597620010375977
0.3002540588378906,0.2681201934814453
0.3002540588378906,0.2681201934814453
0.3021440505981445,0.2683582305908203
0.3021440505981445,0.2683582305908203
0.3010482788085938,0.2688886642456055
0.3010482788085938,0.2688886642456055
0.3007049560546875,0.2583658218383789
0.3007049560546875,0.2583658218383789
0.3029897689819336,0.2690311431884765
0.3029897689819336,0.2690311431884765
0.3013795852661132,0.2695341110229492
0.3013795852661132,0.2695341110229492
0.3007335662841797,0.2676012039184570
0.3007335662841797,0.2676012039184570
0.3030252456665039,0.2620994567871094
0.3030252456665039,0.2620994567871094
0.3012874603271484,0.2676532745361328
0.3012874603271484,0.2676532745361328
0.3040168762207031,0.2717754364013672
0.3040168762207031,0.2717754364013672
0.2998804092407226,0.2702053070068359
0.2998804092407226,0.2702053070068359
0.3028467178344726,0.2608119964599609
0.3028467178344726,0.2608119964599609
0.3038074493408203,0.2713743209838867
0.3038074493408203,0.2713743209838867
0.3023666381835937,0.2691484451293945
0.3023666381835937,0.2691484451293945
0.3025445938110352,0.2711477279663086
0.3025445938110352,0.2711477279663086
0.3018562316894531,0.2633153915405274
0.3018562316894531,0.2633153915405274
0.3033147811889648,0.2701778411865234
0.3033147811889648,0.2701778411865234
0.3047893524169922,0.2741226196289062
0.3047893524169922,0.2741226196289062
0.3007610321044922,0.2695198059082031
0.3007610321044922,0.2695198059082031
0.3043544769287109,0.2635620117187500
0.3043544769287109,0.2635620117187500
0.3019821166992188,0.2713869094848633
0.3019821166992188,0.2713869094848633
0.3035167694091797,0.2694511413574219
0.3012067794799805,0.2694511413574219
0.3016679763793945,0.2701337814331055
0.3016679763793945,0.2701337814331055
0.3006111145019531,0.2582239151000976
0.3006111145019531,0.2582239151000976
0.3021686553955078,0.2675514221191406
0.3021686553955078,0.2675514221191406
0.2998741149902344,0.2680532455444336
0.2998741149902344,0.2680532455444336
0.2987686157226562,0.2637754440307617
0.2987686157226562,0.2637754440307617
0.3005847930908203,0.2572935104370117
0.3005847930908203,0.2572935104370117
0.2984161376953125,0.2620021820068359
0.2984161376953125,0.2620021820068359
0.3007959365844726,0.2641330718994140
0.3007959365844726,0.2641330718994140
0.2962938308715820,0.2633028030395508
0.2962938308715820,0.2633028030395508
0.2991147994995117,0.2537818908691406
0.2991147994995117,0.2537818908691406
0.2998311996459961,0.2638366699218750
0.2998311996459961,0.2638366699218750
0.2984012603759765,0.2625005722045898
0.2984012603759765,0.2625005722045898
0.2985071182250976,0.2629600524902344
0.2985071182250976,0.2629600524902344
0.2976224899291992,0.2549554824829102
0.2976224899291992,0.2549554824829102
0.2993202209472656,0.2617252349853516
0.2976156234741211,0.2617252349853516
0.3004812240600586,0.2642543792724609
0.3004812240600586,0.2642543792724609
0.2965959548950195,0.2610620498657226
0.2965959548950195,0.2610620498657226
0.3002906799316406,0.2557416915893554
0.3002906799316406,0.2557416915893554
0.2981094360351562,0.2640655517578125
0.2981094360351562,0.2640655517578125
0.3003461837768555,0.2643310546875000
0.3003461837768555,0.2643310546875000
0.2991353988647461,0.2650348663330078
0.2991353988647461,0.2650348663330078
0.2997613906860351,0.2546802520751953
0.3012308120727539,0.2652328491210937
0.3012308120727539,0.2652328491210937
0.2993785858154297,0.2657444000244141
0.2993785858154297,0.2657444000244141
0.2990432739257812,0.2637765884399414
0.2990432739257812,0.2637765884399414
0.3011701583862305,0.2581277847290039
0.3011701583862305,0.2581277847290039
0.2991794586181640,0.2634160995483398
0.2991794586181640,0.2634160995483398
0.3020215988159179,0.2672950744628906
0.3020215988159179,0.2672950744628906
0.2975091934204102,0.2654886245727539
0.2975091934204102,0.2654886245727539
0.3006031036376953,0.2560506820678711
0.3006031036376953,0.2560506820678711
0.3013309478759765,0.2662427902221680
0.3013309478759765,0.2662427902221680
0.2998552322387695,0.2638132095336914
0.2998552322387695,0.2638132095336914
0.3001361846923828,0.2656545639038086
0.3001361846923828,0.2656545639038086
0.2991096496582031,0.2578725814819336
0.2991096496582031,0.2578725814819336
0.3008691787719727,0.2645267486572265
0.3008691787719727,0.2645267486572265
0.3021194458007813,0.2684366226196289
0.3021194458007813,0.2684366226196289
0.3005155563354492,0.2673957824707031
0.3005155563354492,0.2673957824707031
0.3007421493530273,0.2653478622436523
0.2997482299804687,0.2653478622436523
0.3025096893310547,0.2723819732666016
0.3025096893310547,0.2723819732666016
0.2999954223632812,0.2661483764648437
0.2999954223632812,0.2661483764648437
0.3016674041748047,0.2666988372802734
0.3016674041748047,0.2666988372802734
0.3011770248413086,0.2682128906250000
0.3011770248413086,0.2682128906250000
0.3009944915771484,0.2718687057495117
0.3009944915771484,0.2718687057495117
0.3031488418579101,0.2688777923583984
0.3031488418579101,0.2688777923583984
0.3005550384521484,0.2673414230346680
0.3005550384521484,0.2673414230346680
0.3029314041137695,0.2675308227539062
0.3029314041137695,0.2675308227539062
0.3018447875976563,0.2747016906738281
0.3018447875976563,0.2747016906738281
0.3017206192016602,0.2682872772216797
0.3017206192016602,0.2682872772216797
0.3030492782592774,0.2699981689453125
0.3030492782592774,0.2699981689453125
0.3011644363403320,0.2681716918945312
0.3011644363403320,0.2681716918945312
0.3036420822143555,0.2740459442138672
0.3036420822143555,0.2740459442138672
0.3024713516235352,0.2712358474731445
0.3024713516235352,0.2712358474731445
0.3021984100341797,0.2695169448852539
0.3026441574096679,0.2695169448852539
0.3042915344238281,0.2708713531494141
0.3042915344238281,0.2708713531494141
0.3018573760986328,0.2747314453125000
0.3018573760986328,0.2747314453125000
0.3043138504028320,0.2705028533935547
0.3043138504028320,0.2705028533935547
0.3023683547973633,0.2723665237426758
0.3023683547973633,0.2723665237426758
0.3028038024902344,0.2702253341674805
0.3028038024902344,0.2702253341674805
0.3049598693847656,0.2772577285766601
0.3049598693847656,0.2772577285766601
0.3025039672851562,0.2709812164306640
0.3025039672851562,0.2709812164306640
0.3045902252197266,0.2712478637695312
0.3045902252197266,0.2712478637695312
0.3031682968139648,0.2722743988037109
0.3031682968139648,0.2722743988037109
0.3027917861938477,0.2752023696899414
0.3027917861938477,0.2752023696899414
0.3044116973876953,0.2712020874023438
0.3044116973876953,0.2712020874023438
0.3006128311157226,0.2683994293212891
0.3006128311157226,0.2683994293212891
0.3027860641479492,0.2672000885009765
0.3027860641479492,0.2672000885009765
0.3009212493896484,0.2729833602905273
0.3009212493896484,0.2729833602905273
0.3001842498779297,0.2653501510620117
0.3001842498779297,0.2653501510620117
0.3015913009643554,0.2658737182617187
0.3015913009643554,0.2658737182617187
0.2985900878906250,0.2630945205688476
0.2985900878906250,0.2630945205688476
0.3005561828613281,0.2680578231811523
0.3005561828613281,0.2680578231811523
0.2990661621093750,0.2645193099975586
0.2990661621093750,0.2645193099975586
0.2980379104614257,0.2623603820800781
0.2980379104614257,0.2623603820800781
0.3004692077636719,0.2633239746093750
0.3004692077636719,0.2633239746093750
0.2979005813598632,0.2666810989379882
0.2979005813598632,0.2666810989379882
0.3001436233520507,0.2623472213745117
0.3001436233520507,0.2623472213745117
0.2986467361450195,0.2638023376464844
0.2986467361450195,0.2638023376464844
0.2984058380126953,0.2615112304687500
0.2984058380126953,0.2615112304687500
0.3005504608154297,0.2682661056518554
0.3005504608154297,0.2682661056518554
0.2980550765991211,0.2620244979858398
0.2980550765991211,0.2620244979858398
0.2996177673339844,0.2624073028564453
0.2996177673339844,0.2624073028564453
0.2988212585449219,0.2638212203979492
0.2988212585449219,0.2638212203979492
0.2988779067993164,0.2673757553100586
0.2988779067993164,0.2673757553100586
0.3010803222656250,0.2646434783935547
0.3010803222656250,0.2646434783935547
0.2985935211181641,0.2631986618041992
0.2985935211181641,0.2631986618041992
0.3009515762329101,0.2633634567260742
0.3009515762329101,0.2633634567260742
0.2997350692749023,0.2704135894775391
0.2997350692749023,0.2704135894775391
0.2996417999267578,0.2640432357788086
0.2996417999267578,0.2640432357788086
0.3010288238525390,0.2657672882080078
0.3010288238525390,0.2657672882080078
0.2991743087768555,0.2637680053710937
0.2991743087768555,0.2637680053710937
0.3015071868896484,0.2692325592041016
0.3015071868896484,0.2692325592041016
0.3000217437744140,0.2661958694458008
0.3000217437744140,0.2661958694458008
0.2997241973876953,0.2642131805419922
0.2997241973876953,0.2642131805419922
0.3017360687255859,0.2653741836547852
0.3017360687255859,0.2653741836547852
0.2993076324462891,0.2689373016357422
0.2993076324462891,0.2689373016357422
0.3016559600830078,0.2645988464355469
0.3016559600830078,0.2645988464355469
0.2994352340698242,0.2662656784057617
0.2994352340698242,0.2662656784057617
0.2999113082885742,0.2640724182128906
0.2999113082885742,0.2640724182128906
0.3020519256591797,0.2709606170654297
0.3020519256591797,0.2709606170654297
0.2996486663818359,0.2648546218872070
0.2996486663818359,0.2648546218872070
0.3018281936645508,0.2652643203735351
0.3018281936645508,0.2652643203735351
0.3004194259643554,0.2666994094848633
0.3004194259643554,0.2666994094848633
0.3004743576049805,0.2702041625976562
0.3004743576049805,0.2702041625976562
0.3026035308837891,0.2673110961914062
0.3026035308837891,0.2673110961914062
0.2996131896972656,0.2659235000610352
0.2996131896972656,0.2659235000610352
0.3024324417114257,0.2660528182983398
0.3024324417114257,0.2660528182983398
0.3010803222656250,0.2730062484741211
0.3010803222656250,0.2730062484741211
0.3010894775390625,0.2667686462402344
0.3010894775390625,0.2667686462402344
0.3030303955078125,0.2684961318969726
0.3030303955078125,0.2684961318969726
0.3007678985595703,0.2666690826416016
0.3007678985595703,0.2666690826416016
0.3031820297241211,0.2723630905151367
0.3031820297241211,0.2723630905151367
0.3017309188842773,0.2695055007934570
0.3017309188842773,0.2695055007934570
0.3010883331298828,0.2678037643432617
0.3010883331298828,0.2678037643432617
0.3036489486694336,0.2693675994873047
0.3036489486694336,0.2693675994873047
0.3014488220214844,0.2730777740478516
0.3014488220214844,0.2730777740478516
0.3037633895874023,0.2690105438232422
0.3037633895874023,0.2690105438232422
0.3021766662597656,0.2707477569580078
0.3021766662597656,0.2707477569580078
0.3022235870361328,0.2686832427978516
0.3022235870361328,0.2686832427978516
0.3044300079345703,0.2757682800292969
0.3044300079345703,0.2757682800292969
0.3021171569824219,0.2695352554321289
0.3021171569824219,0.2695352554321289
0.3036895751953125,0.2701171875000000
0.3036895751953125,0.2701171875000000
0.3028398513793945,0.2714412689208984
0.3028398513793945,0.2714412689208984
0.3028495788574219,0.2749300003051758
0.3028495788574219,0.2749300003051758
0.3049221038818359,0.2719728469848633
0.3049221038818359,0.2719728469848633
0.3023557662963867,0.2700616836547852
0.3063789367675781,0.2700616836547852
0.3043315887451172,0.2696828842163086
0.3043315887451172,0.2696828842163086
0.3024890899658203,0.2758432388305664
0.3024890899658203,0.2758432388305664
0.3020296096801758,0.2682884216308594
0.3020296096801758,0.2682884216308594
0.3027357101440429,0.2688583374023437
0.3027357101440429,0.2688583374023437
0.3002408981323242,0.2656242370605469
0.3002408981323242,0.2656242370605469
0.3019557952880859,0.2699787139892578
0.3019557952880859,0.2699787139892578
0.2997814178466797,0.2659732818603516
0.2997814178466797,0.2659732818603516
0.2992206573486328,0.2631397247314453
0.2992206573486328,0.2631397247314453
0.3007844924926757,0.2637296676635742
0.3007844924926757,0.2637296676635742
0.2983577728271484,0.2666124343872070
0.2983577728271484,0.2666124343872070
0.3002838134765625,0.2619094848632812
0.3002838134765625,0.2619094848632812
0.2978227615356445,0.2631706237792968
0.2978227615356445,0.2631706237792968
0.2981420516967773,0.2606632232666016
0.2981420516967773,0.2606632232666016
0.3001510620117188,0.2673110961914062
0.3001510620117188,0.2673110961914062
0.2978742599487305,0.2610225677490234
0.2978742599487305,0.2610225677490234
0.2998443603515625,0.2612354278564453
0.2998443603515625,0.2612354278564453
0.2981060028076172,0.2623741149902344
0.2981060028076172,0.2623741149902344
0.2983509063720703,0.2655881881713867
0.2983509063720703,0.2655881881713867
0.3003541946411133,0.2627815246582031
0.3003541946411133,0.2627815246582031
0.2973655700683593,0.2611930847167969
0.2973655700683593,0.2611930847167969
0.3001482009887695,0.2613687515258789
0.3001482009887695,0.2613687515258789
0.2986318588256836,0.2682334899902344
0.2986318588256836,0.2682334899902344
0.2988962173461914,0.2621097564697266
0.2988962173461914,0.2621097564697266
0.3008497238159180,0.2640472412109375
0.3008497238159180,0.2640472412109375
0.2987394332885742,0.2621675491333008
0.2987394332885742,0.2621675491333008
0.3009733200073242,0.2678421020507812
0.3009733200073242,0.2678421020507812
0.2993865966796875,0.2648340225219726
0.2993865966796875,0.2648340225219726
0.2987949371337891,0.2630464553833008
0.2987949371337891,0.2630464553833008
0.3012588500976562,0.2644140243530274
0.3012588500976562,0.2644140243530274
0.2991376876831054,0.2677494049072265
0.2991376876831054,0.2677494049072265
0.3012096405029297,0.2635540008544922
0.3012096405029297,0.2635540008544922
0.2993803024291992,0.2649478912353516
0.2993803024291992,0.2649478912353516
0.2993196487426757,0.2625812530517578
0.2993196487426757,0.2625812530517578
0.3014860153198242,0.2694791793823242
0.3014860153198242,0.2694791793823242
0.2992401123046875,0.2630836486816406
0.2992401123046875,0.2630836486816406
0.3007072448730468,0.2636043548583984
0.3007072448730468,0.2636043548583984
0.2995422363281250,0.2647659301757813
0.2995422363281250,0.2647659301757813
0.2997785568237304,0.2681390762329102
0.2997785568237304,0.2681390762329102
0.3018436431884766,0.2654823303222656
0.3018436431884766,0.2654823303222656
0.2995771408081054,0.2638864517211914
0.2995771408081054,0.2638864517211914
0.3015838623046875,0.2639774322509765
0.3015838623046875,0.2639774322509765
0.3001441955566406,0.2707941055297852
0.3001441955566406,0.2707941055297852
0.3002901077270508,0.2644826889038086
0.3002901077270508,0.2644826889038086
0.3016742706298828,0.2665100097656250
0.3016742706298828,0.2665100097656250
0.3000286102294922,0.2645805358886719
0.3000286102294922,0.2645805358886719
0.3023448944091797,0.2702447891235352
0.3023448944091797,0.2702447891235352
0.3007398605346679,0.2674272537231445
0.3007398605346679,0.2674272537231445
0.3008228302001953,0.2657466888427734
0.3008228302001953,0.2657466888427734
0.3027231216430664,0.2672275543212890
0.3000635147094726,0.2672275543212890
0.3006603240966797,0.2708456039428711
0.3006603240966797,0.2708456039428711
0.3029960632324218,0.2667217254638672
0.3029960632324218,0.2667217254638672
0.3006191253662109,0.2683822631835938
0.3006191253662109,0.2683822631835938
0.3013223648071289,0.2664945602416992
0.3013223648071289,0.2664945602416992
0.3035047531127930,0.2735292434692383
0.3035047531127930,0.2735292434692383
0.3013904571533203,0.2674409866333008
0.3013904571533203,0.2674409866333008
0.3034818649291992,0.2680349349975586
0.3034818649291992,0.2680349349975586
0.3017383575439453,0.2692840576171875
0.3017383575439453,0.2692840576171875
0.3020370483398437,0.2727350234985351
0.3020370483398437,0.2727350234985351
0.3041318893432617,0.2701080322265625
0.3041318893432617,0.2701080322265625
0.3012851715087890,0.2684051513671875
0.3012851715087890,0.2684051513671875
0.3039396286010742,0.2686351776123047
0.3039396286010742,0.2686351776123047
0.3023597717285156,0.2753042221069336
0.3047636032104492,0.2700891494750977
0.3025325775146484,0.2689218521118164
0.3022939682006836,0.2689218521118164
0.3042800903320312,0.2705160140991211
0.3042800903320312,0.2705160140991211
0.3018178939819336,0.2678764343261719
0.3018178939819336,0.2678764343261719
0.3036792755126953,0.2727985382080078
0.3036792755126953,0.2727985382080078
0.3014562606811523,0.2686363220214844
0.3014562606811523,0.2686363220214844
0.3002580642700195,0.2656093597412109
0.3002580642700195,0.2656093597412109
0.3020587921142578,0.2658897399902344
0.3020587921142578,0.2658897399902344
0.2994844436645508,0.2680103302001953
0.2994844436645508,0.2680103302001953
0.3009103775024414,0.2629320144653320
0.3009103775024414,0.2629320144653320
0.2986707687377930,0.2634933471679687
0.2986707687377930,0.2634933471679687
0.2983789443969727,0.2606208801269531
0.2983789443969727,0.2606208801269531
0.3001585006713867,0.2669254302978515
0.3001585006713867,0.2669254302978515
0.2978685379028320,0.2601184844970703
0.2978685379028320,0.2601184844970703
0.2990112304687500,0.2602832794189453
0.2990112304687500,0.2602832794189453
0.2975944519042968,0.2611146926879883
0.2975944519042968,0.2611146926879883
0.2977626800537109,0.2641714096069336
0.2977626800537109,0.2641714096069336
0.2997270584106445,0.2614603042602539
0.2997270584106445,0.2614603042602539
0.2974674224853516,0.2594667434692383
0.2974674224853516,0.2594667434692383
0.2993202209472656,0.2595560073852539
0.2993202209472656,0.2595560073852539
0.2978015899658203,0.2656814575195313
0.2978015899658203,0.2656814575195313
0.2978794097900391,0.2598403930664062
0.2978794097900391,0.2598403930664062
0.2990701675415039,0.2617057800292968
0.2990701675415039,0.2617057800292968
0.2974731445312500,0.2596773147583007
0.2974731445312500,0.2596773147583007
0.3000314712524414,0.2652454376220703
0.3000314712524414,0.2652454376220703
0.2983617782592773,0.2623815536499023
0.2983617782592773,0.2623815536499023
0.2984636306762695,0.2611026763916016
0.2984636306762695,0.2611026763916016
0.3002798080444336,0.2626413345336914
0.3002798080444336,0.2626413345336914
0.2984178543090820,0.2660007476806641
0.2984178543090820,0.2660007476806641
0.3006769180297851,0.2619112014770508
0.3006769180297851,0.2619112014770508
0.2982456207275391,0.2632324218750000
0.2982456207275391,0.2632324218750000
0.2988006591796875,0.2614025115966797
0.2988006591796875,0.2614025115966797
0.3006763458251953,0.2680120468139648
0.3006763458251953,0.2680120468139648
0.2986124038696289,0.2616336822509766
0.2986124038696289,0.2616336822509766
0.3006208419799805,0.2618940353393555
0.2972923278808594,0.2618940353393555
0.2987331390380859,0.2627300262451172
0.2987331390380859,0.2627300262451172
0.2989591598510742,0.2662954330444336
0.2989591598510742,0.2662954330444336
0.3007833480834961,0.2634922027587890
0.3007833480834961,0.2634922027587890
0.2980545043945312,0.2617040634155273
0.2980545043945312,0.2617040634155273
0.3007570266723633,0.2617572784423828
0.3007570266723633,0.2617572784423828
0.2991600036621094,0.2681665420532227
0.3010345458984375,0.2681665420532227
0.2993036270141601,0.2624897003173828
0.2993036270141601,0.2624897003173828
0.3010854721069336,0.2642011642456055
0.3010854721069336,0.2642011642456055
0.2990215301513672,0.2621864318847656
0.2990215301513672,0.2621864318847656
0.3014574050903320,0.2678129196166992
0.3014574050903320,0.2678129196166992
0.2996761322021484,0.2647373199462891
0.2996761322021484,0.2647373199462891
0.2992361068725586,0.2635110855102539
0.2992361068725586,0.2635110855102539
0.3015466690063476,0.2648660659790039
0.3015466690063476,0.2648660659790039
0.2997167587280273,0.2682878494262695
0.2997167587280273,0.2682878494262695
0.3020153045654297,0.2644489288330078
0.3020153045654297,0.2644489288330078
0.3001527786254883,0.2657970428466797
0.3001527786254883,0.2657970428466797
0.3002260208129883,0.2641422271728516
0.3002260208129883,0.2641422271728516
0.3022447586059570,0.2708862304687500
0.3022447586059570,0.2708862304687500
0.3003524780273437,0.2647178649902344
0.3003524780273437,0.2647178649902344
0.3018453598022461,0.2654325485229492
0.3018453598022461,0.2654325485229492
0.3006065368652344,0.2664230346679687
0.3006065368652344,0.2664230346679687
0.3008783340454101,0.2701097488403320
0.3008783340454101,0.2701097488403320
0.3028049468994141,0.2675033569335937
0.3028049468994141,0.2675033569335937
0.3007535934448242,0.2658079147338867
0.3007535934448242,0.2658079147338867
0.3028467178344726,0.2660745620727539
0.3028467178344726,0.2660745620727539
0.3012577056884765,0.2724998474121094
0.3012577056884765,0.2724998474121094
0.3014522552490234,0.2666313171386719
0.3014522552490234,0.2666313171386719
0.3026556015014648,0.2683891296386718
0.3026556015014648,0.2683891296386718
0.3012022018432617,0.2663841247558594
0.3012022018432617,0.2663841247558594
0.3035053253173828,0.2719854354858398
0.3035053253173828,0.2719854354858398
0.3016839981079101,0.2688503265380859
0.3016839981079101,0.2688503265380859
0.3017589569091797,0.2672573089599609
0.3014030456542969,0.2672573089599609
0.3033182144165039,0.2682735443115234
0.3033182144165039,0.2682735443115234
0.3014339447021484,0.2711866378784180
0.3014339447021484,0.2711866378784180
0.3031482696533203,0.2665866851806640
0.3031482696533203,0.2665866851806640
0.3002214431762695,0.2668996810913086
0.3002214431762695,0.2668996810913086
0.3002918243408203,0.2639717102050781
0.3002918243408203,0.2639717102050781
0.3014814376831055,0.2693944931030273
0.3014814376831055,0.2693944931030273
0.2990667343139649,0.2620044708251953
0.2990667343139649,0.2620044708251953
0.3003948211669922,0.2615312576293945
0.2968379974365234,0.2615312576293945
0.2981128692626953,0.2614597320556640
0.2981128692626953,0.2614597320556640
0.2980722427368164,0.2642898559570312
0.2980722427368164,0.2642898559570312
0.2995187759399414,0.2609510421752930
0.2995187759399414,0.2609510421752930
0.2968145370483398,0.2587423324584961
0.2968145370483398,0.2587423324584961
0.2990472793579101,0.2587171554565429
0.2990472793579101,0.2587171554565429
0.2973455429077148,0.2645914077758789
0.2973455429077148,0.2645914077758789
0.2974788665771484,0.2585237503051758
0.2974788665771484,0.2585237503051758
0.2989780426025391,0.2599811553955078
0.2989780426025391,0.2599811553955078
0.2970909118652343,0.2577827453613281
0.2970909118652343,0.2577827453613281
0.2991685867309570,0.2632827758789062
0.2991685867309570,0.2632827758789062
0.2974050521850586,0.2600681304931641
0.2974050521850586,0.2600681304931641
0.2969318389892578,0.2586296081542969
0.2969318389892578,0.2586296081542969
0.2991514205932617,0.2599565505981445
0.2991514205932617,0.2599565505981445
0.2976579666137695,0.2632759094238281
0.2976579666137695,0.2632759094238281
0.2996829986572265,0.2598518371582031
0.2996829986572265,0.2598518371582031
0.2978513717651367,0.2611879348754882
0.2978513717651367,0.2611879348754882
0.2980710983276367,0.2594821929931641
0.2980710983276367,0.2594821929931641
0.3000514984130859,0.2662250518798828
0.3000514984130859,0.2662250518798828
0.2984212875366211,0.2601156234741211
0.2984212875366211,0.2601156234741211
0.2996875762939453,0.2608989715576172
0.2996875762939453,0.2608989715576172
0.2983348846435547,0.2616205215454102
0.2983348846435547,0.2616205215454102
0.2985895156860351,0.2649312973022461
0.2985895156860351,0.2649312973022461
0.3002620697021484,0.2620061874389648
0.3002620697021484,0.2620061874389648
0.2983915328979492,0.2602254867553711
0.2983915328979492,0.2602254867553711
0.3001218795776367,0.2604658126831055
0.3001218795776367,0.2604658126831055
0.2984458923339844,0.2664419174194336
0.2984458923339844,0.2664419174194336
0.2986639022827148,0.2604074478149414
0.2986639022827148,0.2604074478149414
0.2996795654296875,0.2619598388671875
0.2996795654296875,0.2619598388671875
0.2984590530395508,0.2598627090454101
0.2984590530395508,0.2598627090454101
0.3005321502685547,0.2657804489135742
0.3005321502685547,0.2657804489135742
0.2987955093383789,0.2625383377075195
0.2987955093383789,0.2625383377075195
0.2988922119140625,0.2610889434814453
0.2988922119140625,0.2610889434814453
0.3005607604980469,0.2624238967895507
0.3005607604980469,0.2624238967895507
0.2991205215454101,0.2657278060913086
0.2991205215454101,0.2657278060913086
0.3010683059692383,0.2623352050781250
0.3010683059692383,0.2623352050781250
0.2986284255981445,0.2635923385620117
0.2986284255981445,0.2635923385620117
0.2994031906127930,0.2618087768554687
0.2994031906127930,0.2618087768554687
0.3012639999389649,0.2684560775756836
0.3012639999389649,0.2684560775756836
0.2997974395751953,0.2624565124511719
0.2997974395751953,0.2624565124511719
0.3015157699584961,0.2634727478027344
0.3015157699584961,0.2634727478027344
0.2995960235595703,0.2642847061157226
0.2995960235595703,0.2642847061157226
0.3001270294189453,0.2677505493164062
0.3001270294189453,0.2677505493164062
0.3018379211425781,0.2650074005126953
0.3018379211425781,0.2650074005126953
0.2997064590454102,0.2633411407470703
0.2997064590454102,0.2633411407470703
0.3018865585327148,0.2640352249145508
0.3018865585327148,0.2640352249145508
0.3002798080444336,0.2702133178710938
0.3002798080444336,0.2702133178710938
0.3006992340087891,0.2643648147583008
0.3002111434936524,0.2643648147583008
0.3022956848144531,0.2660385131835937
0.3022956848144531,0.2660385131835937
0.3006654739379883,0.2640174865722656
0.3006654739379883,0.2640174865722656
0.3026475906372070,0.2700616836547852
0.3026475906372070,0.2700616836547852
0.3008989334106445,0.2668127059936523
0.3008989334106445,0.2668127059936523
0.3004915237426758,0.2653060913085937
0.3004915237426758,0.2653060913085937
0.3026624679565429,0.2665832519531250
0.3026624679565429,0.2665832519531250
0.3013229370117188,0.2698825836181640
0.3013229370117188,0.2698825836181640
0.3031282424926758,0.2666753768920898
0.3031282424926758,0.2666753768920898
0.3012279510498047,0.2676624298095703
0.3012279510498047,0.2676624298095703
0.3014047622680664,0.2656288146972656
0.3014047622680664,0.2656288146972656
0.3031345367431640,0.2719997406005859
0.3031345367431640,0.2719997406005859
0.3014236450195312,0.2653043746948242
0.3014236450195312,0.2653043746948242
0.3021595001220703,0.2657054901123047
0.2985969543457031,0.2657054901123047
0.3002511978149414,0.2654251098632812
0.3002511978149414,0.2654251098632812
0.3000892639160156,0.2676664352416992
0.3000892639160156,0.2676664352416992
0.3011501312255859,0.2637119293212891
0.3011501312255859,0.2637119293212891
0.2989328384399414,0.2606409072875976
0.2989328384399414,0.2606409072875976
0.2999908447265625,0.2603490829467773
0.2999908447265625,0.2603490829467773
0.2979206085205078,0.2652654647827148
0.2979206085205078,0.2652654647827148
0.2978279113769531,0.2585775375366211
0.2978279113769531,0.2585775375366211
0.2984252929687500,0.2596103668212891
0.2984252929687500,0.2596103668212891
0.2971109390258789,0.2569067001342774
0.3001802444458008,0.2569067001342774
0.2987812042236328,0.2624771118164063
0.2987812042236328,0.2624771118164063
0.2968854904174805,0.2589551925659180
0.2968854904174805,0.2589551925659180
0.2969879150390625,0.2570732116699219
0.2969879150390625,0.2570732116699219
0.2984121322631836,0.2581197738647461
0.2984121322631836,0.2581197738647461
0.2970680236816406,0.2609424591064453
0.2970680236816406,0.2609424591064453
0.2986461639404297,0.2577020645141602
0.2986461639404297,0.2577020645141602
0.2982891082763672,0.2573083877563476
0.2982891082763672,0.2573083877563476
0.2982891082763672,0.2507984161376953
0.2958023071289063,0.2579132080078125
0.2998907089233399,0.2579132080078125
0.2986066818237305,0.2588613510131836
0.2986066818237305,0.2588613510131836
0.2969146728515625,0.2592533111572266
0.2969146728515625,0.2592533111572266
0.2968305587768554,0.2493021011352539
0.2968305587768554,0.2493021011352539
0.2989585876464844,0.2597877502441406
0.2989585876464844,0.2597877502441406
0.2970308303833007,0.2594472885131836
0.2970308303833007,0.2594472885131836
0.2975996017456055,0.2585105895996094
0.2975996017456055,0.2585105895996094
0.2988172531127929,0.2528022766113281
0.2988172531127929,0.2528022766113281
0.2975154876708984,0.2583498001098632
0.2975154876708984,0.2583498001098632
0.2999032974243164,0.2621778488159179
0.2999032974243164,0.2621778488159179
0.2955860137939453,0.2594713211059570
0.2955860137939453,0.2594713211059570
0.2990461349487304,0.2510536193847656
0.2990461349487304,0.2510536193847656
0.2990346908569336,0.2607913970947265
0.2990346908569336,0.2607913970947265
0.2980327606201172,0.2585712432861328
0.2980327606201172,0.2585712432861328
0.2981191635131836,0.2604858398437500
0.2981191635131836,0.2604858398437500
0.2968276977539062,0.2517917633056641
0.2968276977539062,0.2517917633056641
0.2991737365722656,0.2591354370117188
0.2991737365722656,0.2591354370117188
0.2996177673339844,0.2625440597534179
0.2996177673339844,0.2625440597534179
0.2965564727783203,0.2584487915039063
0.2965564727783203,0.2584487915039063
0.2996944427490234,0.2533189773559570
0.2996944427490234,0.2533189773559570
0.2973066329956054,0.2603874206542969
0.2973066329956054,0.2603874206542969
0.3000835418701172,0.2602443695068359
0.3000835418701172,0.2602443695068359
0.2983594894409179,0.2618825912475586
0.2983594894409179,0.2618825912475586
0.2982851028442383,0.2518541336059570
0.2982851028442383,0.2518541336059570
0.3002552032470703,0.2623683929443359
0.3002552032470703,0.2623683929443359
0.2983737945556640,0.2630882263183594
0.2983737945556640,0.2630882263183594
0.2989992141723632,0.2610940933227539
0.2989992141723632,0.2610940933227539
0.3001544952392578,0.2553216934204102
0.3001544952392578,0.2553216934204102
0.2989746093750000,0.2609155654907226
0.2989746093750000,0.2609155654907226
0.3013320922851562,0.2637519836425781
0.3013320922851562,0.2637519836425781
0.2971412658691406,0.2623809814453125
0.2971412658691406,0.2623809814453125
0.3007318496704102,0.2541847229003906
0.3007318496704102,0.2541847229003906
0.3006769180297851,0.2642549514770507
0.3006769180297851,0.2642549514770507
0.2998987197875976,0.2633737564086914
0.2998987197875976,0.2633737564086914
0.3001344680786133,0.2642709732055664
0.3001344680786133,0.2642709732055664
0.2988567352294922,0.2555465698242188
0.2988567352294922,0.2555465698242188
0.3013532638549805,0.2632255554199219
0.3013532638549805,0.2632255554199219
0.3017068862915039,0.2655412673950195
0.3017068862915039,0.2655412673950195
0.2986673355102539,0.2627014160156250
0.2986673355102539,0.2627014160156250
0.3018642425537109,0.2574668884277344
0.3018642425537109,0.2574668884277344
0.2993711471557617,0.2645147323608398
0.2993711471557617,0.2645147323608398
0.3022785186767578,0.2656854629516601
0.3022785186767578,0.2656854629516601
0.3003965377807617,0.2660196304321289
0.3003965377807617,0.2660196304321289
0.3004108428955078,0.2557416915893554
0.3004108428955078,0.2557416915893554
0.3023992538452148,0.2663709640502930
0.3023992538452148,0.2663709640502930
0.3003433227539062,0.2655710220336914
0.3003433227539062,0.2655710220336914
0.3008182525634766,0.2645587921142578
0.3008182525634766,0.2645587921142578
0.3017807006835938,0.2582708358764648
0.3017807006835938,0.2582708358764648
0.3001962661743164,0.2632472991943359
0.3001962661743164,0.2632472991943359
0.3021303176879883,0.2664836883544922
0.3021303176879883,0.2664836883544922
0.2972620010375976,0.2624942779541016
0.2972620010375976,0.2624942779541016
0.3002082824707031,0.2530860900878906
0.3002082824707031,0.2530860900878906
0.2995233535766602,0.2617767333984375
0.2995233535766602,0.2617767333984375
0.2980916976928711,0.2584573745727539
0.2980916976928711,0.2584573745727539
0.2978067398071289,0.2595542907714843
0.2978067398071289,0.2595542907714843
0.2959608078002929,0.2500019073486328
0.2959608078002929,0.2500019073486328
0.2980241775512695,0.2567905426025390
0.2980241775512695,0.2567905426025390
0.2981626510620117,0.2597013473510742
0.2981626510620117,0.2597013473510742
0.2949388504028320,0.2551294326782226
0.2949388504028320,0.2551294326782226
0.2978267669677734,0.2498903274536133
0.2978267669677734,0.2498903274536133
0.2953079223632812,0.2561588287353516
0.2953079223632812,0.2561588287353516
0.2979824066162109,0.2558853149414063
0.2979824066162109,0.2558853149414063
0.2961015701293945,0.2572208404541015
0.2961015701293945,0.2572208404541015
0.2959098815917969,0.2470464706420898
0.2959098815917969,0.2470464706420898
0.2977655410766601,0.2573078155517578
0.2977655410766601,0.2573078155517578
0.2957107543945313,0.2574903488159180
0.2957107543945313,0.2574903488159180
0.2963790893554688,0.2555025100708008
0.2963790893554688,0.2555025100708008
0.2974639892578125,0.2499246597290039
0.2974639892578125,0.2499246597290039
0.2963676452636719,0.2553966522216797
0.2963676452636719,0.2553966522216797
0.2987445831298828,0.2585271835327148
0.2987445831298828,0.2585271835327148
0.2946922302246094,0.2570068359375000
0.2946922302246094,0.2570068359375000
0.2982112884521484,0.2492225646972656
0.2982112884521484,0.2492225646972656
0.2981821060180664,0.2591657638549805
0.2981821060180664,0.2591657638549805
0.2975395202636719,0.2581981658935547
0.2975395202636719,0.2581981658935547
0.2977243423461914,0.2592195510864257
0.2977243423461914,0.2592195510864257
0.2963052749633789,0.2500167846679687
0.3007089614868164,0.2500167846679687
0.2987262725830078,0.2576431274414062
0.2969169616699219,0.2576431274414062
0.2990158081054687,0.2597642898559570
0.2983165740966797,0.2597642898559570
0.2959190368652344,0.2566949844360352
0.2959190368652344,0.2566949844360352
0.2989202499389648,0.2515686035156250
0.2989202499389648,0.2515686035156250
0.2963659286499024,0.2579790115356445
0.2963659286499024,0.2579790115356445
0.2991680145263672,0.2591548919677734
0.2991680145263672,0.2591548919677734
0.2973272323608399,0.2595336914062500
0.2973272323608399,0.2595336914062500
0.2973329544067383,0.2492832183837891
0.2973329544067383,0.2492832183837891
0.2992641448974609,0.2598947525024414
0.2992641448974609,0.2598947525024414
0.2972013473510742,0.2588985443115234
0.2972013473510742,0.2588985443115234
0.2978462219238281,0.2583080291748047
0.2978462219238281,0.2583080291748047
0.2990095138549805,0.2527130126953125
0.2990095138549805,0.2527130126953125
0.2978193283081055,0.2582828521728516
0.2978193283081055,0.2582828521728516
0.3002901077270508,0.2625062942504883
0.3002901077270508,0.2625062942504883
0.2960735321044922,0.2596887588500976
0.2960735321044922,0.2596887588500976
0.2996377944946289,0.2518438339233398
0.2996377944946289,0.2518438339233398
0.2997699737548828,0.2618219375610352
0.2997699737548828,0.2618219375610352
0.2989917755126953,0.2597843170166015
0.2989917755126953,0.2597843170166015
0.2991840362548828,0.2621206283569336
0.2962326049804687,0.2621206283569336
0.2978021621704102,0.2530391693115234
0.2978021621704102,0.2530391693115234
0.3002546310424805,0.2608234405517578
0.3002546310424805,0.2608234405517578
0.3006460189819336,0.2643648147583008
0.3006460189819336,0.2643648147583008
0.2977975845336914,0.2603759765625000
0.2977975845336914,0.2603759765625000
0.3008720397949219,0.2553771972656250
0.3008720397949219,0.2553771972656250
0.2984630584716797,0.2619712829589844
0.2984630584716797,0.2619712829589844
0.3012422561645507,0.2621641159057617
0.3012422561645507,0.2621641159057617
0.2995697021484375,0.2638000488281250
0.2995697021484375,0.2638000488281250
0.2994501113891602,0.2537029266357422
0.2994501113891602,0.2537029266357422
0.3014150619506836,0.2644758224487305
0.3014150619506836,0.2644758224487305
0.2994895935058594,0.2645942687988281
0.2994895935058594,0.2645942687988281
0.3001035690307617,0.2628988265991211
0.3001035690307617,0.2628988265991211
0.3013406753540039,0.2571887969970703
0.3013406753540039,0.2571887969970703
0.3001728057861328,0.2628496170043945
0.3001728057861328,0.2628496170043945
0.3025800704956055,0.2659074783325195
0.3025800704956055,0.2659074783325195
0.2983337402343750,0.2640769958496094
0.2983337402343750,0.2640769958496094
0.3018230438232422,0.2561782836914062
0.3018230438232422,0.2561782836914062
0.3018035888671875,0.2660963058471680
0.3018035888671875,0.2660963058471680
0.3010528564453125,0.2651573181152344
0.3010528564453125,0.2651573181152344
0.3010831832885742,0.2658313751220703
0.3010831832885742,0.2658313751220703
0.2993762969970703,0.2558881759643555
0.2993762969970703,0.2558881759643555
0.3013916015625000,0.2629331588745117
0.3013916015625000,0.2629331588745117
0.3011684417724609,0.2640850067138672
0.3011684417724609,0.2640850067138672
0.2976694107055664,0.2600131988525390
0.2976694107055664,0.2600131988525390
0.2999759674072265,0.2537572860717773
0.2999759674072265,0.2537572860717773
0.2968832015991211,0.2589220046997070
0.2968832015991211,0.2589220046997070
0.2992246627807617,0.2593208312988281
0.2992246627807617,0.2593208312988281
0.2969919204711914,0.2587692260742188
0.2969919204711914,0.2587692260742188
0.2966331481933593,0.2481227874755859
0.2966331481933593,0.2481227874755859
0.2982736587524414,0.2580636978149414
0.2982736587524414,0.2580636978149414
0.2959825515747070,0.2563573837280274
0.2959825515747070,0.2563573837280274
0.2965101242065429,0.2555076599121094
0.2965101242065429,0.2555076599121094
0.2973598480224609,0.2495985031127930
0.2973598480224609,0.2495985031127930
0.2961610794067382,0.2549222946166992
0.2961610794067382,0.2549222946166992
0.2984167098999023,0.2588916778564453
0.2984167098999023,0.2588916778564453
0.2941698074340820,0.2555511474609375
0.2941698074340820,0.2555511474609375
0.2975366592407226,0.2477691650390625
0.2975366592407226,0.2477691650390625
0.2975618362426758,0.2574714660644531
0.2975618362426758,0.2574714660644531
0.2968420028686523,0.2554681777954101
0.2968420028686523,0.2554681777954101
0.2971435546875000,0.2576923370361328
0.2971435546875000,0.2576923370361328
0.2956615447998047,0.2487155914306640
0.2956615447998047,0.2487155914306640
0.2981632232666016,0.2566904067993164
0.2981632232666016,0.2566904067993164
0.2986639022827148,0.2602460861206055
0.2986639022827148,0.2602460861206055
0.2959659576416016,0.2564432144165039
0.2959659576416016,0.2564432144165039
0.2990942001342773,0.2515525817871094
0.2990942001342773,0.2515525817871094
0.2965084075927734,0.2578216552734375
0.2965084075927734,0.2578216552734375
0.2993024826049804,0.2580339431762695
0.2993024826049804,0.2580339431762695
0.2975589752197266,0.2593591690063476
0.2975589752197266,0.2593591690063476
0.2974370956420898,0.2493026733398437
0.2992841720581055,0.2493026733398437
0.2992435455322265,0.2596218109130859
0.2992435455322265,0.2596218109130859
0.2971458435058594,0.2593019485473633
0.2971458435058594,0.2593019485473633
0.2977054595947266,0.2575458526611328
0.2977054595947266,0.2575458526611328
0.2987279891967773,0.2516532897949219
0.2987279891967773,0.2516532897949219
0.2975057601928711,0.2571727752685547
0.2975057601928711,0.2571727752685547
0.2980945587158203,0.2574623107910156
0.2980945587158203,0.2574623107910156
0.2988756179809570,0.2595766067504883
0.2988756179809570,0.2595766067504883
0.2977867126464844,0.2566349029541016
0.2977867126464844,0.2566349029541016
0.2997957229614258,0.2635019302368164
0.2997957229614258,0.2635019302368164
0.2980699539184570,0.2599542617797851
0.2980699539184570,0.2599542617797851
0.2984601974487305,0.2583778381347656
0.2974891662597656,0.2583778381347656
0.2997642517089844,0.2601522445678711
0.2997642517089844,0.2601522445678711
0.2985889434814453,0.2623649597167969
0.2985889434814453,0.2623649597167969
0.3004274368286133,0.2605035781860351
0.3004274368286133,0.2605035781860351
0.2981174468994141,0.2610752105712891
0.2981174468994141,0.2610752105712891
0.2988882064819336,0.2592081069946289
0.2988882064819336,0.2592081069946289
0.3005842208862304,0.2661386489868164
0.3005842208862304,0.2661386489868164
0.2992538452148437,0.2594816207885742
0.2992538452148437,0.2594816207885742
0.3008583068847656,0.2616250991821289
0.3008583068847656,0.2616250991821289
0.2989339828491211,0.2617000579833984
0.2989339828491211,0.2617000579833984
0.2997001647949218,0.2649404525756836
0.2997001647949218,0.2649404525756836
0.3011861801147461,0.2629817962646484
0.3011861801147461,0.2629817962646484
0.2991479873657226,0.2605070114135742
0.2991479873657226,0.2605070114135742
0.3012365341186523,0.2624319076538086
0.3012365341186523,0.2624319076538086
0.2997785568237304,0.2676858901977539
0.2997785568237304,0.2676858901977539
0.3003828048706055,0.2620067596435547
0.3003828048706055,0.2620067596435547
0.3017532348632813,0.2641714096069336
0.3017532348632813,0.2641714096069336
0.3000755310058594,0.2611278533935547
0.3000755310058594,0.2611278533935547
0.3021028518676758,0.2682781219482422
0.3021028518676758,0.2682781219482422
0.3003976821899414,0.2645238876342773
0.3003976821899414,0.2645238876342773
0.3002202987670898,0.2630035400390625
0.3002202987670898,0.2630035400390625
0.3020421981811524,0.2648031234741211
0.3020421981811524,0.2648031234741211
0.3008646011352539,0.2669368743896484
0.3008646011352539,0.2669368743896484
0.3026247024536133,0.2649971008300781
0.3026247024536133,0.2649971008300781
0.3007169723510742,0.2652191162109375
0.3007169723510742,0.2652191162109375
0.3008634567260742,0.2629194259643555
0.2996944427490234,0.2629194259643555
0.3022275924682617,0.2692365646362305
0.3022275924682617,0.2692365646362305
0.3004308700561523,0.2616016387939453
0.3004308700561523,0.2616016387939453
0.3009927749633789,0.2627466201782226
0.2972013473510742,0.2627466201782226
0.2988515853881836,0.2615083694458007
0.3005058288574219,0.2615083694458007
0.2989294052124024,0.2633811950683594
0.2989294052124024,0.2633811950683594
0.2997631072998047,0.2601493835449218
0.2997631072998047,0.2601493835449218
0.2976442337036133,0.2564666748046875
0.2976442337036133,0.2564666748046875
0.2988109588623047,0.2573907852172851
0.2988109588623047,0.2573907852172851
0.2967990875244140,0.2616868972778320
0.2967990875244140,0.2616868972778320
0.2970348358154297,0.2553903579711914
0.2970348358154297,0.2553903579711914
0.2976470947265625,0.2571092605590820
0.2976470947265625,0.2571092605590820
0.2962881088256836,0.2537481307983399
0.2962881088256836,0.2537481307983399
0.2981952667236328,0.2603548049926758
0.2981952667236328,0.2603548049926758
0.2963367462158203,0.2564346313476563
0.2963367462158203,0.2564346313476563
0.2965810775756836,0.2545835494995117
0.2965810775756836,0.2545835494995117
0.2977266311645508,0.2560913085937500
0.2977266311645508,0.2560913085937500
0.2964981079101562,0.2580362319946289
0.2982450485229492,0.2560838699340820
0.2958274841308594,0.2564220428466797
0.2958274841308594,0.2564220428466797
0.2965833663940430,0.2545011520385742
0.2965833663940430,0.2545011520385742
0.2982891082763672,0.2613218307495117
0.2982891082763672,0.2613218307495117
0.2970211029052734,0.2548725128173828
0.2970211029052734,0.2548725128173828
0.2987634658813477,0.2572185516357422
0.2987634658813477,0.2572185516357422
0.2968608856201172,0.2573244094848633
0.2968608856201172,0.2573244094848633
0.2976814270019531,0.2604949951171875
0.2976814270019531,0.2604949951171875
0.2990930557250976,0.2586307525634766
0.2990930557250976,0.2586307525634766
0.2970417022705078,0.2559659957885742
0.2970417022705078,0.2559659957885742
0.2991348266601562,0.2578153610229492
0.2991348266601562,0.2578153610229492
0.2974880218505859,0.2627111434936523
0.2974880218505859,0.2627111434936523
0.2979635238647461,0.2568918228149414
0.2979635238647461,0.2568918228149414
0.2991806030273437,0.2587251663208008
0.2991806030273437,0.2587251663208008
0.2974491119384766,0.2554859161376953
0.2974491119384766,0.2554859161376953
0.2994604110717773,0.2623689651489258
0.2994604110717773,0.2623689651489258
0.2976511001586914,0.2585821151733398
0.2976511001586914,0.2585821151733398
0.2974742889404297,0.2568861007690429
0.2963705062866211,0.2568861007690429
0.2991519927978515,0.2586799621582031
0.2991519927978515,0.2586799621582031
0.2979663848876953,0.2606632232666016
0.2979663848876953,0.2606632232666016
0.2998146057128906,0.2589626312255859
0.2998146057128906,0.2589626312255859
0.2978994369506836,0.2593442916870117
0.2978994369506836,0.2593442916870117
0.2982536315917969,0.2573198318481445
0.2982536315917969,0.2573198318481445
0.2999387741088867,0.2642314910888672
0.2999387741088867,0.2642314910888672
0.2985620498657227,0.2576196670532226
0.2985620498657227,0.2576196670532226
0.2997591018676758,0.2600206375122070
0.2997591018676758,0.2600206375122070
0.2983022689819336,0.2600887298583984
0.2983022689819336,0.2600887298583984
0.2991090774536133,0.2632472991943359
0.2991090774536133,0.2632472991943359
0.3005310058593750,0.2613853454589843
0.3005310058593750,0.2613853454589843
0.2990930557250976,0.2587852478027344
0.2990930557250976,0.2587852478027344
0.3006134033203125,0.2606781005859375
0.3006134033203125,0.2606781005859375
0.2990964889526367,0.2658313751220703
0.2990964889526367,0.2658313751220703
0.2996932983398438,0.2601648330688476
0.2996932983398438,0.2601648330688476
0.3004514694213867,0.2624599456787109
0.3004514694213867,0.2624599456787109
0.2994558334350586,0.2594924926757812
0.2994558334350586,0.2594924926757812
0.3015501022338867,0.2665506362915039
0.3015501022338867,0.2665506362915039
0.2997379302978516,0.2629051208496094
0.2997379302978516,0.2629051208496094
0.3001476287841797,0.2613922119140625
0.3001476287841797,0.2613922119140625
0.3013544082641602,0.2630693435668945
0.3013544082641602,0.2630693435668945
0.3003347396850586,0.2652837753295899
0.3003347396850586,0.2652837753295899
0.3021743774414062,0.2635425567626953
0.3021743774414062,0.2635425567626953
0.2997848510742188,0.2640100479125976
0.2997848510742188,0.2640100479125976
0.3005870819091797,0.2620903015136719
0.3005870819091797,0.2620903015136719
0.3022459030151367,0.2689653396606445
0.3022459030151367,0.2689653396606445
0.3009601593017578,0.2622688293457031
0.3009601593017578,0.2622688293457031
0.3026184082031250,0.2645971298217774
0.3026184082031250,0.2645971298217774
0.3005481719970703,0.2642732620239258
0.3005481719970703,0.2642732620239258
0.3011117935180664,0.2672183990478516
0.3011117935180664,0.2672183990478516
0.3022745132446289,0.2646120071411133
0.3022745132446289,0.2646120071411133
0.2998987197875976,0.2611478805541992
0.2998987197875976,0.2611478805541992
0.3013532638549805,0.2620433807373047
0.3013532638549805,0.2620433807373047
0.2991485595703125,0.2657306671142578
0.2991485595703125,0.2657306671142578
0.2990043640136719,0.2588836669921875
0.2990043640136719,0.2588836669921875
0.2997264862060547,0.2596990585327149
0.2997264862060547,0.2596990585327149
0.2974594116210937,0.2555099487304687
0.2974594116210937,0.2555099487304687
0.2990226745605469,0.2615512847900390
0.2990226745605469,0.2615512847900390
0.2968500137329101,0.2569667816162109
0.2968500137329101,0.2569667816162109
0.2964443206787109,0.2548461914062500
0.2964443206787109,0.2548461914062500
0.2977861404418945,0.2561273574829102
0.2977861404418945,0.2561273574829102
0.2964809417724609,0.2576580047607422
0.2964809417724609,0.2576580047607422
0.2981586456298828,0.2556140899658203
0.2981586456298828,0.2556140899658203
0.2961078643798828,0.2556432723999023
0.2961078643798828,0.2556432723999023
0.2962995529174804,0.2533298492431640
0.2962995529174804,0.2533298492431640
0.2978404998779297,0.2599548339843750
0.2978404998779297,0.2599548339843750
0.2964231491088867,0.2532194137573242
0.2964231491088867,0.2532194137573242
0.2974994659423828,0.2553394317626953
0.2974994659423828,0.2553394317626953
0.2959665298461914,0.2552244186401367
0.2959665298461914,0.2552244186401367
0.2967744827270508,0.2582141876220703
0.2967744827270508,0.2582141876220703
0.2981317520141601,0.2564094543457031
0.2981317520141601,0.2564094543457031
0.2966651916503906,0.2539203643798828
0.2966651916503906,0.2539203643798828
0.2983314514160156,0.2558858871459961
0.2983314514160156,0.2558858871459961
0.2969078063964843,0.2610059738159179
0.2969078063964843,0.2610059738159179
0.2975618362426758,0.2555797576904297
0.2975618362426758,0.2555797576904297
0.2982994079589844,0.2578130722045898
0.2982994079589844,0.2578130722045898
0.2972293853759765,0.2548604965209961
0.2972293853759765,0.2548604965209961
0.2992670059204102,0.2616949081420898
0.2992670059204102,0.2616949081420898
0.2974187850952149,0.2577833175659179
0.2974187850952149,0.2577833175659179
0.2977872848510742,0.2560317993164062
0.2977872848510742,0.2560317993164062
0.2987377166748047,0.2574811935424804
0.2987377166748047,0.2574811935424804
0.2975772857666015,0.2594507217407226
0.2975772857666015,0.2594507217407226
0.2993579864501953,0.2576322555541992
0.2993579864501953,0.2576322555541992
0.2968809127807617,0.2578079223632813
0.2992406845092773,0.2578079223632813
0.2977003097534179,0.2558681488037109
0.2977003097534179,0.2558681488037109
0.2992469787597656,0.2623975753784180
0.2992469787597656,0.2623975753784180
0.2978370666503906,0.2558801651000976
0.2978370666503906,0.2558801651000976
0.2995370864868164,0.2581644058227539
0.2995370864868164,0.2581644058227539
0.2975778579711914,0.2579824447631836
0.2975778579711914,0.2579824447631836
0.2983600616455078,0.2611249923706054
0.2983600616455078,0.2611249923706054
0.2997579574584961,0.2592853546142578
0.2997579574584961,0.2592853546142578
0.2977861404418945,0.2569175720214844
0.2977861404418945,0.2569175720214844
0.2998855590820312,0.2588819503784179
0.2998855590820312,0.2588819503784179
0.2984447479248047,0.2637760162353516
0.2984447479248047,0.2637760162353516
0.2990301132202148,0.2584671020507812
0.2990301132202148,0.2584671020507812
0.3003324508666992,0.2605613708496093
0.3003324508666992,0.2605613708496093
0.2987268447875976,0.2575424194335937
0.2987268447875976,0.2575424194335937
0.3008228302001953,0.2646451950073242
0.3008228302001953,0.2646451950073242
0.2991182327270508,0.2608938217163086
0.2991182327270508,0.2608938217163086
0.2990209579467774,0.2594444274902344
0.2990209579467774,0.2594444274902344
0.3006494522094726,0.2612302780151367
0.3006494522094726,0.2612302780151367
0.2995450973510742,0.2632902145385742
0.2995450973510742,0.2632902145385742
0.3013309478759765,0.2617006301879883
0.3013309478759765,0.2617006301879883
0.3014911651611328,0.2549354553222656
0.3014911651611328,0.2549354553222656
0.2989477157592773,0.2612371444702148
0.3034492492675781,0.2612371444702148
0.3018447875976563,0.2618316650390625
0.2992967605590820,0.2618316650390625
0.3001270294189453,0.2633411407470703
0.3001270294189453,0.2633411407470703
0.3002271652221680,0.2538414001464844
0.3002271652221680,0.2538414001464844
0.3020530700683594,0.2640335083007813
0.3020530700683594,0.2640335083007813
0.3000057220458984,0.2639041900634765
0.3000057220458984,0.2639041900634765
0.3008159637451172,0.2625841140747070
0.3008159637451172,0.2625841140747070
0.3016777038574219,0.2567075729370117
0.3016777038574219,0.2567075729370117
0.3008205413818359,0.2628307342529297
0.3008205413818359,0.2628307342529297
0.3030956268310547,0.2652751922607422
0.3030956268310547,0.2652751922607422
0.2987823486328125,0.2629400253295898
0.2987823486328125,0.2629400253295898
0.3019592285156250,0.2549852371215820
0.3019592285156250,0.2549852371215820
0.3014974594116211,0.2642223358154297
0.3014974594116211,0.2642223358154297
0.3005681991577148,0.2628948211669922
0.3005681991577148,0.2628948211669922
0.3003570556640625,0.2622304916381836
0.3003570556640625,0.2622304916381836
0.2980699539184570,0.2515960693359375
0.2980699539184570,0.2515960693359375
0.2997636795043945,0.2584922790527344
0.2997636795043945,0.2584922790527344
0.2994197845458984,0.2595708847045898
0.2994197845458984,0.2595708847045898
0.2964935302734375,0.2564180374145508
0.2964935302734375,0.2564180374145508
0.2989093780517578,0.2500785827636718
0.2989093780517578,0.2500785827636718
0.2960226058959961,0.2555305480957031
0.2960226058959961,0.2555305480957031
0.2985368728637695,0.2566108703613281
0.2985368728637695,0.2566108703613281
0.2965793609619141,0.2565095901489258
0.2965793609619141,0.2565095901489258
0.2965267181396484,0.2467397689819336
0.2965267181396484,0.2467397689819336
0.2982753753662109,0.2565084457397461
0.2982753753662109,0.2565084457397461
0.2960409164428711,0.2548650741577148
0.2960409164428711,0.2548650741577148
0.2968442916870117,0.2544662475585938
0.2968442916870117,0.2544662475585938
0.2974531173706055,0.2486595153808594
0.2974531173706055,0.2486595153808594
0.2965599060058594,0.2544885635375976
0.2965599060058594,0.2544885635375976
0.2988721847534180,0.2580162048339844
0.2988721847534180,0.2580162048339844
0.2947729110717773,0.2547237396240234
0.2947729110717773,0.2547237396240234
0.2981180191040039,0.2474287033081055
0.2981180191040039,0.2474287033081055
0.2980207443237304,0.2572723388671875
0.2980207443237304,0.2572723388671875
0.2976408004760742,0.2558664321899414
0.2976408004760742,0.2558664321899414
0.2980745315551758,0.2578428268432617
0.2980745315551758,0.2578428268432617
0.2965209960937500,0.2486543655395508
0.3013051986694336,0.2486543655395508
0.2990003585815429,0.2567916870117187
0.2990003585815429,0.2567916870117187
0.2991880416870117,0.2600881576538086
0.2991880416870117,0.2600881576538086
0.2968568801879883,0.2566234588623047
0.2968568801879883,0.2566234588623047
0.2995800018310547,0.2510370254516601
0.2995800018310547,0.2510370254516601
0.2970485687255859,0.2570411682128906
0.2970485687255859,0.2570411682128906
0.2997871398925781,0.2574033737182617
0.2997871398925781,0.2574033737182617
0.2979320526123047,0.2587177276611328
0.2981603622436523,0.2587177276611328
0.2979286193847656,0.2490606307983398
0.2979286193847656,0.2490606307983398
0.2996778488159180,0.2589529037475586
0.2996778488159180,0.2589529037475586
0.2975687026977539,0.2585821151733398
0.2975687026977539,0.2585821151733398
0.2984241485595703,0.2572809219360351
0.2984241485595703,0.2572809219360351
0.2991588592529297,0.2514650344848633
0.2991588592529297,0.2514650344848633
0.2983474731445312,0.2575138092041016
0.2983474731445312,0.2575138092041016
0.3005498886108398,0.2599319458007812
0.3005498886108398,0.2599319458007812
0.2965988159179687,0.2578754425048828
0.3011438369750977,0.2578754425048828
0.2998443603515625,0.2505128860473633
0.2998443603515625,0.2505128860473633
0.2996686935424804,0.2603284835815430
0.2996686935424804,0.2603284835815430
0.2993110656738281,0.2600601196289062
0.2993110656738281,0.2600601196289062
0.2997270584106445,0.2606981277465820
0.2997270584106445,0.2606981277465820
0.2981140136718750,0.2513002395629882
0.2981140136718750,0.2513002395629882
0.3005722045898437,0.2596029281616211
0.3005722045898437,0.2596029281616211
0.3007959365844726,0.2618150711059570
0.3007959365844726,0.2618150711059570
0.2984533309936523,0.2597110748291016
0.2984533309936523,0.2597110748291016
0.3012559890747070,0.2542293548583984
0.3012559890747070,0.2542293548583984
0.2986885070800781,0.2604457855224609
0.2986885070800781,0.2604457855224609
0.3016199111938476,0.2622516632080078
0.3016199111938476,0.2622516632080078
0.2998489379882812,0.2625577926635742
0.2998489379882812,0.2625577926635742
0.2999977111816406,0.2531902313232422
0.2999977111816406,0.2531902313232422
0.3019454956054687,0.2633605957031250
0.3019454956054687,0.2633605957031250
0.2999055862426758,0.2619827270507812
0.2999055862426758,0.2619827270507812
0.3007884979248047,0.2619569778442383
0.3007884979248047,0.2619569778442383
0.3015403747558594,0.2561513900756836
0.3015403747558594,0.2561513900756836
0.3006820678710938,0.2624988555908203
0.3006820678710938,0.2624988555908203
0.3030401229858398,0.2661111831665039
0.3030401229858398,0.2661111831665039
0.2990776062011719,0.2629079818725586
0.2990776062011719,0.2629079818725586
0.3023534774780273,0.2554401397705078
0.3023534774780273,0.2554401397705078
0.3022132873535156,0.2652442932128906
0.3022132873535156,0.2652442932128906
0.3017246246337891,0.2638074874877930
0.3017246246337891,0.2638074874877930
0.3020828247070312,0.2654897689819336
0.2989625930786133,0.2654897689819336
0.3003467559814453,0.2555259704589843
0.3003467559814453,0.2555259704589843
0.3024793624877929,0.2634664535522461
0.3024793624877929,0.2634664535522461
0.3024244308471680,0.2660425186157226
0.3024244308471680,0.2660425186157226
0.2995485305786132,0.2617166519165039
0.2995485305786132,0.2617166519165039
0.3017160415649414,0.2548931121826172
0.3017160415649414,0.2548931121826172
0.2985380172729492,0.2598026275634766
0.2985380172729492,0.2598026275634766
0.3005847930908203,0.2590930938720703
0.3005847930908203,0.2590930938720703
0.2983285903930664,0.2593952178955078
0.2982782363891601,0.2593952178955078
0.2978719711303711,0.2491052627563476
0.2978719711303711,0.2491052627563476
0.2993150711059570,0.2583440780639648
0.2993150711059570,0.2583440780639648
0.2969398498535156,0.2573518753051758
0.2969398498535156,0.2573518753051758
0.2975755691528320,0.2556026458740234
0.2975755691528320,0.2556026458740234
0.2980693817138672,0.2495544433593750
0.2980693817138672,0.2495544433593750
0.2971870422363281,0.2552530288696289
0.2971870422363281,0.2552530288696289
0.2993150711059570,0.2574691772460938
0.2993150711059570,0.2574691772460938
0.2952060699462891,0.2551706314086914
0.2952060699462891,0.2551706314086914
0.2983760833740234,0.2476673126220703
0.2983760833740234,0.2476673126220703
0.2980682373046875,0.2571985244750977
0.2980682373046875,0.2571985244750977
0.2976676940917969,0.2567401885986328
0.2976676940917969,0.2567401885986328
0.2981191635131836,0.2574039459228515
0.2981191635131836,0.2574039459228515
0.2964946746826172,0.2481628417968750
0.3012456893920898,0.2481628417968750
0.2989477157592773,0.2562938690185547
0.2989477157592773,0.2562938690185547
0.2991485595703125,0.2585769653320312
0.2991485595703125,0.2585769653320312
0.2969461441040039,0.2565925598144531
0.2969461441040039,0.2565925598144531
0.2998266220092773,0.2512098312377929
0.2998266220092773,0.2512098312377929
0.2973609924316406,0.2574268341064453
0.2973609924316406,0.2574268341064453
0.3002105712890625,0.2590181350708008
0.3002105712890625,0.2590181350708008
0.2984590530395508,0.2593694686889648
0.2984590530395508,0.2593694686889648
0.2983491897583008,0.2498388290405273
0.2995691299438477,0.2498388290405273
0.3004022598266601,0.2594856262207031
0.2970720291137695,0.2594856262207031
0.2980293273925781,0.2578388214111328
0.2980293273925781,0.2578388214111328
0.2987932205200195,0.2575389862060547
0.2987932205200195,0.2575389862060547
0.2992418289184570,0.2516979217529297
0.2992418289184570,0.2516979217529297
0.2983623504638672,0.2575435638427734
0.2983623504638672,0.2575435638427734
0.3008497238159180,0.2608148574829102
0.3008497238159180,0.2608148574829102
0.2967515945434570,0.2574628829956054
0.2967515945434570,0.2574628829956054
0.2999073028564453,0.2501501083374023
0.2999073028564453,0.2501501083374023
0.2996355056762695,0.2599800109863281
0.2996355056762695,0.2599800109863281
0.2991674423217773,0.2584356307983398
0.2991674423217773,0.2584356307983398
0.2997694015502930,0.2599456787109375
0.2997694015502930,0.2599456787109375
0.2979206085205078,0.2507034301757812
0.2979206085205078,0.2507034301757812
0.3003421783447265,0.2589071273803711
0.3003421783447265,0.2589071273803711
0.3004806518554687,0.2623283386230469
0.3004806518554687,0.2623283386230469
0.2982627868652344,0.2590724945068359
0.2982627868652344,0.2590724945068359
0.3012645721435547,0.2533842086791992
0.3012645721435547,0.2533842086791992
0.2986742019653320,0.2595960617065430
0.2986742019653320,0.2595960617065430
0.3014219284057617,0.2601562500000000
0.2986106872558594,0.2601562500000000
0.2996217727661133,0.2618551254272461
0.2996217727661133,0.2618551254272461
0.2997282028198242,0.2524715423583984
0.2997282028198242,0.2524715423583984
0.3016141891479492,0.2623655319213867
0.3016141891479492,0.2623655319213867
0.2997482299804687,0.2622522354125976
0.2997482299804687,0.2622522354125976
0.3007032394409180,0.2611066818237305
0.3007032394409180,0.2611066818237305
0.3012474060058594,0.2556432723999023
0.3012474060058594,0.2556432723999023
0.3005332946777344,0.2616674423217774
0.3005332946777344,0.2616674423217774
0.3029348373413086,0.2641530990600586
0.3029348373413086,0.2641530990600586
0.2989397048950195,0.2621360778808594
0.2989397048950195,0.2621360778808594
0.3021703720092773,0.2547128677368164
0.3021703720092773,0.2547128677368164
0.3019804000854492,0.2646051406860351
0.3019804000854492,0.2646051406860351
0.3016530990600586,0.2643505096435547
0.3016530990600586,0.2643505096435547
0.3021898269653320,0.2647155761718750
0.3021898269653320,0.2647155761718750
0.3003942489624024,0.2553400039672851
0.3003942489624024,0.2553400039672851
0.3026950836181641,0.2634384155273438
0.3026950836181641,0.2634384155273438
0.3027070999145507,0.2652076721191406
0.3027070999145507,0.2652076721191406
0.3001207351684570,0.2625389099121094
0.3001207351684570,0.2625389099121094
0.3024141311645508,0.2559837341308593
0.3024141311645508,0.2559837341308593
0.2993316650390625,0.2611324310302734
0.2993316650390625,0.2611324310302734
0.3015151977539062,0.2615907669067383
0.3015151977539062,0.2615907669067383
0.2991147994995117,0.2607295989990234
0.2991147994995117,0.2607295989990234
0.2984945297241211,0.2500934600830078
0.2984945297241211,0.2500934600830078
0.3000297546386719,0.2589391708374023
0.3000297546386719,0.2589391708374023
0.2973855972290039,0.2565662384033203
0.2973855972290039,0.2565662384033203
0.2979091644287109,0.2557943344116211
0.2979091644287109,0.2557943344116211
0.2981288909912109,0.2496276855468750
0.2981288909912109,0.2496276855468750
0.2970525741577149,0.2551700592041016
0.2970525741577149,0.2551700592041016
0.2963481903076172,0.2544771194458008
0.2952936172485351,0.2544771194458008
0.2986227035522461,0.2566080093383789
0.2986227035522461,0.2566080093383789
0.2965141296386719,0.2529184341430664
0.2965141296386719,0.2529184341430664
0.2987291336059570,0.2598890304565429
0.2987291336059570,0.2598890304565429
0.2967905044555664,0.2560306549072265
0.2967905044555664,0.2560306549072265
0.2970886230468750,0.2542774200439453
0.2970886230468750,0.2542774200439453
0.2984355926513672,0.2563962936401367
0.2984355926513672,0.2563962936401367
0.2971361160278320,0.2580568313598633
0.2971361160278320,0.2580568313598633
0.2991107940673828,0.2567556381225586
0.2991107940673828,0.2567556381225586
0.2973426818847656,0.2570451736450195
0.2973426818847656,0.2570451736450195
0.2978559494018554,0.2550012588500977
0.2978559494018554,0.2550012588500977
0.2994821548461914,0.2619060516357422
0.2994821548461914,0.2619060516357422
0.2981723785400390,0.2555494308471680
0.2981723785400390,0.2555494308471680
0.2992761611938476,0.2579566955566406
0.2992761611938476,0.2579566955566406
0.2977020263671875,0.2577449798583984
0.2977020263671875,0.2577449798583984
0.2987955093383789,0.2606534957885742
0.2987955093383789,0.2606534957885742
0.2998998641967773,0.2586639404296875
0.2998998641967773,0.2586639404296875
0.2983303070068359,0.2558996200561524
0.2983303070068359,0.2558996200561524
0.2996229171752929,0.2573627471923828
0.2996229171752929,0.2573627471923828
0.2981494903564453,0.2621452331542969
0.2981494903564453,0.2621452331542969
0.2987583160400391,0.2566497802734375
0.2987583160400391,0.2566497802734375
0.2993843078613281,0.2585409164428711
0.2993843078613281,0.2585409164428711
0.2980333328247070,0.2555030822753906
0.2980333328247070,0.2555030822753906
0.3000228881835937,0.2622465133666992
0.3000228881835937,0.2622465133666992
0.2983028411865234,0.2585575103759766
0.2983028411865234,0.2585575103759766
0.2990037918090820,0.2570434570312500
0.2990037918090820,0.2570434570312500
0.2998306274414063,0.2584093093872070
0.2998306274414063,0.2584093093872070
0.2987812042236328,0.2606775283813477
0.2987812042236328,0.2606775283813477
0.3004909515380859,0.2591588973999023
0.3004909515380859,0.2591588973999023
0.2981998443603516,0.2594701766967774
0.2981998443603516,0.2594701766967774
0.2991931915283203,0.2576705932617188
0.2991931915283203,0.2576705932617188
0.3007015228271484,0.2641834259033203
0.3007015228271484,0.2641834259033203
0.2993614196777344,0.2578737258911133
0.2993614196777344,0.2578737258911133
0.3010047912597656,0.2602678298950195
0.3010047912597656,0.2602678298950195
0.2990369796752930,0.2598672866821289
0.2990369796752930,0.2598672866821289
0.3001075744628906,0.2632570266723633
0.2993602752685547,0.2632570266723633
0.3013755798339844,0.2614517211914062
0.3013755798339844,0.2614517211914062
0.2994300842285156,0.2590518951416015
0.2994300842285156,0.2590518951416015
0.3013835906982422,0.2611295700073242
0.3013835906982422,0.2611295700073242
0.3000617980957031,0.2658714294433593
0.3000617980957031,0.2658714294433593
0.3008234024047852,0.2606340408325195
0.3008234024047852,0.2606340408325195
0.3020118713378906,0.2626871109008789
0.3020118713378906,0.2626871109008789
0.3002534866333008,0.2595256805419922
0.3002534866333008,0.2595256805419922
0.3023414611816406,0.2667108535766601
0.3023414611816406,0.2667108535766601
0.3006151199340820,0.2630207061767578
0.3006151199340820,0.2630207061767578
0.3007587432861328,0.2615993499755859
0.3007587432861328,0.2615993499755859
0.3022018432617187,0.2630807876586914
0.3022018432617187,0.2630807876586914
0.3009796142578125,0.2649501800537109
0.3009796142578125,0.2649501800537109
0.3025428771972656,0.2630813598632812
0.3025428771972656,0.2630813598632812
0.3004652023315429,0.2626224517822265
0.3004652023315429,0.2626224517822265
0.3004211425781250,0.2596200942993164
0.3004211425781250,0.2596200942993164
0.3014036178588867,0.2654216766357422
0.3014036178588867,0.2654216766357422
0.2993339538574218,0.2576900482177734
0.2993339538574218,0.2576900482177734
0.2998844146728515,0.2588790893554687
0.2998844146728515,0.2588790893554687
0.2976779937744141,0.2575424194335937
0.2976779937744141,0.2575424194335937
0.2981437683105468,0.2594060897827148
0.2981437683105468,0.2594060897827148
0.2989860534667969,0.2568431854248047
0.2989860534667969,0.2568431854248047
0.2970720291137695,0.2534528732299804
0.3000400543212891,0.2534528732299804
0.2981655120849609,0.2545618057250976
0.2981655120849609,0.2545618057250976
0.2965387344360351,0.2590221405029297
0.2965387344360351,0.2590221405029297
0.2971155166625977,0.2533681869506836
0.2971155166625977,0.2533681869506836
0.2976408004760742,0.2552175521850586
0.2976408004760742,0.2552175521850586
0.2962617874145508,0.2520755767822265
0.2962617874145508,0.2520755767822265
0.2982456207275391,0.2585706710815430
0.2982456207275391,0.2585706710815430
0.2964242935180664,0.2549097061157227
0.2964242935180664,0.2549097061157227
0.2970508575439453,0.2533224105834961
0.2970508575439453,0.2533224105834961
0.2979526519775391,0.2545904159545898
0.2979526519775391,0.2545904159545898
0.2968729019165039,0.2566205978393555
0.2968729019165039,0.2566205978393555
0.2985877990722656,0.2553005218505859
0.2985877990722656,0.2553005218505859
0.2963132858276367,0.2556524276733398
0.2963132858276367,0.2556524276733398
0.2972660064697266,0.2539524078369140
0.2972660064697266,0.2539524078369140
0.2989631652832031,0.2605316162109375
0.2989631652832031,0.2605316162109375
0.2975761413574219,0.2543140411376953
0.2975761413574219,0.2543140411376953
0.2993328094482422,0.2566915512084961
0.2993328094482422,0.2566915512084961
0.2971858978271484,0.2561874389648438
0.2971858978271484,0.2561874389648438
0.2982564926147461,0.2593185424804688
0.2982564926147461,0.2593185424804688
0.2995233535766602,0.2574256896972656
0.2995233535766602,0.2574256896972656
0.2974308013916016,0.2547071456909180
0.2974308013916016,0.2547071456909180
0.2991577148437500,0.2564958572387695
0.2991577148437500,0.2564958572387695
0.2976533889770508,0.2608812332153320
0.2976533889770508,0.2608812332153320
0.2982748031616211,0.2553926467895508
0.2982748031616211,0.2553926467895508
0.2993637084960937,0.2572546005249023
0.2993637084960937,0.2572546005249023
0.2975641250610351,0.2538064956665039
0.2975641250610351,0.2538064956665039
0.2996377944946289,0.2608589172363281
0.2996377944946289,0.2608589172363281
0.2978227615356445,0.2572071075439453
0.2978227615356445,0.2572071075439453
0.2979240417480469,0.2556564331054688
0.2979240417480469,0.2556564331054688
0.2993202209472656,0.2573369979858398
0.2993202209472656,0.2573369979858398
0.2984453201293945,0.2592384338378906
0.2984453201293945,0.2592384338378906
0.3000148773193359,0.2578611373901367
0.3000148773193359,0.2578611373901367
0.2982015609741211,0.2580202102661133
0.2982015609741211,0.2580202102661133
0.2984933853149414,0.2557966232299805
0.2984933853149414,0.2557966232299805
0.3001699447631836,0.2626625061035156
0.3001699447631836,0.2626625061035156
0.2987485885620117,0.2563053131103515
0.2987485885620117,0.2563053131103515
0.2999570846557617,0.2587303161621093
0.2999570846557617,0.2587303161621093
0.2984281539916992,0.2586433410644531
0.2984281539916992,0.2586433410644531
0.2994535446166992,0.2616296768188476
0.2994535446166992,0.2616296768188476
0.3008165359497070,0.2599634170532226
0.3008165359497070,0.2599634170532226
0.2993608474731445,0.2576030731201172
0.2993608474731445,0.2576030731201172
0.3007925033569336,0.2591217041015625
0.3007925033569336,0.2591217041015625
0.2994764328002930,0.2641662597656250
0.2994764328002930,0.2641662597656250
0.3001287460327148,0.2589483261108398
0.3001287460327148,0.2589483261108398
0.3009235382080078,0.2611272811889648
0.3009235382080078,0.2611272811889648
0.2996492385864258,0.2582336425781250
0.2996492385864258,0.2582336425781250
0.3017538070678711,0.2651086807250976
0.3017538070678711,0.2651086807250976
0.3000200271606445,0.2615060806274414
0.3000200271606445,0.2615060806274414
0.3005430221557617,0.2599353790283203
0.3005430221557617,0.2599353790283203
0.3015363693237305,0.2612520217895508
0.2997762680053711,0.2612520217895508
0.3004543304443359,0.2632329940795898
0.3004543304443359,0.2632329940795898
0.3020124435424805,0.2615827560424804
0.3020124435424805,0.2615827560424804
0.2996040344238281,0.2614774703979492
0.2996040344238281,0.2614774703979492
0.3000400543212891,0.2589139938354492
0.3000400543212891,0.2589139938354492
0.3011884689331055,0.2645851135253906
0.3011884689331055,0.2645851135253906
0.2992893218994140,0.2571086883544922
0.2992893218994140,0.2571086883544922
0.3002357482910156,0.2582582473754882
0.3002357482910156,0.2582582473754882
0.2975481033325195,0.2565576553344727
0.2975481033325195,0.2565576553344727
0.2979669570922852,0.2586942672729492
0.2979669570922852,0.2586942672729492
0.2987617492675781,0.2560581207275390
0.2987617492675781,0.2560581207275390
0.2964220046997070,0.2526866912841797
0.2964220046997070,0.2526866912841797
0.2979400634765625,0.2540370941162109
0.2979400634765625,0.2540370941162109
0.2962543487548828,0.2581346511840820
0.2962543487548828,0.2581346511840820
0.2967023849487305,0.2525333404541015
0.2967023849487305,0.2525333404541015
0.2977386474609375,0.2542585372924804
0.2977386474609375,0.2542585372924804
0.2958560943603515,0.2506290435791015
0.2958560943603515,0.2506290435791015
0.2978387832641601,0.2575218200683594
0.2978387832641601,0.2575218200683594
0.2961164474487304,0.2538402557373047
0.2961164474487304,0.2538402557373047
0.2960620880126953,0.2522197723388672
0.2960620880126953,0.2522197723388672
0.2974983215332031,0.2538808822631836
0.2956701278686523,0.2538808822631836
0.2964071273803711,0.2556221008300781
0.2964071273803711,0.2556221008300781
0.2983131408691406,0.2542327880859375
0.2983131408691406,0.2542327880859375
0.2964969635009765,0.2545806884765625
0.2964969635009765,0.2545806884765625
0.2968002319335937,0.2524669647216797
0.2968002319335937,0.2524669647216797
0.2986501693725586,0.2594043731689453
0.2986501693725586,0.2594043731689453
0.2972705841064453,0.2533018112182617
0.2972705841064453,0.2533018112182617
0.2985271453857422,0.2557210922241211
0.2985271453857422,0.2557210922241211
0.2969587326049805,0.2556318283081054
0.2969587326049805,0.2556318283081054
0.2979154586791992,0.2583938598632812
0.2979154586791992,0.2583938598632812
0.2991262435913086,0.2567378997802734
0.2991262435913086,0.2567378997802734
0.2976213455200195,0.2539363861083984
0.2976213455200195,0.2539363861083984
0.2989082336425781,0.2552822113037109
0.2989082336425781,0.2552822113037109
0.2974891662597656,0.2601030349731445
0.2974891662597656,0.2601030349731445
0.2979995727539063,0.2545801162719726
0.2979995727539063,0.2545801162719726
0.2986953735351562,0.2565164566040039
0.2986953735351562,0.2565164566040039
0.2972900390625000,0.2534631729125976
0.2972900390625000,0.2534631729125976
0.2993362426757812,0.2599359512329101
0.2993362426757812,0.2599359512329101
0.2975429534912109,0.2563671112060547
0.2975429534912109,0.2563671112060547
0.2979967117309570,0.2547552108764649
0.2979967117309570,0.2547552108764649
0.2990009307861328,0.2560506820678711
0.2990009307861328,0.2560506820678711
0.2979223251342774,0.2582736968994140
0.2979223251342774,0.2582736968994140
0.2998065948486328,0.2568431854248047
0.2998065948486328,0.2568431854248047
0.2975360870361328,0.2572174072265625
0.2998340606689453,0.2503320693969727
0.2999467849731445,0.2563728332519531
0.2999467849731445,0.2617183685302734
0.3001321792602539,0.2579984664916992
0.3001321792602539,0.2579984664916992
0.2988218307495117,0.2584671020507812
0.2988218307495117,0.2584671020507812
0.2985940933227539,0.2490503311157226
0.2985940933227539,0.2490503311157226
0.3004274368286133,0.2590930938720703
0.3004274368286133,0.2590930938720703
0.2983016967773438,0.2577255249023437
0.2983016967773438,0.2577255249023437
0.2996160507202149,0.2576568603515625
0.2996160507202149,0.2576568603515625
0.3000320434570312,0.2520790100097656
0.3000320434570312,0.2520790100097656
0.2990844726562500,0.2579555511474609
0.2990844726562500,0.2579555511474609
0.3015277862548828,0.2618019104003906
0.2980791091918945,0.2618019104003906
0.2978845596313476,0.2586147308349609
0.3022184371948242,0.2586147308349609
0.3008880615234375,0.2513460159301757
0.3008880615234375,0.2513460159301757
0.3008193969726562,0.2610637664794922
0.3008193969726562,0.2610637664794922
0.3003364562988281,0.2594839096069336
0.3003364562988281,0.2594839096069336
0.3010614395141601,0.2614826202392578
0.3010614395141601,0.2614826202392578
0.2989986419677734,0.2520824432373047
0.2989986419677734,0.2520824432373047
0.3014682769775390,0.2601081848144531
0.3014682769775390,0.2601081848144531
0.3016702651977539,0.2633766174316406
0.3016702651977539,0.2633766174316406
0.2995765686035156,0.2597414016723633
0.2995765686035156,0.2597414016723633
0.3019889831542968,0.2542900085449218
0.3019889831542968,0.2542900085449218
0.2991920471191406,0.2599937438964844
0.2991920471191406,0.2599937438964844
0.3016851425170898,0.2598369598388672
0.3016851425170898,0.2598369598388672
0.3000343322753906,0.2605550765991211
0.3000343322753906,0.2605550765991211
0.2990547180175781,0.2499155044555664
0.2990547180175781,0.2499155044555664
0.3003450393676758,0.2588630676269531
0.3003450393676758,0.2588630676269531
0.2974971771240234,0.2573793411254883
0.2974971771240234,0.2573793411254883
0.2982227325439453,0.2549846649169922
0.2982227325439453,0.2549846649169922
0.2980762481689453,0.2483516693115234
0.2980762481689453,0.2483516693115234
0.2967355728149414,0.2532285690307617
0.2967355728149414,0.2532285690307617
0.2986404418945313,0.2551866531372070
0.2986404418945313,0.2551866531372070
0.2945943832397461,0.2525178909301758
0.2945943832397461,0.2525178909301758
0.2973564147949219,0.2448892593383789
0.2973564147949219,0.2448892593383789
0.2971389770507812,0.2541864395141601
0.2971389770507812,0.2541864395141601
0.2965227127075195,0.2533201217651367
0.2965227127075195,0.2533201217651367
0.2972064971923828,0.2540422439575195
0.2972064971923828,0.2540422439575195
0.2950355529785156,0.2447622299194336
0.2997585296630859,0.2447622299194336
0.2974554061889648,0.2524143218994140
0.2974554061889648,0.2524143218994140
0.2977375030517578,0.2545520782470703
0.2977375030517578,0.2545520782470703
0.2956609725952148,0.2521820068359375
0.2956609725952148,0.2521820068359375
0.2981729507446289,0.2471237182617188
0.2981729507446289,0.2471237182617188
0.2955385208129883,0.2532583236694336
0.2955385208129883,0.2532583236694336
0.2985151290893555,0.2549623489379882
0.2985151290893555,0.2549623489379882
0.2974256515502929,0.2556255340576172
0.2974256515502929,0.2556255340576172
0.2971063613891601,0.2461732864379883
0.2971063613891601,0.2461732864379883
0.2989963531494140,0.2562223434448242
0.2989963531494140,0.2562223434448242
0.2968025207519531,0.2548799514770508
0.2968025207519531,0.2548799514770508
0.2981620788574219,0.2546344757080078
0.2981620788574219,0.2546344757080078
0.2985059738159180,0.2488901138305664
0.2985059738159180,0.2488901138305664
0.2973461151123047,0.2543214797973632
0.2973461151123047,0.2543214797973632
0.2995983123779297,0.2577632904052734
0.2995983123779297,0.2577632904052734
0.2958177566528320,0.2544073104858398
0.2958177566528320,0.2544073104858398
0.2986146926879883,0.2468885421752930
0.2986146926879883,0.2468885421752930
0.2984413146972656,0.2562280654907226
0.2984413146972656,0.2562280654907226
0.2977907180786133,0.2543621063232422
0.2977907180786133,0.2543621063232422
0.2985757827758789,0.2562715530395508
0.2985757827758789,0.2562715530395508
0.2964048385620117,0.2469474792480469
0.2964048385620117,0.2469474792480469
0.2987606048583984,0.2547826766967773
0.2987606048583984,0.2547826766967773
0.2991800308227539,0.2580516815185547
0.2991800308227539,0.2580516815185547
0.2970909118652343,0.2545646667480468
0.2970909118652343,0.2545646667480468
0.2995033264160156,0.2494491577148437
0.2995033264160156,0.2494491577148437
0.2968648910522461,0.2554372787475586
0.2968648910522461,0.2554372787475586
0.2997488021850586,0.2559585571289062
0.2997488021850586,0.2559585571289062
0.2986610412597656,0.2575321197509766
0.2986610412597656,0.2575321197509766
0.2981437683105468,0.2479768753051758
0.2981437683105468,0.2479768753051758
0.3000011444091797,0.2581094741821289
0.3000011444091797,0.2581094741821289
0.2978096008300781,0.2578393936157227
0.2978096008300781,0.2578393936157227
0.2992933273315430,0.2566846847534179
0.2992933273315430,0.2566846847534179
0.2997745513916015,0.2510787963867188
0.2997745513916015,0.2510787963867188
0.2987915039062500,0.2568042755126953
0.2987915039062500,0.2568042755126953
0.3011466979980469,0.2596561431884766
0.3011466979980469,0.2596561431884766
0.2974147796630859,0.2575338363647461
0.2974147796630859,0.2575338363647461
0.3004634857177734,0.2502159118652343
0.3004634857177734,0.2502159118652343
0.3003879547119140,0.2599914550781250
0.3003879547119140,0.2599914550781250
0.2997945785522461,0.2593317031860352
0.2997945785522461,0.2593317031860352
0.3007387161254882,0.2602523803710937
0.3007387161254882,0.2602523803710937
0.2984767913818359,0.2508539199829101
0.2984767913818359,0.2508539199829101
0.3010602951049804,0.2589179992675781
0.2989580154418945,0.2589179992675781
0.3012828826904297,0.2611873626708984
0.3012828826904297,0.2611873626708984
0.2991806030273437,0.2585729598999023
0.2991806030273437,0.2585729598999023
0.3015363693237305,0.2532114028930664
0.3015363693237305,0.2532114028930664
0.2986078262329102,0.2589220046997070
0.2986078262329102,0.2589220046997070
0.3012514114379883,0.2598443984985351
0.3012514114379883,0.2598443984985351
0.2998180389404297,0.2595142364501953
0.2998180389404297,0.2595142364501953
0.2987051010131836,0.2487905502319336
0.2987051010131836,0.2487905502319336
0.2999628067016601,0.2577775955200195
0.2999628067016601,0.2577775955200195
0.2969404220581054,0.2551826477050781
0.2969404220581054,0.2551826477050781
0.2978742599487305,0.2538740158081055
0.2978742599487305,0.2538740158081055
0.2976739883422851,0.2473903656005859
0.2976739883422851,0.2473903656005859
0.2961988449096680,0.2520240783691406
0.2961988449096680,0.2520240783691406
0.2982444763183594,0.2551534652709961
0.2982444763183594,0.2551534652709961
0.2942430496215820,0.2515079498291016
0.2983526229858398,0.2515079498291016
0.2969650268554687,0.2439165115356445
0.2969650268554687,0.2439165115356445
0.2967779159545899,0.2531284332275390
0.2967779159545899,0.2531284332275390
0.2960203170776367,0.2510084152221679
0.2960203170776367,0.2510084152221679
0.2969003677368164,0.2529476165771484
0.2969003677368164,0.2529476165771484
0.2944559097290039,0.2436504364013672
0.2992074966430664,0.2436504364013672
0.2969255447387695,0.2513048171997070
0.2969255447387695,0.2513048171997070
0.2973352432250976,0.2545320510864258
0.2973352432250976,0.2545320510864258
0.2952581405639648,0.2509128570556641
0.2952581405639648,0.2509128570556641
0.2975601196289062,0.2460073471069336
0.2975601196289062,0.2460073471069336
0.2949348449707031,0.2519651412963867
0.2949348449707031,0.2519651412963867
0.2979434967041015,0.2525516510009765
0.2979434967041015,0.2525516510009765
0.2969781875610352,0.2542430877685547
0.2969781875610352,0.2542430877685547
0.2964929580688476,0.2447507858276367
0.2964929580688476,0.2447507858276367
0.2983503341674805,0.2549343109130859
0.2983503341674805,0.2549343109130859
0.2961765289306640,0.2545749664306641
0.2961765289306640,0.2545749664306641
0.2975915908813476,0.2531822204589844
0.2975915908813476,0.2531822204589844
0.2980001449584961,0.2475271224975586
0.2980001449584961,0.2475271224975586
0.2967996597290039,0.2527702331542969
0.2967996597290039,0.2527702331542969
0.2990552902221680,0.2553514480590820
0.2990552902221680,0.2553514480590820
0.2952627182006836,0.2530849456787109
0.2994907379150391,0.2530849456787109
0.2980195999145508,0.2456405639648437
0.2980195999145508,0.2456405639648437
0.2978736877441406,0.2550258636474609
0.2972517013549805,0.2540685653686524
0.2972517013549805,0.2540685653686524
0.2981122970581054,0.2549858093261719
0.2981122970581054,0.2549858093261719
0.2958251953125000,0.2457853317260742
0.2958251953125000,0.2457853317260742
0.2982776641845703,0.2535032272338867
0.2982776641845703,0.2535032272338867
0.2986558914184570,0.2556758880615234
0.2986558914184570,0.2556758880615234
0.2966119766235352,0.2531673431396484
0.2966119766235352,0.2531673431396484
0.2989562988281250,0.2482686996459961
0.2989562988281250,0.2482686996459961
0.2962005615234375,0.2542442321777343
0.2962005615234375,0.2542442321777343
0.2991348266601562,0.2558034896850586
0.2991348266601562,0.2558034896850586
0.2982267379760742,0.2563076019287109
0.2982267379760742,0.2563076019287109
0.2976202011108398,0.2466842651367187
0.2976202011108398,0.2466842651367187
0.2995714187622070,0.2569089889526367
0.2995714187622070,0.2569089889526367
0.2972717285156250,0.2555700302124023
0.2972717285156250,0.2555700302124023
0.2988739013671875,0.2553863525390625
0.2988739013671875,0.2553863525390625
0.2993230819702148,0.2499509811401367
0.2993230819702148,0.2499509811401367
0.2981603622436523,0.2554927825927734
0.2981603622436523,0.2554927825927734
0.3006465911865234,0.2594472885131836
0.3006465911865234,0.2594472885131836
0.2970577239990234,0.2564397811889648
0.2970577239990234,0.2564397811889648
0.2999959945678711,0.2490188598632812
0.2999959945678711,0.2490188598632812
0.3000452041625977,0.2587474822998047
0.3000452041625977,0.2587474822998047
0.2993259429931641,0.2568998336791992
0.2993259429931641,0.2568998336791992
0.3003204345703125,0.2590953826904297
0.3003204345703125,0.2590953826904297
0.2980167388916016,0.2499080657958984
0.2980167388916016,0.2499080657958984
0.3004989624023438,0.2577083587646484
0.3004989624023438,0.2577083587646484
0.3009727478027344,0.2609487533569336
0.3009727478027344,0.2609487533569336
0.2988315582275390,0.2570331573486328
0.2988315582275390,0.2570331573486328
0.3009572982788086,0.2518741607666016
0.3009572982788086,0.2518741607666016
0.2980384826660156,0.2574497222900390
0.2980384826660156,0.2574497222900390
0.3005968093872070,0.2571281433105468
0.3005968093872070,0.2571281433105468
0.2991628646850586,0.2577220916748047
0.2991628646850586,0.2577220916748047
0.2977809906005859,0.2468828201293945
0.2977809906005859,0.2468828201293945
0.2990043640136719,0.2558189392089844
0.2990043640136719,0.2558189392089844
0.2961215972900391,0.2544170379638672
0.2961215972900391,0.2544170379638672
0.2970846176147461,0.2519691467285156
0.2970846176147461,0.2519691467285156
0.2969610214233399,0.2455375671386719
0.2969610214233399,0.2455375671386719
0.2953914642333984,0.2500997543334961
0.2953914642333984,0.2500997543334961
0.2954183578491211,0.2523387908935547
0.2954183578491211,0.2487087249755859
0.2975624084472656,0.2498622894287109
0.2962280273437500,0.2498622894287109
0.2961021423339844,0.2422451019287109
0.2961021423339844,0.2422451019287109
0.2959487915039062,0.2513774871826172
0.2959487915039062,0.2513774871826172
0.2951585769653320,0.2501958847045898
0.2951585769653320,0.2501958847045898
0.2961347579956055,0.2511629104614257
0.2961347579956055,0.2511629104614257
0.2936679840087891,0.2420270919799805
0.2983646392822266,0.2420270919799805
0.2960975646972656,0.2494663238525391
0.2941692352294922,0.2494663238525391
0.2965335845947266,0.2516109466552734
0.2965335845947266,0.2516109466552734
0.2944868087768555,0.2488986968994140
0.2944868087768555,0.2488986968994140
0.2966480255126953,0.2442066192626953
0.2966480255126953,0.2442066192626953
0.2940084457397461,0.2501701354980468
0.2940084457397461,0.2501701354980468
0.2970033645629883,0.2516435623168945
0.2970033645629883,0.2516435623168945
0.2962497711181640,0.2522872924804687
0.2962497711181640,0.2522872924804687
0.2954841613769531,0.2427623748779297
0.2954841613769531,0.2427623748779297
0.2975280761718750,0.2529750823974609
0.2975280761718750,0.2529750823974609
0.2952306747436523,0.2516189575195312
0.2952306747436523,0.2516189575195312
0.2968591690063476,0.2511686325073242
0.2968591690063476,0.2511686325073242
0.2970743179321289,0.2456342697143555
0.2970743179321289,0.2456342697143555
0.2957679748535156,0.2507154464721680
0.2957679748535156,0.2507154464721680
0.2980287551879883,0.2543975830078125
0.2980287551879883,0.2543975830078125
0.2944313049316406,0.2512104034423828
0.2944313049316406,0.2512104034423828
0.2970909118652343,0.2436332702636719
0.2970909118652343,0.2436332702636719
0.2970920562744140,0.2529956817626953
0.2970920562744140,0.2529956817626953
0.2962114334106445,0.2507446289062500
0.2962114334106445,0.2507446289062500
0.2972299575805664,0.2529636383056640
0.2972299575805664,0.2529636383056640
0.2948850631713867,0.2437500000000000
0.2948850631713867,0.2437500000000000
0.2973094940185547,0.2515508651733399
0.2955144882202148,0.2515508651733399
0.2977787017822265,0.2548994064331054
0.2977787017822265,0.2548994064331054
0.2957347869873047,0.2510593414306641
0.2957347869873047,0.2510593414306641
0.2980047225952148,0.2463603973388672
0.2980047225952148,0.2463603973388672
0.2953805923461914,0.2523777008056641
0.2953805923461914,0.2523777008056641
0.2982650756835937,0.2527267456054688
0.2982650756835937,0.2527267456054688
0.2975263595581055,0.2543375015258789
0.2975263595581055,0.2543375015258789
0.2966142654418945,0.2446334838867187
0.2966142654418945,0.2446334838867187
0.2985837936401367,0.2549308776855468
0.2985837936401367,0.2549308776855468
0.2964111328125000,0.2547683715820312
0.2964111328125000,0.2547683715820312
0.2980911254882813,0.2533996582031250
0.2980911254882813,0.2533996582031250
0.2984075546264648,0.2479986190795898
0.2984075546264648,0.2479986190795898
0.2972791671752930,0.2532119750976562
0.2972791671752930,0.2532119750976562
0.2996618270874024,0.2563144683837891
0.2996618270874024,0.2563144683837891
0.2962303161621094,0.2544662475585938
0.2962303161621094,0.2544662475585938
0.2989007949829102,0.2471002578735352
0.2989007949829102,0.2471002578735352
0.2990055084228516,0.2567430496215820
0.2990055084228516,0.2567430496215820
0.2982667922973632,0.2557090759277343
0.2996761322021484,0.2557090759277343
0.2994071960449219,0.2569044113159180
0.2994071960449219,0.2569044113159180
0.2970302581787109,0.2478693008422851
0.2970302581787109,0.2478693008422851
0.2995645523071289,0.2555448532104492
0.2995645523071289,0.2555448532104492
0.2999908447265625,0.2577352523803711
0.2999908447265625,0.2577352523803711
0.2978851318359375,0.2548627853393555
0.2978851318359375,0.2548627853393555
0.3000114440917969,0.2498451232910156
0.3000114440917969,0.2498451232910156
0.2971132278442383,0.2555952072143555
0.2971132278442383,0.2555952072143555
0.2997270584106445,0.2563087463378906
0.2997270584106445,0.2563087463378906
0.2985792160034180,0.2560695648193359
0.2985792160034180,0.2560695648193359
0.2970474243164062,0.2451765060424805
0.2970474243164062,0.2451765060424805
0.2983074188232422,0.2542104721069336
0.2983074188232422,0.2542104721069336
0.2953920364379883,0.2518993377685547
0.2953920364379883,0.2518993377685547
0.2964351654052734,0.2504322052001953
0.2964351654052734,0.2504322052001953
0.2962234497070312,0.2440710067749023
0.2962234497070312,0.2440710067749023
0.2944690704345703,0.2483476638793945
0.2944690704345703,0.2483476638793945
0.2964643478393554,0.2516756057739258
0.2964643478393554,0.2516756057739258
0.2928508758544922,0.2482961654663086
0.2928508758544922,0.2482961654663086
0.2952930450439453,0.2405113220214844
0.2952930450439453,0.2405113220214844
0.2952049255371094,0.2495899200439453
0.2952049255371094,0.2495899200439453
0.2942115783691406,0.2471843719482422
0.2942115783691406,0.2471843719482422
0.2952981948852539,0.2492729187011719
0.2952981948852539,0.2492729187011719
0.2927850723266601,0.2403585433959961
0.2971864700317383,0.2403585433959961
0.2951419830322266,0.2476066589355469
0.2951419830322266,0.2476066589355469
0.2955791473388672,0.2507795333862304
0.2951328277587891,0.2507795333862304
0.2935758590698242,0.2468370437622070
0.2935758590698242,0.2468370437622070
0.2956935882568359,0.2422451019287109
0.2956935882568359,0.2422451019287109
0.2931346893310547,0.2482898712158203
0.2931346893310547,0.2482898712158203
0.2960357666015625,0.2487098693847656
0.2960357666015625,0.2487098693847656
0.2954813003540039,0.2504962921142578
0.2954813003540039,0.2504962921142578
0.2944868087768555,0.2408792495727539
0.2944868087768555,0.2408792495727539
0.2964752197265625,0.2511119842529297
0.2964752197265625,0.2511119842529297
0.2943792343139648,0.2510581970214844
0.2943792343139648,0.2510581970214844
0.2961038589477539,0.2495372772216797
0.2961038589477539,0.2495372772216797
0.2962835311889648,0.2440229415893554
0.2962835311889648,0.2440229415893554
0.2949846267700195,0.2488740921020508
0.2949846267700195,0.2488740921020508
0.2972190856933594,0.2516052246093750
0.2972190856933594,0.2516052246093750
0.2937578201293945,0.2497049331665039
0.2937578201293945,0.2497049331665039
0.2962966918945312,0.2421266555786133
0.2962966918945312,0.2421266555786133
0.2962423324584961,0.2514238357543945
0.2962423324584961,0.2514238357543945
0.2953903198242188,0.2500900268554687
0.2953903198242188,0.2500900268554687
0.2965787887573242,0.2512842178344726
0.2965787887573242,0.2512842178344726
0.2940948486328125,0.2425060272216797
0.2940948486328125,0.2425060272216797
0.2965330123901367,0.2498628616333008
0.2965330123901367,0.2498628616333008
0.2969724655151367,0.2521837234497070
0.2969724655151367,0.2521837234497070
0.2950269699096680,0.2493730545043945
0.2950269699096680,0.2493730545043945
0.2971504211425781,0.2447319030761719
0.2971504211425781,0.2447319030761719
0.2945949554443359,0.2509683609008789
0.2945949554443359,0.2509683609008789
0.2975812911987304,0.2522146224975586
0.2975812911987304,0.2522146224975586
0.2968872070312500,0.2528852462768554
0.2968872070312500,0.2528852462768554
0.2958703994750976,0.2430284500122070
0.2958703994750976,0.2430284500122070
0.2977952957153320,0.2532737731933594
0.2977952957153320,0.2532737731933594
0.2956724166870117,0.2523056030273437
0.2956724166870117,0.2523056030273437
0.2975143432617187,0.2518747329711914
0.2975143432617187,0.2518747329711914
0.2977214813232422,0.2465017318725586
0.2977214813232422,0.2465017318725586
0.2964008331298828,0.2516281127929688
0.2964008331298828,0.2516281127929688
0.2988733291625976,0.2556758880615234
0.2988733291625976,0.2556758880615234
0.2956575393676757,0.2530752182006836
0.2956575393676757,0.2530752182006836
0.2982833862304687,0.2455513000488281
0.2982833862304687,0.2455513000488281
0.2983755111694336,0.2551700592041016
0.2983755111694336,0.2551700592041016
0.2975366592407226,0.2530345916748047
0.2975366592407226,0.2530345916748047
0.2988578796386719,0.2553674697875977
0.2988578796386719,0.2553674697875977
0.2964065551757812,0.2467517852783203
0.2964065551757812,0.2467517852783203
0.2988704681396484,0.2541749954223633
0.2988704681396484,0.2541749954223633
0.2993442535400391,0.2574954986572265
0.2993442535400391,0.2574954986572265
0.2974067687988281,0.2535289764404297
0.2974067687988281,0.2535289764404297
0.2994352340698242,0.2487419128417969
0.2994352340698242,0.2487419128417969
0.2968042373657226,0.2548959732055664
0.2968042373657226,0.2548959732055664
0.2996458053588867,0.2548078536987304
0.2996458053588867,0.2548078536987304
0.2988161087036132,0.2560701370239258
0.2988161087036132,0.2560701370239258
0.2972883224487304,0.2455478668212890
0.2972883224487304,0.2455478668212890
0.2987543106079101,0.2550384521484375
0.2954635620117188,0.2550384521484375
0.2961484909057617,0.2540925979614257
0.2961484909057617,0.2540925979614257
0.2973518371582031,0.2512882232666016
0.2973518371582031,0.2512882232666016
0.2967281341552734,0.2447902679443359
0.2967281341552734,0.2447902679443359
0.2948673248291016,0.2486057281494141
0.2948673248291016,0.2486057281494141
0.2967212677001953,0.2506628036499023
0.2967212677001953,0.2506628036499023
0.2930179595947265,0.2482572555541992
0.2930179595947265,0.2482572555541992
0.2951900482177734,0.2401571273803711
0.2951900482177734,0.2401571273803711
0.2948770523071289,0.2490869522094726
0.2948770523071289,0.2490869522094726
0.2938974380493164,0.2474395751953125
0.2938974380493164,0.2474395751953125
0.2950412750244141,0.2483573913574219
0.2950412750244141,0.2483573913574219
0.2924091339111328,0.2395626068115234
0.2924091339111328,0.2395626068115234
0.2948106765747070,0.2467243194580078
0.2948106765747070,0.2467243194580078
0.2951339721679687,0.2488019943237305
0.2951339721679687,0.2488019943237305
0.2931901931762695,0.2457956314086914
0.2931901931762695,0.2457956314086914
0.2951311111450195,0.2411561965942383
0.2951311111450195,0.2411561965942383
0.2925384521484375,0.2472993850708008
0.2925384521484375,0.2472993850708008
0.2955013275146484,0.2484477996826172
0.2955013275146484,0.2484477996826172
0.2949960708618164,0.2491670608520508
0.2949960708618164,0.2491670608520508
0.2938619613647461,0.2395254135131836
0.2938619613647461,0.2395254135131836
0.2958881378173828,0.2496751785278320
0.2958881378173828,0.2496751785278320
0.2938911437988281,0.2489902496337890
0.2938911437988281,0.2489902496337890
0.2957496643066406,0.2484626770019531
0.2957496643066406,0.2484626770019531
0.2958961486816406,0.2431921005249023
0.2958961486816406,0.2431921005249023
0.2944953918457031,0.2480878829956055
0.2944953918457031,0.2480878829956055
0.2967916488647461,0.2517488479614258
0.2933298110961914,0.2517488479614258
0.2936113357543945,0.2490154266357422
0.2936113357543945,0.2490154266357422
0.2959522247314453,0.2412809371948242
0.2943952560424805,0.2412809371948242
0.2959459304809570,0.2504350662231445
0.2959459304809570,0.2504350662231445
0.2949319839477539,0.2480260848999023
0.2949319839477539,0.2480260848999023
0.2962497711181640,0.2501472473144531
0.2962497711181640,0.2501472473144531
0.2935964584350586,0.2416666030883789
