REDsignal,IRsignal
0.3416759490966797,0.3251266479492188
0.3416759490966797,0.3251266479492188
0.3408760070800781,0.3277833938598633
0.3408760070800781,0.3277833938598633
0.3406145095825195,0.3257160186767578
0.3427854537963867,0.3280563354492188
0.3427854537963867,0.3280563354492188
0.3400062561035156,0.3267156600952149
0.3400062561035156,0.3267156600952149
0.3424924850463867,0.3265594482421875
0.3424924850463867,0.3265594482421875
0.3416353225708008,0.3291687011718750
0.3416353225708008,0.3291687011718750
0.3408834457397461,0.3271602630615234
0.3408834457397461,0.3271602630615234
0.3436758041381836,0.3297214508056641
0.3436758041381836,0.3297214508056641
0.3410259246826172,0.3284557342529297
0.3410259246826172,0.3284557342529297
0.3435379028320312,0.3283819198608398
0.3435379028320312,0.3283819198608398
0.3427087783813477,0.3311988830566406
0.3427087783813477,0.3311988830566406
0.3420570373535156,0.3292963027954102
0.3420570373535156,0.3292963027954102
0.3449598312377929,0.3320074081420898
0.3449598312377929,0.3320074081420898
0.3422979354858398,0.3307336807250976
0.3422979354858398,0.3307336807250976
0.3448585510253906,0.3307142257690430
0.3448585510253906,0.3307142257690430
0.3439876556396484,0.3333492279052734
0.3439876556396484,0.3333492279052734
0.3432603836059570,0.3313905715942383
0.3432603836059570,0.3313905715942383
0.3459732055664063,0.3338281631469727
0.3459732055664063,0.3338281631469727
0.3432397842407227,0.3319707870483398
0.3432397842407227,0.3319707870483398
0.3452613830566406,0.3310203552246094
0.3452613830566406,0.3310203552246094
0.3433032989501953,0.3316869735717773
0.3433032989501953,0.3316869735717773
0.3410230636596679,0.3267047882080078
0.3410230636596679,0.3267047882080078
0.3417268753051758,0.3254562377929687
0.3417268753051758,0.3254562377929687
0.3367841720581055,0.3197662353515625
0.3367841720581055,0.3197662353515625
0.3367464065551758,0.3154541015625000
0.3367464065551758,0.3154541015625000
0.3331912994384765,0.3137523651123047
0.3331912994384765,0.3137523651123047
0.3304269790649414,0.3079553604125976
0.3304269790649414,0.3079553604125976
0.3313636779785156,0.3076389312744141
0.3313636779785156,0.3076389312744141
0.3275075912475586,0.3038801193237304
0.3275075912475586,0.3038801193237304
0.3288167953491211,0.3024644851684570
0.3288167953491211,0.3024644851684570
0.3270406723022461,0.3036695480346679
0.3270406723022461,0.3036695480346679
0.3260713577270508,0.3008102416992187
0.3260713577270508,0.3008102416992187
0.3285770416259766,0.3030206680297852
0.3285770416259766,0.3030206680297852
0.3260450363159180,0.3012594223022461
0.3260450363159180,0.3012594223022461
0.3282199859619140,0.3013235092163086
0.3282199859619140,0.3013235092163086
0.3271350860595703,0.3036735534667969
0.3271350860595703,0.3036735534667969
0.3266304016113281,0.3015993118286133
0.3266304016113281,0.3015993118286133
0.3293375015258789,0.3044219970703125
0.3293375015258789,0.3044219970703125
0.3271911621093750,0.3031373977661133
0.3271911621093750,0.3031373977661133
0.3297197341918945,0.3040655136108398
0.3297197341918945,0.3040655136108398
0.3290199279785156,0.3070650100708008
0.3290199279785156,0.3070650100708008
0.3290124893188476,0.3058879852294922
0.3290124893188476,0.3058879852294922
0.3321636199951172,0.3094791412353515
0.3321636199951172,0.3094791412353515
0.3303417205810547,0.3088920593261719
0.3303417205810547,0.3088920593261719
0.3330419540405273,0.3102464675903320
0.3330419540405273,0.3102464675903320
0.3322603225708008,0.3130348205566406
0.3322603225708008,0.3130348205566406
0.3321601867675781,0.3112907409667969
0.3321601867675781,0.3112907409667969
0.3349599838256836,0.3141918182373047
0.3349599838256836,0.3141918182373047
0.3327083587646484,0.3125478744506836
0.3327083587646484,0.3125478744506836
0.3348712921142578,0.3131486892700195
0.3348712921142578,0.3131486892700195
0.3335289001464843,0.3148824691772461
0.3335289001464843,0.3148824691772461
0.3329824447631836,0.3124380111694336
0.3329824447631836,0.3124380111694336
0.3353736877441406,0.3147571563720703
0.3353736877441406,0.3147571563720703
0.3329092025756836,0.3126428604125976
0.3329092025756836,0.3126428604125976
0.3349222183227539,0.3132516860961914
0.3349222183227539,0.3132516860961914
0.3335403442382812,0.3148601531982422
0.3335403442382812,0.3148601531982422
0.3330739974975586,0.3125347137451172
0.3330739974975586,0.3125347137451172
0.3355585098266601,0.3152114868164063
0.3355585098266601,0.3152114868164063
0.3333286285400390,0.3133335113525391
0.3333286285400390,0.3133335113525391
0.3355585098266601,0.3145030975341797
0.3355585098266601,0.3145030975341797
0.3343557357788086,0.3164262771606445
0.3343557357788086,0.3164262771606445
0.3340387344360352,0.3144556045532226
0.3340387344360352,0.3144556045532226
0.3367938995361328,0.3175924301147461
0.3367938995361328,0.3175924301147461
0.3347894668579102,0.3159696578979492
0.3347894668579102,0.3159696578979492
0.3372241973876953,0.3176239013671875
0.3372241973876953,0.3176239013671875
0.3360906600952148,0.3197353363037109
0.3360906600952148,0.3197353363037109
0.3360225677490234,0.3178064346313477
0.3360225677490234,0.3178064346313477
0.3387868881225586,0.3211681365966797
0.3387868881225586,0.3211681365966797
0.3367670059204101,0.3195407867431641
0.3367670059204101,0.3195407867431641
0.3392698287963867,0.3213134765625000
0.3392698287963867,0.3213134765625000
0.3381471633911133,0.3232458114624023
0.3381471633911133,0.3232458114624023
0.3379468917846680,0.3213987350463867
0.3379468917846680,0.3213987350463867
0.3407392501831055,0.3246706008911133
0.3407392501831055,0.3246706008911133
0.3386157989501953,0.3228109359741211
0.3386157989501953,0.3228109359741211
0.3411340713500977,0.3245109558105468
0.3411340713500977,0.3245109558105468
0.3399204254150390,0.3263202667236328
0.3399204254150390,0.3263202667236328
0.3396354675292969,0.3243221282958984
0.3396354675292969,0.3243221282958984
0.3422842025756836,0.3274526596069336
0.3422842025756836,0.3274526596069336
0.3401447296142578,0.3253395080566406
0.3401447296142578,0.3253395080566406
0.3425262451171875,0.3269582748413086
0.3425262451171875,0.3269582748413086
0.3410997390747070,0.3284877777099609
0.3410997390747070,0.3284877777099609
0.3408445358276367,0.3262475967407226
0.3408445358276367,0.3262475967407226
0.3433021545410156,0.3292831420898437
0.3433021545410156,0.3292831420898437
0.3410619735717773,0.3269714355468750
0.3410619735717773,0.3269714355468750
0.3435321807861328,0.3287258148193359
0.3435321807861328,0.3287258148193359
0.3420650482177734,0.3301591873168945
0.3420650482177734,0.3301591873168945
0.3418453216552734,0.3280694961547851
0.3418453216552734,0.3280694961547851
0.3443687438964844,0.3312274932861328
0.3443687438964844,0.3312274932861328
0.3422138214111328,0.3290468215942383
0.3422138214111328,0.3290468215942383
0.3447257995605469,0.3309757232666016
0.3447257995605469,0.3309757232666016
0.3433164596557617,0.3325796127319336
0.3433164596557617,0.3325796127319336
0.3433021545410156,0.3306993484497070
0.3433021545410156,0.3306993484497070
0.3458044052124024,0.3339305877685547
0.3458044052124024,0.3339305877685547
0.3437095642089844,0.3318122863769531
0.3437095642089844,0.3318122863769531
0.3463222503662109,0.3337377548217773
0.3463222503662109,0.3337377548217773
0.3447927474975586,0.3351694107055664
0.3447927474975586,0.3351694107055664
0.3446931838989258,0.3329973220825195
0.3446931838989258,0.3329973220825195
0.3469305038452148,0.3358016967773437
0.3469305038452148,0.3358016967773437
0.3444351196289062,0.3326625823974609
0.3444351196289062,0.3326625823974609
0.3461196899414062,0.3328886032104492
0.3461196899414062,0.3328886032104492
0.3430898666381836,0.3315467834472656
0.3430898666381836,0.3315467834472656
0.3409292221069336,0.3255615234375000
0.3409292221069336,0.3255615234375000
0.3407238006591797,0.3242019653320312
0.3407238006591797,0.3242019653320312
0.3359201431274414,0.3171689987182617
0.3359201431274414,0.3171689987182617
0.3357427597045898,0.3145494461059570
0.3357427597045898,0.3145494461059570
0.3317230224609375,0.3116867065429688
0.3317230224609375,0.3116867065429688
0.3298553466796875,0.3061878204345703
0.3298553466796875,0.3061878204345703
0.3304555892944336,0.3066816329956055
0.3304555892944336,0.3066816329956055
0.3270738601684570,0.3023672103881836
0.3270738601684570,0.3023672103881836
0.3286920547485351,0.3028604507446289
0.3286920547485351,0.3028604507446289
0.3264970779418945,0.3031711578369141
0.3264970779418945,0.3031711578369141
0.3264358520507812,0.3003953933715820
0.3264358520507812,0.3003953933715820
0.3282989501953125,0.3030601501464844
0.3282989501953125,0.3030601501464844
0.3258590698242188,0.3003765106201172
0.3258590698242188,0.3003765106201172
0.3283138275146484,0.3022224426269531
0.3283138275146484,0.3022224426269531
0.3265783309936524,0.3033336639404297
0.3265783309936524,0.3033336639404297
0.3270349502563477,0.3012485504150391
0.3270349502563477,0.3012485504150391
0.3291103363037109,0.3044975280761719
0.3291103363037109,0.3044975280761719
0.3269834518432617,0.3023414611816406
0.3269834518432617,0.3023414611816406
0.3297420501708984,0.3048425674438476
0.3272375106811523,0.3048425674438476
0.3310106277465820,0.3072607040405274
0.3287321090698242,0.3072607040405274
0.3285306930541992,0.3072052001953125
0.3326133728027343,0.3072052001953125
0.3314472198486328,0.3077699661254883
0.3314472198486328,0.3077699661254883
0.3318815231323242,0.3114046096801757
0.3318815231323242,0.3114046096801757
0.3309047698974609,0.3099466323852539
0.3309047698974609,0.3099466323852539
0.3342018127441406,0.3128431320190430
0.3342018127441406,0.3128431320190430
0.3314598083496094,0.3120025634765625
0.3314598083496094,0.3120025634765625
0.3340066909790039,0.3118452072143554
0.3340066909790039,0.3118452072143554
0.3337652206420899,0.3145809173583984
0.3337652206420899,0.3145809173583984
0.3323810577392578,0.3122159957885742
0.3323810577392578,0.3122159957885742
0.3351774215698242,0.3143074035644531
0.3351774215698242,0.3143074035644531
0.3320583343505859,0.3129043579101562
0.3320583343505859,0.3129043579101562
0.3343500137329101,0.3122640609741211
0.3343500137329101,0.3122640609741211
0.3337966918945313,0.3147176742553711
0.3337966918945313,0.3147176742553711
0.3324497222900391,0.3123315811157226
0.3324497222900391,0.3123315811157226
0.3353565216064453,0.3145442962646484
0.3353565216064453,0.3145442962646484
0.3322854995727539,0.3132923126220703
0.3322854995727539,0.3132923126220703
0.3348953247070313,0.3130342483520508
0.3348953247070313,0.3130342483520508
0.3342973709106445,0.3158729553222656
0.3342973709106445,0.3158729553222656
0.3333154678344726,0.3138570785522461
0.3333154678344726,0.3138570785522461
0.3363367080688476,0.3165447235107422
0.3363367080688476,0.3165447235107422
0.3335741043090820,0.3156131744384765
0.3373174667358398,0.3156131744384765
0.3363561630249023,0.3157699584960937
0.3363561630249023,0.3157699584960937
0.3358943939208984,0.3188907623291016
0.3358943939208984,0.3188907623291016
0.3351556777954102,0.3171586990356445
0.3351556777954102,0.3171586990356445
0.3382873535156250,0.3201021194458007
0.3382873535156250,0.3201021194458007
0.3355934143066406,0.3191951751708984
0.3355934143066406,0.3191951751708984
0.3385356903076172,0.3194309234619140
0.3385356903076172,0.3194309234619140
0.3377986907958984,0.3225551605224609
0.3377986907958984,0.3225551605224609
0.3372865676879883,0.3208345413208007
0.3372865676879883,0.3208345413208007
0.3403186798095703,0.3237281799316406
0.3403186798095703,0.3237281799316406
0.3377157211303711,0.3227027893066406
0.3377157211303711,0.3227027893066406
0.3404857635498047,0.3228549957275391
0.3404857635498047,0.3228549957275391
0.3396709442138672,0.3257400512695313
0.3396709442138672,0.3257400512695313
0.3389865875244141,0.3237979888916016
0.3395112991333007,0.3237979888916016
0.3419448852539063,0.3266578674316406
0.3397573471069336,0.3266578674316406
0.3394002914428711,0.3253938674926758
0.3394002914428711,0.3253938674926758
0.3420135498046875,0.3254104614257812
0.3420135498046875,0.3254104614257812
0.3409452438354492,0.3281038284301758
0.3409452438354492,0.3281038284301758
0.3402551651000976,0.3259340286254883
0.3402551651000976,0.3259340286254883
0.3431264877319336,0.3286085128784180
0.3431264877319336,0.3286085128784180
0.3403741836547852,0.3271030426025390
0.3403741836547852,0.3271030426025390
0.3429519653320313,0.3271287918090820
0.3429519653320313,0.3271287918090820
0.3418607711791992,0.3296842575073242
0.3418607711791992,0.3296842575073242
0.3412731170654297,0.3276014328002930
0.3412731170654297,0.3276014328002930
0.3441490173339843,0.3303932189941406
0.3441490173339843,0.3303932189941406
0.3416650772094726,0.3291297912597656
0.3416650772094726,0.3291297912597656
0.3441392898559570,0.3293455123901367
0.3441392898559570,0.3293455123901367
0.3432477951049804,0.3320840835571289
0.3432477951049804,0.3320840835571289
0.3426973342895508,0.3302650451660156
0.3426973342895508,0.3302650451660156
0.3456367492675781,0.3330963134765625
0.3456367492675781,0.3330963134765625
0.3432935714721679,0.3318803787231445
0.3432935714721679,0.3318803787231445
0.3457460403442383,0.3322631835937500
0.3457460403442383,0.3322631835937500
0.3447910308837890,0.3348953247070313
0.3447910308837890,0.3348953247070313
0.3442319869995117,0.3328691482543945
0.3442319869995117,0.3328691482543945
0.3470214843750000,0.3354743957519531
0.3470214843750000,0.3354743957519531
0.3443899154663086,0.3335248947143555
0.3443899154663086,0.3335248947143555
0.3463050842285156,0.3328966140747070
0.3463050842285156,0.3328966140747070
0.3443040847778320,0.3335294723510742
0.3447195053100586,0.3335294723510742
0.3421783447265625,0.3284694671630859
0.3421783447265625,0.3284694671630859
0.3427665710449219,0.3271837234497070
0.3427665710449219,0.3271837234497070
0.3378438949584961,0.3211910247802734
0.3378438949584961,0.3211910247802734
0.3375783920288086,0.3171483993530274
0.3375783920288086,0.3171483993530274
0.3339557647705078,0.3151313781738281
0.3339557647705078,0.3151313781738281
0.3311428070068359,0.3090070724487304
0.3311428070068359,0.3090070724487304
0.3318929672241211,0.3085950851440429
0.3318929672241211,0.3085950851440429
0.3281135559082031,0.3045587539672852
0.3281135559082031,0.3045587539672852
0.3293563842773438,0.3033794403076172
0.3293563842773438,0.3033794403076172
0.3274435043334961,0.3043590545654297
0.3274435043334961,0.3043590545654297
0.3264604568481445,0.3012989044189453
0.3264604568481445,0.3012989044189453
0.3287973403930664,0.3035671234130859
0.3287973403930664,0.3035671234130859
0.3263992309570312,0.3014848709106445
0.3263992309570312,0.3014848709106445
0.3284900665283203,0.3020896911621094
0.3284900665283203,0.3020896911621094
0.3272678375244141,0.3039859771728515
0.3272678375244141,0.3039859771728515
0.3268129348754883,0.3018304824829102
0.3268129348754883,0.3018304824829102
0.3295692443847656,0.3047378540039062
0.3295692443847656,0.3047378540039062
0.3274446487426758,0.3032152175903320
0.3274446487426758,0.3032152175903320
0.3299039840698242,0.3047006607055664
0.3299039840698242,0.3047006607055664
0.3290851593017578,0.3072469711303711
0.3290851593017578,0.3072469711303711
0.3291755676269531,0.3058731079101563
0.3291755676269531,0.3058731079101563
0.3322608947753906,0.3097703933715820
0.3322608947753906,0.3097703933715820
0.3305162429809570,0.3087816238403320
0.3305162429809570,0.3087816238403320
0.3333715438842773,0.3107780456542968
0.3333715438842773,0.3107780456542968
0.3324623107910156,0.3133598327636719
0.3324623107910156,0.3133598327636719
0.3324239730834961,0.3116231918334961
0.3324239730834961,0.3116231918334961
0.3353170394897461,0.3148870468139648
0.3353170394897461,0.3148870468139648
0.3330934524536133,0.3129266738891601
0.3362131118774414,0.3129266738891601
0.3353708267211914,0.3142335891723633
0.3353708267211914,0.3142335891723633
0.3339466094970703,0.3157001495361328
0.3339466094970703,0.3157001495361328
0.3334476470947266,0.3131767272949219
0.3334476470947266,0.3131767272949219
0.3358074188232422,0.3157379150390625
0.3358074188232422,0.3157379150390625
0.3333955764770508,0.3132522583007812
0.3333955764770508,0.3132522583007812
0.3354698181152344,0.3142913818359375
0.3354698181152344,0.3142913818359375
0.3339609146118164,0.3156618118286132
0.3339609146118164,0.3156618118286132
0.3334304809570313,0.3131578445434570
0.3334304809570313,0.3131578445434570
0.3360025405883789,0.3160188674926758
0.3360025405883789,0.3160188674926758
0.3336410522460938,0.3138124465942383
0.3336410522460938,0.3138124465942383
0.3360174179077148,0.3154552459716797
0.3360174179077148,0.3154552459716797
0.3346412658691406,0.3170127868652344
0.3346412658691406,0.3170127868652344
0.3343751907348633,0.3150072097778320
0.3343751907348633,0.3150072097778320
0.3370794296264648,0.3182550430297851
0.3370794296264648,0.3182550430297851
0.3349863052368164,0.3163404464721680
0.3349863052368164,0.3163404464721680
0.3376516342163086,0.3183500289916992
0.3376516342163086,0.3183500289916992
0.3363750457763672,0.3202325820922852
0.3363750457763672,0.3202325820922852
0.3362869262695312,0.3184095382690429
0.3362869262695312,0.3184095382690429
0.3390872955322266,0.3218061447143555
0.3390872955322266,0.3218061447143555
0.3369821548461914,0.3198732376098632
0.3369821548461914,0.3198732376098632
0.3397996902465820,0.3220338821411133
0.3397996902465820,0.3220338821411133
0.3383880615234375,0.3237968444824219
0.3383880615234375,0.3237968444824219
0.3383033752441406,0.3219760894775390
0.3383033752441406,0.3219760894775390
0.3408834457397461,0.3253200531005859
0.3408834457397461,0.3253200531005859
0.3388738632202148,0.3232349395751953
0.3388738632202148,0.3232349395751953
0.3415952682495117,0.3252393722534180
0.3415952682495117,0.3252393722534180
0.3400657653808594,0.3268283843994140
0.3400657653808594,0.3268283843994140
0.3399827957153320,0.3248245239257813
0.3399827957153320,0.3248245239257813
0.3424879074096679,0.3281049728393555
0.3424879074096679,0.3281049728393555
0.3402912139892578,0.3257223129272461
0.3402912139892578,0.3257223129272461
0.3428615570068359,0.3276100158691406
0.3428615570068359,0.3276100158691406
0.3412096023559570,0.3288551330566406
0.3412096023559570,0.3288551330566406
0.3411746978759765,0.3267047882080078
0.3411746978759765,0.3267047882080078
0.3435127258300781,0.3298107147216797
0.3435127258300781,0.3298107147216797
0.3411764144897461,0.3274349212646484
0.3411764144897461,0.3274349212646484
0.3437839508056640,0.3293592453002930
0.3437839508056640,0.3293592453002930
0.3421257019042969,0.3306329727172851
0.3421257019042969,0.3306329727172851
0.3422750473022461,0.3286611557006836
0.3422750473022461,0.3286611557006836
0.3446039199829101,0.3319124221801757
0.3446039199829101,0.3319124221801757
0.3424049377441406,0.3296098709106445
0.3424049377441406,0.3296098709106445
0.3450010299682617,0.3316875457763672
0.3450010299682617,0.3316875457763672
0.3434022903442382,0.3330842971801758
0.3434022903442382,0.3330842971801758
0.3436649322509766,0.3311388015747070
0.3436649322509766,0.3311388015747070
0.3459829330444336,0.3343597412109375
0.3459829330444336,0.3343597412109375
0.3437913894653320,0.3320629119873047
0.3437913894653320,0.3320629119873047
0.3462753295898438,0.3339963912963867
0.3462753295898438,0.3339963912963867
0.3446868896484375,0.3351871490478516
0.3446868896484375,0.3351871490478516
0.3449197769165039,0.3328851699829101
0.3449197769165039,0.3328851699829101
0.3467147827148437,0.3354995727539062
0.3467147827148437,0.3354995727539062
0.3439624786376953,0.3320240020751953
0.3439624786376953,0.3320240020751953
0.3453323364257813,0.3319719314575195
0.3453323364257813,0.3319719314575195
0.3419752120971680,0.3299182891845703
0.3419752120971680,0.3299182891845703
0.3402963638305664,0.3238557815551757
0.3402963638305664,0.3238557815551757
0.3397029876708984,0.3226129531860352
0.3397029876708984,0.3226129531860352
0.3349657058715820,0.3157722473144531
0.3349657058715820,0.3157722473144531
0.3351488113403320,0.3136465072631836
0.3351488113403320,0.3136465072631836
0.3311256408691406,0.3111803054809570
0.3311256408691406,0.3111803054809570
0.3300853729248047,0.3062341690063476
0.3300853729248047,0.3062341690063476
0.3305957794189453,0.3071920394897461
0.3305957794189453,0.3071920394897461
0.3274028778076172,0.3032180786132813
0.3274028778076172,0.3032180786132813
0.3294067382812500,0.3042835235595703
0.3294067382812500,0.3042835235595703
0.3270978927612305,0.3047636032104492
0.3270978927612305,0.3047636032104492
0.3277696609497070,0.3023826599121094
0.3277696609497070,0.3023826599121094
0.3269170761108398,0.3030761718750000
0.3270000457763672,0.3030761718750000
0.3287143707275391,0.3060047149658203
0.3287143707275391,0.3060047149658203
0.3275802612304687,0.3039207458496094
0.3275802612304687,0.3039207458496094
0.3306993484497070,0.3065631866455078
0.3306993484497070,0.3065631866455078
0.3279041290283203,0.3058771133422851
0.3279041290283203,0.3058771133422851
0.3308784484863281,0.3062770843505859
0.3308784484863281,0.3062770843505859
0.3307937622070312,0.3099763870239258
0.3307937622070312,0.3099763870239258
0.3302135467529297,0.3088302612304688
0.3302135467529297,0.3088302612304688
0.3337846755981445,0.3123350143432617
0.3337846755981445,0.3123350143432617
0.3313911437988281,0.3121353149414062
0.3313911437988281,0.3121353149414062
0.3345474243164062,0.3127017974853515
0.3345474243164062,0.3127017974853515
0.3342269897460937,0.3160554885864258
0.3342269897460937,0.3160554885864258
0.3335735321044922,0.3143737792968750
0.3335735321044922,0.3143737792968750
0.3365518569946289,0.3169996261596680
0.3365518569946289,0.3169996261596680
0.3336318969726562,0.3157224655151367
0.3336318969726562,0.3157224655151367
0.3361850738525390,0.3152715682983399
0.3361850738525390,0.3152715682983399
0.3351825714111328,0.3175947189331055
0.3351825714111328,0.3175947189331055
0.3341159820556641,0.3151199340820313
0.3341159820556641,0.3151199340820313
0.3366909027099609,0.3171987533569336
0.3366909027099609,0.3171987533569336
0.3336610794067383,0.3154432296752930
0.3336610794067383,0.3154432296752930
0.3360815048217773,0.3149328231811523
0.3360815048217773,0.3149328231811523
0.3349914550781250,0.3173767089843750
0.3349914550781250,0.3173767089843750
0.3340106964111328,0.3149608612060547
0.3340106964111328,0.3149608612060547
0.3368362426757812,0.3175426483154297
0.3368362426757812,0.3175426483154297
0.3340450286865234,0.3160703659057617
0.3340450286865234,0.3160703659057617
0.3366605758666992,0.3160617828369141
0.3366605758666992,0.3160617828369141
0.3357501983642578,0.3188501358032226
0.3357501983642578,0.3188501358032226
0.3350412368774414,0.3169584274291992
0.3350412368774414,0.3169584274291992
0.3380567550659180,0.3198892593383789
0.3380567550659180,0.3198892593383789
0.3355974197387695,0.3188100814819336
0.3355974197387695,0.3188100814819336
0.3383234024047851,0.3189914703369141
0.3383234024047851,0.3189914703369141
0.3374713897705078,0.3220350265502930
0.3374713897705078,0.3220350265502930
0.3369489669799804,0.3202262878417969
0.3369489669799804,0.3202262878417969
0.3400102615356445,0.3233110427856445
0.3400102615356445,0.3233110427856445
0.3376230239868164,0.3221992492675781
0.3376230239868164,0.3221992492675781
0.3403129577636719,0.3225780487060547
0.3403129577636719,0.3225780487060547
0.3394369125366211,0.3254671096801758
0.3394369125366211,0.3254671096801758
0.3389373779296875,0.3236658096313477
0.3389373779296875,0.3236658096313477
0.3419082641601562,0.3266601562500000
0.3419082641601562,0.3266601562500000
0.3395456314086914,0.3254259109497070
0.3428163528442383,0.3254259109497070
0.3420862197875976,0.3256645202636719
0.3420862197875976,0.3256645202636719
0.3410522460937500,0.3283985137939453
0.3410522460937500,0.3283985137939453
0.3404577255249023,0.3263437271118164
0.3404577255249023,0.3263437271118164
0.3432855606079102,0.3290977478027344
0.3432855606079102,0.3290977478027344
0.3409406661987305,0.3276157379150391
0.3409406661987305,0.3276157379150391
0.3432317733764648,0.3278097152709961
0.3432317733764648,0.3278097152709961
0.3420564651489258,0.3301671981811523
0.3420564651489258,0.3301671981811523
0.3415369033813476,0.3280122756958008
0.3415369033813476,0.3280122756958008
0.3442720413208007,0.3307153701782227
0.3442720413208007,0.3307153701782227
0.3418138504028320,0.3291692733764648
0.3418138504028320,0.3291692733764648
0.3441770553588867,0.3295995712280274
0.3441770553588867,0.3295995712280274
0.3430767059326172,0.3320056915283203
0.3430767059326172,0.3320056915283203
0.3425783157348632,0.3299331665039062
0.3425783157348632,0.3299331665039062
0.3453935623168945,0.3328239440917969
0.3453935623168945,0.3328239440917969
0.3431596755981445,0.3313207626342773
0.3431596755981445,0.3313207626342773
0.3455125808715820,0.3320686340332031
0.3455125808715820,0.3320686340332031
0.3444391250610351,0.3343408584594726
0.3444391250610351,0.3343408584594726
0.3440969467163086,0.3323627471923828
0.3440969467163086,0.3323627471923828
0.3467451095581054,0.3352558135986328
0.3467451095581054,0.3352558135986328
0.3445009231567382,0.3336473464965820
0.3445009231567382,0.3336473464965820
0.3466775894165039,0.3342704772949219
0.3466775894165039,0.3342704772949219
0.3454582214355469,0.3360179901123047
0.3454582214355469,0.3360179901123047
0.3445695877075195,0.3330133438110351
0.3445695877075195,0.3330133438110351
0.3464063644409179,0.3340570449829102
0.3464063644409179,0.3340570449829102
0.3425851821899414,0.3294067382812500
0.3425851821899414,0.3294067382812500
0.3427608489990234,0.3265050888061523
0.3427608489990234,0.3265050888061523
0.3390174865722656,0.3240949630737305
0.3390174865722656,0.3240949630737305
0.3361221313476562,0.3174167633056640
0.3361221313476562,0.3174167633056640
0.3362926483154297,0.3159341812133789
0.3362926483154297,0.3159341812133789
0.3316709518432617,0.3101446151733399
0.3316709518432617,0.3101446151733399
0.3320503234863281,0.3080835342407227
0.3320503234863281,0.3080835342407227
0.3292522430419922,0.3075250625610351
0.3292522430419922,0.3075250625610351
0.3278406143188476,0.3035791397094726
0.3278406143188476,0.3035791397094726
0.3297672271728516,0.3051973342895508
0.3297672271728516,0.3051973342895508
0.3269794464111328,0.3023986816406250
0.3269794464111328,0.3023986816406250
0.3289031982421875,0.3031179428100586
0.3289031982421875,0.3031179428100586
0.3274520874023437,0.3044729232788086
0.3274520874023437,0.3044729232788086
0.3269754409790039,0.3020324707031250
0.3269754409790039,0.3020324707031250
0.3294633865356445,0.3048883438110351
0.3294633865356445,0.3048883438110351
0.3272729873657226,0.3027482986450195
0.3272729873657226,0.3027482986450195
0.3296625137329102,0.3042566299438477
0.3296625137329102,0.3042566299438477
0.3284208297729492,0.3060544967651367
0.3284208297729492,0.3060544967651367
0.3282199859619140,0.3043058395385742
0.3282199859619140,0.3043058395385742
0.3311828613281250,0.3078569412231445
0.3311828613281250,0.3078569412231445
0.3293912887573242,0.3064670562744141
0.3293912887573242,0.3064670562744141
0.3322443008422851,0.3089927673339843
0.3322443008422851,0.3089927673339843
0.3314054489135742,0.3115814208984375
0.3314054489135742,0.3115814208984375
0.3315753936767578,0.3103385925292969
0.3315753936767578,0.3103385925292969
0.3346366882324219,0.3140201568603516
0.3346366882324219,0.3140201568603516
0.3326436996459961,0.3123441696166992
0.3360179901123047,0.3123441696166992
0.3354097366333008,0.3143056869506836
0.3354097366333008,0.3143056869506836
0.3339591979980469,0.3159233093261719
0.3339591979980469,0.3159233093261719
0.3336244583129883,0.3136001586914062
0.3336244583129883,0.3136001586914062
0.3361043930053711,0.3164205551147461
0.3361043930053711,0.3164205551147461
0.3336273193359375,0.3138061523437500
0.3336273193359375,0.3138061523437500
0.3359453201293945,0.3151308059692383
0.3359453201293945,0.3151308059692383
0.3342023849487304,0.3161687850952148
0.3342023849487304,0.3161687850952148
0.3337091445922851,0.3136264801025391
0.3337091445922851,0.3136264801025391
0.3360179901123047,0.3164314270019531
0.3360179901123047,0.3164314270019531
0.3336027145385742,0.3137649536132812
0.3336027145385742,0.3137649536132812
0.3360786437988281,0.3153676986694336
0.3360786437988281,0.3153676986694336
0.3343551635742187,0.3167490005493164
0.3343551635742187,0.3167490005493164
0.3341720581054687,0.3145454406738281
0.3341720581054687,0.3145454406738281
0.3367292404174805,0.3176919937133789
0.3367292404174805,0.3176919937133789
0.3345067977905273,0.3154455184936523
0.3345067977905273,0.3154455184936523
0.3370817184448242,0.3175775527954102
0.3370817184448242,0.3175775527954102
0.3356718063354492,0.3192037582397461
0.3356718063354492,0.3192037582397461
0.3357896804809570,0.3173624038696289
0.3357896804809570,0.3173624038696289
0.3384057998657227,0.3208528518676758
0.3384057998657227,0.3208528518676758
0.3362977981567383,0.3188564300537109
0.3362977981567383,0.3188564300537109
0.3389774322509765,0.3210645675659179
0.3389774322509765,0.3210645675659179
0.3375658035278320,0.3227605819702148
0.3375658035278320,0.3227605819702148
0.3378536224365234,0.3210262298583984
0.3378536224365234,0.3210262298583984
0.3403861999511719,0.3244995117187500
0.3403861999511719,0.3244995117187500
0.3382266998291015,0.3223405838012695
0.3382266998291015,0.3223405838012695
0.3408811569213867,0.3245847702026367
0.3408811569213867,0.3245847702026367
0.3394283294677734,0.3260707855224609
0.3394283294677734,0.3260707855224609
0.3397544860839843,0.3241539001464844
0.3397544860839843,0.3241539001464844
0.3419626235961914,0.3274932861328125
0.3419626235961914,0.3274932861328125
0.3397693634033203,0.3251804351806640
0.3397693634033203,0.3251804351806640
0.3424638748168945,0.3272420883178711
0.3424638748168945,0.3272420883178711
0.3407575607299805,0.3284706115722656
0.3407575607299805,0.3284706115722656
0.3411231994628906,0.3264604568481445
0.3411231994628906,0.3264604568481445
0.3431671142578125,0.3295440673828125
0.3431671142578125,0.3295440673828125
0.3408199310302734,0.3271471023559570
0.3408199310302734,0.3271471023559570
0.3433576583862304,0.3289278030395508
0.3433576583862304,0.3289278030395508
0.3415786743164063,0.3301105499267578
0.3415786743164063,0.3301105499267578
0.3421091079711914,0.3279796600341797
0.3421091079711914,0.3279796600341797
0.3440460205078125,0.3311685562133789
0.3440460205078125,0.3311685562133789
0.3417142868041992,0.3288505554199219
0.3417142868041992,0.3288505554199219
0.3417182922363281,0.3308778762817383
0.3421371459960937,0.3299365997314453
0.3425680160522461,0.3321659088134766
0.3451349258422852,0.3321659088134766
0.3434606552124023,0.3301523208618164
0.3434606552124023,0.3301523208618164
0.3453128814697266,0.3336107254028320
0.3453128814697266,0.3336107254028320
0.3430286407470703,0.3313282012939453
0.3430286407470703,0.3313282012939453
0.3458908081054687,0.3334774017333984
0.3458908081054687,0.3334774017333984
0.3439630508422851,0.3348009109497070
0.3439630508422851,0.3348009109497070
0.3450027465820312,0.3329017639160156
0.3450027465820312,0.3329017639160156
0.3467113494873047,0.3360866546630859
0.3467113494873047,0.3360866546630859
0.3443653106689453,0.3335609436035156
0.3443653106689453,0.3335609436035156
0.3469316482543945,0.3351465225219726
0.3469316482543945,0.3351465225219726
0.3443498611450195,0.3353799819946289
0.3467010498046875,0.3353799819946289
0.3445896148681640,0.3315073013305664
0.3427625656127929,0.3315073013305664
0.3445610046386718,0.3316331863403320
0.3424032211303711,0.3316331863403320
0.3399570465087891,0.3250980377197266
0.3411741256713867,0.3250980377197266
0.3403615951538086,0.3227594375610351
0.3362903594970703,0.3227594375610351
0.3354612350463867,0.3193405151367187
0.3354612350463867,0.3193405151367187
0.3342241287231445,0.3128763198852539
0.3342241287231445,0.3128763198852539
0.3334539413452148,0.3122200012207031
0.3334539413452148,0.3122200012207031
0.3291755676269531,0.3085441589355469
0.3299589157104492,0.3085441589355469
0.3279510498046875,0.3044351577758789
0.3272489547729492,0.3044351577758789
0.3298902511596680,0.3056213378906250
0.3298902511596680,0.3056213378906250
0.3264799118041992,0.3033084869384766
0.3264799118041992,0.3033084869384766
0.3287727355957031,0.3024524688720703
0.3287727355957031,0.3024524688720703
0.3276649475097656,0.3047939300537109
0.3276649475097656,0.3047939300537109
0.3266847610473633,0.3024353027343750
0.3266847610473633,0.3024353027343750
0.3295120239257812,0.3049512863159179
0.3295120239257812,0.3049512863159179
0.3266836166381836,0.3034000396728516
0.3266836166381836,0.3034000396728516
0.3293197631835937,0.3032804489135742
0.3293197631835937,0.3032804489135742
0.3284122467041016,0.3060699462890625
0.3284122467041016,0.3060699462890625
0.3277896881103515,0.3041999816894531
0.3277896881103515,0.3041999816894531
0.3309036254882812,0.3074140548706055
0.3309036254882812,0.3074140548706055
0.3285507202148437,0.3066953659057617
0.3285507202148437,0.3066953659057617
0.3315731048583984,0.3074655532836914
0.3315731048583984,0.3074655532836914
0.3311056137084961,0.3110990524291992
0.3311056137084961,0.3110990524291992
0.3308956146240234,0.3098779678344726
0.3308956146240234,0.3098779678344726
0.3342018127441406,0.3134284973144531
0.3342018127441406,0.3134284973144531
0.3319776535034180,0.3125707626342774
0.3319776535034180,0.3125707626342774
0.3347888946533203,0.3130434036254883
0.3347888946533203,0.3130434036254883
0.3338476181030273,0.3157814025878906
0.3338476181030273,0.3157814025878906
0.3331455230712890,0.3136447906494140
0.3331455230712890,0.3136447906494140
0.3359664916992187,0.3162477493286133
0.3359664916992187,0.3162477493286133
0.3334075927734375,0.3144813537597656
0.3334075927734375,0.3144813537597656
0.3355522155761719,0.3142192840576172
0.3355522155761719,0.3142192840576172
0.3342927932739257,0.3163496017456054
0.3342927932739257,0.3163496017456054
0.3333795547485351,0.3137735366821289
0.3333795547485351,0.3137735366821289
0.3359573364257812,0.3161882400512695
0.3359573364257812,0.3161882400512695
0.3334133148193359,0.3144121170043945
0.3334133148193359,0.3144121170043945
0.3356185913085937,0.3143743515014648
0.3356185913085937,0.3143743515014648
0.3343614578247070,0.3166923522949219
0.3343614578247070,0.3166923522949219
0.3338378906250000,0.3145185470581054
0.3338378906250000,0.3145185470581054
0.3365169525146484,0.3173606872558594
0.3365169525146484,0.3173606872558594
0.3342939376831054,0.3159313201904297
0.3342939376831054,0.3159313201904297
0.3366851806640625,0.3164989471435547
0.3366851806640625,0.3164989471435547
0.3356609344482422,0.3191007614135742
0.3356609344482422,0.3191007614135742
0.3352386474609375,0.3173360824584961
0.3352386474609375,0.3173360824584961
0.3382158279418945,0.3203590393066406
0.3382158279418945,0.3203590393066406
0.3360866546630859,0.3191991806030273
0.3360866546630859,0.3191991806030273
0.3385425567626953,0.3201301574707031
0.3385425567626953,0.3201301574707031
0.3375709533691406,0.3227548599243164
0.3375709533691406,0.3227548599243164
0.3373804092407227,0.3209621429443359
0.3373804092407227,0.3209621429443359
0.3401950836181640,0.3240011215209961
0.3401950836181640,0.3240011215209961
0.3381368637084961,0.3227233886718750
0.3381368637084961,0.3227233886718750
0.3404771804809570,0.3237693786621094
0.3404771804809570,0.3237693786621094
0.3394701004028320,0.3260810852050781
0.3394701004028320,0.3260810852050781
0.3391765594482422,0.3241653442382812
0.3391765594482422,0.3241653442382812
0.3420570373535156,0.3271705627441406
0.3420570373535156,0.3271705627441406
0.3398345947265625,0.3256307601928711
0.3398345947265625,0.3256307601928711
0.3421926498413086,0.3268209457397461
0.3421926498413086,0.3268209457397461
0.3409835815429688,0.3288282394409179
0.3409835815429688,0.3288282394409179
0.3406843185424804,0.3266658782958984
0.3406843185424804,0.3266658782958984
0.3433032989501953,0.3295984268188477
0.3433032989501953,0.3295984268188477
0.3410373687744140,0.3277061462402344
0.3410373687744140,0.3277061462402344
0.3433977127075195,0.3287767410278320
0.3433977127075195,0.3287767410278320
0.3420267105102539,0.3306135177612304
0.3420267105102539,0.3306135177612304
0.3416055679321289,0.3282577514648438
0.3416055679321289,0.3282577514648438
0.3442365646362305,0.3311840057373047
0.3442365646362305,0.3311840057373047
0.3419448852539063,0.3292619705200195
0.3419448852539063,0.3292619705200195
0.3443355560302734,0.3305637359619141
0.3443355560302734,0.3305637359619141
0.3430440902709961,0.3325155258178711
0.3430440902709961,0.3325155258178711
0.3427780151367187,0.3303474426269531
0.3427780151367187,0.3303474426269531
0.3454771041870117,0.3335151672363281
0.3454771041870117,0.3335151672363281
0.3433347702026367,0.3315942764282226
0.3433347702026367,0.3315942764282226
0.3457695007324219,0.3333160400390625
0.3432031631469726,0.3333160400390625
0.3445043563842773,0.3351099014282227
0.3460487365722656,0.3351099014282227
0.3442434310913086,0.3331695556640625
0.3437971115112304,0.3331695556640625
0.3469648361206055,0.3363286972045899
0.3469648361206055,0.3363286972045899
0.3447647094726562,0.3342384338378906
0.3447647094726562,0.3342384338378906
0.3472251892089844,0.3358600616455078
0.3472251892089844,0.3358600616455078
0.3457941055297851,0.3373558044433594
0.3457941055297851,0.3373558044433594
0.3452619552612304,0.3346916198730469
0.3452619552612304,0.3346916198730469
0.3473899841308594,0.3366605758666992
0.3473899841308594,0.3366605758666992
0.3440906524658203,0.3324428558349609
0.3440906524658203,0.3324428558349609
0.3448831558227539,0.3310014724731445
0.3410493850708008,0.3310014724731445
0.3411100387573242,0.3284053802490234
0.3411100387573242,0.3284053802490234
0.3383708953857422,0.3217414855957031
0.3383708953857422,0.3217414855957031
0.3382587432861328,0.3202074050903320
0.3382587432861328,0.3202074050903320
0.3335369110107422,0.3134840011596680
0.3335369110107422,0.3134840011596680
0.3337045669555664,0.3114160537719726
0.3337045669555664,0.3114160537719726
0.3303325653076172,0.3098836898803711
0.3303325653076172,0.3098836898803711
0.3288373947143555,0.3055131912231445
0.3288373947143555,0.3055131912231445
0.3302558898925781,0.3069826126098633
0.3302558898925781,0.3069826126098633
0.3274669647216797,0.3035711288452148
0.3274669647216797,0.3035711288452148
0.3295835494995117,0.3047092437744141
0.3295835494995117,0.3047092437744141
0.3276826858520508,0.3055749893188476
0.3276826858520508,0.3055749893188476
0.3274063110351562,0.3032197952270508
0.3274063110351562,0.3032197952270508
0.3297780990600586,0.3061677932739258
0.3297780990600586,0.3061677932739258
0.3275836944580078,0.3037731170654297
0.3275836944580078,0.3037731170654297
0.3300413131713867,0.3056310653686523
0.3300413131713867,0.3056310653686523
0.3286651611328125,0.3071662902832031
0.3286651611328125,0.3071662902832031
0.3286874771118164,0.3052442550659180
0.3286874771118164,0.3052442550659180
0.3313665390014648,0.3089595794677734
0.3297111511230469,0.3089595794677734
0.3294198989868164,0.3072750091552734
0.3294198989868164,0.3072750091552734
0.3324502944946289,0.3099763870239258
0.3324502944946289,0.3099763870239258
0.3313207626342773,0.3122909545898437
0.3319742202758789,0.3111076354980469
0.3319742202758789,0.3111076354980469
0.3347316741943359,0.3151159286499023
0.3347316741943359,0.3151159286499023
0.3328617095947266,0.3133827209472656
0.3328617095947266,0.3133827209472656
0.3357078552246094,0.3157876968383789
0.3357078552246094,0.3157876968383789
0.3341749191284180,0.3172468185424804
0.3341749191284180,0.3172468185424804
0.3345130920410156,0.3151960372924805
0.3345130920410156,0.3151960372924805
0.3365552902221680,0.3182676315307617
0.3365552902221680,0.3182676315307617
0.3341703414916992,0.3155342102050781
0.3341703414916992,0.3155342102050781
0.3363893508911133,0.3170934677124023
0.3363893508911133,0.3170934677124023
0.3345262527465820,0.3178504943847656
0.3345262527465820,0.3178504943847656
0.3347597122192383,0.3153367996215820
0.3347597122192383,0.3153367996215820
0.3365015029907226,0.3181245803833008
0.3365015029907226,0.3181245803833008
0.3340187072753906,0.3153854370117187
0.3340187072753906,0.3153854370117187
0.3364133834838867,0.3170631408691406
0.3364133834838867,0.3170631408691406
0.3345565795898438,0.3181394577026367
0.3345565795898438,0.3181394577026367
0.3351968765258789,0.3160217285156250
0.3351968765258789,0.3160217285156250
0.3370124816894531,0.3192386627197266
0.3370124816894531,0.3192386627197266
0.3347299575805664,0.3168931961059570
0.3347299575805664,0.3168931961059570
0.3374725341796875,0.3191305160522461
0.3374725341796875,0.3191305160522461
0.3356809616088867,0.3204866409301758
0.3356809616088867,0.3204866409301758
0.3366971969604492,0.3187419891357422
0.3366971969604492,0.3187419891357422
0.3386060714721680,0.3222536087036132
0.3386060714721680,0.3222536087036132
0.3364654541015625,0.3202114105224609
0.3364654541015625,0.3202114105224609
0.3394100189208984,0.3226827621459961
0.3394100189208984,0.3226827621459961
0.3375114440917968,0.3241024017333984
0.3375114440917968,0.3241024017333984
0.3388126373291016,0.3225128173828125
0.3388126373291016,0.3225128173828125
0.3405979156494141,0.3260364532470703
0.3405979156494141,0.3260364532470703
0.3384904861450195,0.3238574981689453
0.3384904861450195,0.3238574981689453
0.3414482116699218,0.3262441635131836
0.3414482116699218,0.3262441635131836
0.3394105911254883,0.3276048660278320
0.3394105911254883,0.3276048660278320
0.3408096313476562,0.3257989883422852
0.3408096313476562,0.3257989883422852
0.3423717498779297,0.3292236328125000
0.3423717498779297,0.3292236328125000
0.3402082443237305,0.3268283843994140
0.3402082443237305,0.3268283843994140
0.3430355072021484,0.3291080474853516
0.3430355072021484,0.3291080474853516
0.3408353805541992,0.3303239822387695
0.3408353805541992,0.3303239822387695
0.3422275543212890,0.3283309936523438
0.3422275543212890,0.3283309936523438
0.3436094284057617,0.3315462112426757
0.3436094284057617,0.3315462112426757
0.3412033081054687,0.3287544250488281
0.3412033081054687,0.3287544250488281
0.3440700531005859,0.3308853149414062
0.3440700531005859,0.3308853149414062
0.3416679382324219,0.3318643569946289
0.3416679382324219,0.3318643569946289
0.3431207656860352,0.3297918319702148
0.3431207656860352,0.3297918319702148
0.3444288253784180,0.3329109191894531
0.3444288253784180,0.3329109191894531
0.3420661926269531,0.3301969528198242
0.3420661926269531,0.3301969528198242
0.3448711395263672,0.3324714660644531
0.3448711395263672,0.3324714660644531
0.3425439834594726,0.3335603713989257
0.3425439834594726,0.3335603713989257
0.3441295623779297,0.3317104339599609
0.3441295623779297,0.3317104339599609
0.3455200195312500,0.3349536895751953
0.3455200195312500,0.3349536895751953
0.3432546615600586,0.3323255538940429
0.3432546615600586,0.3323255538940429
0.3461734771728516,0.3347562789916992
0.3461734771728516,0.3347562789916992
0.3437639236450195,0.3358320236206054
0.3437639236450195,0.3358320236206054
0.3455789566040039,0.3341171264648438
0.3455789566040039,0.3341171264648438
0.3467393875122070,0.3373397827148437
0.3467393875122070,0.3373397827148437
0.3445558547973633,0.3345594406127930
0.3445558547973633,0.3345594406127930
0.3475009918212891,0.3370033264160156
0.3475009918212891,0.3370033264160156
0.3479673385620117,0.3378490447998047
0.3479673385620117,0.3375629425048828
0.3464504241943359,0.3355230331420898
0.3464504241943359,0.3355230331420898
0.3470163345336914,0.3375280380249023
0.3470163345336914,0.3375280380249023
0.3437513351440429,0.3326351165771484
0.3437513351440429,0.3326351165771484
0.3449598312377929,0.3318214416503906
0.3449598312377929,0.3318214416503906
0.3401693344116211,0.3284631729125976
0.3401693344116211,0.3284631729125976
0.3393241882324219,0.3221958160400391
0.3393241882324219,0.3221958160400391
0.3378673553466797,0.3208076477050781
0.3378673553466797,0.3208076477050781
0.3331415176391602,0.3135990142822265
0.3331415176391602,0.3135990142822265
0.3338453292846680,0.3124145507812500
0.3338453292846680,0.3124145507812500
0.3295709609985352,0.3102064132690430
0.3295709609985352,0.3102064132690430
0.3300630569458008,0.3065168380737305
0.3300630569458008,0.3065168380737305
0.3301940917968750,0.3081098556518554
0.3301940917968750,0.3081098556518554
0.3273822784423828,0.3042886734008789
0.3273822784423828,0.3042886734008789
0.3300230026245117,0.3061935424804688
0.3300230026245117,0.3061935424804688
0.3272912979125976,0.3063434600830078
0.3272912979125976,0.3063434600830078
0.3289787292480469,0.3046617507934570
0.3289787292480469,0.3046617507934570
0.3299440383911132,0.3076955795288086
0.3299440383911132,0.3076955795288086
0.3278137207031250,0.3048191070556641
0.3278137207031250,0.3048191070556641
0.3307514190673828,0.3075096130371094
0.3281164169311523,0.3075096130371094
0.3283264160156250,0.3080120086669922
0.3316772460937500,0.3080120086669922
0.3303251266479492,0.3070055007934570
0.3303251266479492,0.3070055007934570
0.3316514968872070,0.3107425689697266
0.3316514968872070,0.3107425689697266
0.3298530578613281,0.3086179733276367
0.3298530578613281,0.3086179733276367
0.3332908630371094,0.3122303009033203
0.3332908630371094,0.3122303009033203
0.3312801361083984,0.3133340835571289
0.3312801361083984,0.3133340835571289
0.3335369110107422,0.3130096435546875
0.3335369110107422,0.3130096435546875
0.3350189208984375,0.3169063568115234
0.3346572875976562,0.3169063568115234
0.3332553863525390,0.3146123886108398
0.3332553863525390,0.3146123886108398
0.3364368438720703,0.3176856994628906
0.3364368438720703,0.3176856994628906
0.3339242935180664,0.3177846908569336
0.3339242935180664,0.3177846908569336
0.3357450485229492,0.3165515899658203
0.3357450485229492,0.3165515899658203
0.3365581512451172,0.3194229125976563
0.3365581512451172,0.3194229125976563
0.3342035293579101,0.3161550521850586
0.3342035293579101,0.3161550521850586
0.3369358062744141,0.3184501647949219
0.3369358062744141,0.3184501647949219
0.3340827941894531,0.3176862716674805
0.3340827941894531,0.3176862716674805
0.3356941223144531,0.3163204193115234
0.3356941223144531,0.3163204193115234
0.3363407135009766,0.3190229415893555
0.3363407135009766,0.3190229415893555
0.3339958190917969,0.3160274505615234
0.3339958190917969,0.3160274505615234
0.3369392395019531,0.3185377120971680
0.3369392395019531,0.3185377120971680
0.3341348648071289,0.3180038452148438
0.3341348648071289,0.3180038452148438
0.3360471725463867,0.3171054840087891
0.3360471725463867,0.3171054840087891
0.3369541168212891,0.3202617645263672
0.3369541168212891,0.3202617645263672
0.3348884582519531,0.3177217483520507
0.3348884582519531,0.3177217483520507
0.3379812240600586,0.3206995010375976
0.3379812240600586,0.3206995010375976
0.3354389190673828,0.3204116821289062
0.3354389190673828,0.3204116821289062
0.3375423431396484,0.3200134277343750
0.3375423431396484,0.3200134277343750
0.3386312484741211,0.3233093261718750
0.3386312484741211,0.3233093261718750
0.3367321014404297,0.3211126327514648
0.3387491226196289,0.3211126327514648
0.3399564743041992,0.3241653442382812
0.3399564743041992,0.3241653442382812
0.3372241973876953,0.3238723754882812
0.3372241973876953,0.3238723754882812
0.3395393371582031,0.3234575271606445
0.3395393371582031,0.3234575271606445
0.3406150817871094,0.3267814636230469
0.3406150817871094,0.3267814636230469
0.3385660171508789,0.3246139526367187
0.3385660171508789,0.3246139526367187
0.3418041229248047,0.3275802612304687
0.3418041229248047,0.3275802612304687
0.3389436721801758,0.3269393920898437
0.3389436721801758,0.3269393920898437
0.3411975860595703,0.3265657424926758
0.3411975860595703,0.3265657424926758
0.3422012329101562,0.3297374725341797
0.3422012329101562,0.3297374725341797
0.3401098251342773,0.3273628234863281
0.3401098251342773,0.3273628234863281
0.3431911468505859,0.3300985336303711
0.3431911468505859,0.3300985336303711
0.3402271270751953,0.3291646957397461
0.3402271270751953,0.3291646957397461
0.3424604415893555,0.3286525726318359
0.3424604415893555,0.3286525726318359
0.3431436538696289,0.3314661026000976
0.3431436538696289,0.3314661026000976
0.3410562515258789,0.3291372299194336
0.3410562515258789,0.3291372299194336
0.3440374374389648,0.3315605163574218
0.3440374374389648,0.3315605163574218
0.3408943176269531,0.3305059432983398
0.3408943176269531,0.3305059432983398
0.3431070327758789,0.3299263000488281
0.3431070327758789,0.3299263000488281
0.3437570571899414,0.3328468322753906
0.3437570571899414,0.3328468322753906
0.3418333053588867,0.3305952072143555
0.3418333053588867,0.3305952072143555
0.3448385238647461,0.3331644058227539
0.3448385238647461,0.3331644058227539
0.3419231414794922,0.3322671890258789
0.3419231414794922,0.3322671890258789
0.3442897796630859,0.3319673538208008
0.3442897796630859,0.3319673538208008
0.3448551177978516,0.3350103378295898
0.3448551177978516,0.3350103378295898
0.3432146072387695,0.3329847335815430
0.3432146072387695,0.3329847335815430
0.3462919235229492,0.3356306076049805
0.3462919235229492,0.3356306076049805
0.3433135986328125,0.3348455429077148
0.3433135986328125,0.3348455429077148
0.3458599090576172,0.3346652984619141
0.3458599090576172,0.3346652984619141
0.3461952209472656,0.3376842498779297
0.3461952209472656,0.3376842498779297
0.3446342468261719,0.3355545043945312
0.3446342468261719,0.3355545043945312
0.3475656509399414,0.3378421783447266
0.3475656509399414,0.3378421783447266
0.3442285537719726,0.3362560272216797
0.3442285537719726,0.3362560272216797
0.3461133956909180,0.3347293853759766
0.3461133956909180,0.3347293853759766
0.3451532363891601,0.3353639602661133
0.3451532363891601,0.3353639602661133
0.3419334411621094,0.3299674987792969
0.3419334411621094,0.3299674987792969
0.3426927566528320,0.3282932281494140
0.3426927566528320,0.3282932281494140
0.3370605468750000,0.3228361129760742
0.3370605468750000,0.3228361129760742
0.3370725631713867,0.3179969787597656
0.3370725631713867,0.3179969787597656
0.3345417022705078,0.3166254043579101
0.3345417022705078,0.3166254043579101
0.3311096191406250,0.3109285354614258
0.3311096191406250,0.3109285354614258
0.3323244094848632,0.3106407165527343
0.3292116165161132,0.3106407165527343
0.3281959533691406,0.3075387954711914
0.3281959533691406,0.3075387954711914
0.3298570632934570,0.3058731079101563
0.3298570632934570,0.3058731079101563
0.3291234970092773,0.3078094482421875
0.3291234970092773,0.3078094482421875
0.3274520874023437,0.3050279617309570
0.3274520874023437,0.3050279617309570
0.3302467346191406,0.3070758819580078
0.3302467346191406,0.3070758819580078
0.3271568298339844,0.3057128906250000
0.3271568298339844,0.3057128906250000
0.3296865463256836,0.3053375244140625
0.3296865463256836,0.3053375244140625
0.3291881561279297,0.3081413269042969
0.3291881561279297,0.3081413269042969
0.3281284332275390,0.3059617996215820
0.3289237976074219,0.3059617996215820
0.3311090469360352,0.3085641860961914
0.3311090469360352,0.3085641860961914
0.3283264160156250,0.3077270507812500
0.3283264160156250,0.3077270507812500
0.3312635421752930,0.3079999923706054
0.3312635421752930,0.3079999923706054
0.3309150695800781,0.3115333557128906
0.3309150695800781,0.3115333557128906
0.3304681777954102,0.3101938247680664
0.3304681777954102,0.3101938247680664
0.3339139938354492,0.3137758255004883
0.3339139938354492,0.3137758255004883
0.3315811157226562,0.3134674072265625
0.3315811157226562,0.3134674072265625
0.3347002029418945,0.3140739440917968
0.3347002029418945,0.3140739440917968
0.3342750549316406,0.3175397872924804
0.3342750549316406,0.3175397872924804
0.3337423324584961,0.3158872604370117
0.3337423324584961,0.3158872604370117
0.3368179321289063,0.3187253952026367
0.3368179321289063,0.3187253952026367
0.3340919494628906,0.3174190521240234
0.3340919494628906,0.3174190521240234
0.3366090774536133,0.3171489715576172
0.3366090774536133,0.3171489715576172
0.3355281829833984,0.3196317672729492
0.3355281829833984,0.3196317672729492
0.3345937728881836,0.3171541213989258
0.3345937728881836,0.3171541213989258
0.3372150421142578,0.3193857192993164
0.3372150421142578,0.3193857192993164
0.3343168258666992,0.3176753997802734
0.3343168258666992,0.3176753997802734
0.3367200851440429,0.3172079086303711
0.3367200851440429,0.3172079086303711
0.3354669570922851,0.3195562362670898
0.3354669570922851,0.3195562362670898
0.3346361160278320,0.3172559738159180
0.3346361160278320,0.3172559738159180
0.3374359130859375,0.3198509216308594
0.3374359130859375,0.3198509216308594
0.3348484039306641,0.3183517456054688
0.3348484039306641,0.3183517456054688
0.3373003005981445,0.3183563232421875
0.3373003005981445,0.3183563232421875
0.3362531661987305,0.3211486816406250
0.3362531661987305,0.3211486816406250
0.3357971191406250,0.3192523956298828
0.3357971191406250,0.3192523956298828
0.3387130737304687,0.3221351623535156
0.3387130737304687,0.3221351623535156
0.3362989425659180,0.3209890365600586
0.3362989425659180,0.3209890365600586
0.3389265060424805,0.3214565277099609
0.3389265060424805,0.3214565277099609
0.3380018234252929,0.3243793487548828
0.3380018234252929,0.3243793487548828
0.3377002716064453,0.3226495742797851
0.3377002716064453,0.3226495742797851
0.3405767440795898,0.3257240295410156
0.3405767440795898,0.3257240295410156
0.3384178161621094,0.3246356964111328
0.3384178161621094,0.3246356964111328
0.3410081863403320,0.3252639770507812
0.3410081863403320,0.3252639770507812
0.3400079727172852,0.3280694961547851
0.3400079727172852,0.3280694961547851
0.3396995544433594,0.3262464523315430
0.3400577545166015,0.3262464523315430
0.3426126480102539,0.3292442321777344
0.3405498504638672,0.3292442321777344
0.3403650283813476,0.3279493331909180
0.3435968399047851,0.3279493331909180
0.3427843093872070,0.3286428451538086
0.3427843093872070,0.3286428451538086
0.3418075561523438,0.3310861587524414
0.3418075561523438,0.3310861587524414
0.3414110183715820,0.3292242050170898
0.3414110183715820,0.3292242050170898
0.3442113876342773,0.3320680618286133
0.3442113876342773,0.3320680618286133
0.3419717788696289,0.3305614471435547
0.3419717788696289,0.3305614471435547
0.3442703247070312,0.3313299179077148
0.3442703247070312,0.3313299179077148
0.3431144714355469,0.3334619522094727
0.3431144714355469,0.3334619522094727
0.3426275253295898,0.3313133239746094
0.3426275253295898,0.3313133239746094
0.3453065872192383,0.3340227127075195
0.3453065872192383,0.3340227127075195
0.3429548263549805,0.3323232650756836
0.3429548263549805,0.3323232650756836
0.3451858520507812,0.3331134796142578
0.3451858520507812,0.3331134796142578
0.3439916610717773,0.3351110458374023
0.3439916610717773,0.3351110458374023
0.3435848236083984,0.3328920364379883
0.3435848236083984,0.3328920364379883
0.3462083816528320,0.3358188629150390
0.3462083816528320,0.3358188629150390
0.3460636138916016,0.3367984771728516
0.3460636138916016,0.3368717193603515
0.3439241409301758,0.3342000961303711
0.3460893630981445,0.3342000961303711
0.3470684051513672,0.3370416641235351
0.3470684051513672,0.3370416641235351
0.3444534301757812,0.3371126174926758
0.3444534301757812,0.3371126174926758
0.3464830398559570,0.3362869262695312
0.3464830398559570,0.3362869262695312
0.3475885391235352,0.3395908355712891
0.3475885391235352,0.3395908355712891
0.3455371856689453,0.3369976043701172
0.3455371856689453,0.3369976043701172
0.3486688613891601,0.3398803710937500
0.3486688613891601,0.3398803710937500
0.3459079742431641,0.3395519256591797
0.3459079742431641,0.3395519256591797
0.3477527618408203,0.3384647369384766
0.3477527618408203,0.3384647369384766
0.3484256744384766,0.3409744262695312
0.3484256744384766,0.3409744262695312
0.3456058502197266,0.3369186401367187
0.3456058502197266,0.3369186401367187
0.3474294662475586,0.3371978759765625
0.3474294662475586,0.3371978759765625
0.3426561355590820,0.3329383850097656
0.3426561355590820,0.3329383850097656
0.3421588897705078,0.3276535034179687
0.3421588897705078,0.3276535034179687
0.3404136657714844,0.3259998321533203
0.3404136657714844,0.3259998321533203
0.3355327606201172,0.3185966491699219
0.3355327606201172,0.3185966491699219
0.3359939575195313,0.3170694351196289
0.3359939575195313,0.3170694351196289
0.3310913085937500,0.3127275466918945
0.3310913085937500,0.3127275466918945
0.3314180374145508,0.3093400955200195
0.3314180374145508,0.3093400955200195
0.3311971664428711,0.3104106903076172
0.3311971664428711,0.3104106903076172
0.3281644821166992,0.3064029693603516
0.3281644821166992,0.3064029693603516
0.3306999206542969,0.3082883834838867
0.3306999206542969,0.3082883834838867
0.3274360656738281,0.3068407058715820
0.3274360656738281,0.3068407058715820
0.3293054580688476,0.3057546615600586
0.3293054580688476,0.3057546615600586
0.3300556182861328,0.3086025238037109
0.3300556182861328,0.3086025238037109
0.3279029846191406,0.3059326171875000
0.3279029846191406,0.3059326171875000
0.3308641433715820,0.3086105346679687
0.3308641433715820,0.3086105346679687
0.3279161453247070,0.3076526641845703
0.3279161453247070,0.3076526641845703
0.3301454544067383,0.3071880340576172
0.3301454544067383,0.3071880340576172
0.3311244964599609,0.3103895187377930
0.3311244964599609,0.3103895187377930
0.3292585372924804,0.3084468841552734
0.3292585372924804,0.3084468841552734
0.3326368331909180,0.3117027282714844
0.3326368331909180,0.3117027282714844
0.3300258636474609,0.3116352081298828
0.3300258636474609,0.3116352081298828
0.3328371047973633,0.3119945526123047
0.3328371047973633,0.3119945526123047
0.3340055465698242,0.3158185958862305
0.3340055465698242,0.3158185958862305
0.3324474334716797,0.3143726348876953
0.3324474334716797,0.3143726348876953
0.3359338760375977,0.3175649642944336
0.3359338760375977,0.3175649642944336
0.3331460952758789,0.3172794342041015
0.3331460952758789,0.3172794342041015
0.3357227325439453,0.3170757293701172
0.3357227325439453,0.3170757293701172
0.3363698959350586,0.3201564788818359
0.3363698959350586,0.3201564788818359
0.3345514297485351,0.3177778244018555
0.3345514297485351,0.3177778244018555
0.3374324798583984,0.3200283050537109
0.3374324798583984,0.3200283050537109
0.3341337203979492,0.3187648773193359
0.3341337203979492,0.3187648773193359
0.3364465713500976,0.3181022644042968
0.3364465713500976,0.3181022644042968
0.3366388320922851,0.3204614639282227
0.3366388320922851,0.3204614639282227
0.3347459793090820,0.3179409027099609
0.3347459793090820,0.3179409027099609
0.3375497817993164,0.3201124191284180
0.3375497817993164,0.3201124191284180
0.3343259811401367,0.3188896179199219
0.3343259811401367,0.3188896179199219
0.3366800308227539,0.3184965133666992
0.3366800308227539,0.3184965133666992
0.3368654251098633,0.3212717056274414
0.3368654251098633,0.3212717056274414
0.3353479385375976,0.3191694259643554
0.3353479385375976,0.3191694259643554
0.3383714675903320,0.3217369079589844
0.3383714675903320,0.3217369079589844
0.3353988647460938,0.3208293914794922
0.3353988647460938,0.3208293914794922
0.3380367279052734,0.3207973480224609
0.3380367279052734,0.3207973480224609
0.3381574630737305,0.3239067077636719
0.3381574630737305,0.3239067077636719
0.3369541168212891,0.3221071243286133
0.3369541168212891,0.3221071243286133
0.3401121139526367,0.3250036239624023
0.3401121139526367,0.3250036239624023
0.3372940063476562,0.3243043899536133
0.3372940063476562,0.3243043899536133
0.3400732040405273,0.3245183944702149
0.3400732040405273,0.3245183944702149
0.3401298522949219,0.3277416229248047
0.3401298522949219,0.3277416229248047
0.3390958786010742,0.3259935379028320
0.3390958786010742,0.3259935379028320
0.3422990798950195,0.3288476943969726
0.3422990798950195,0.3288476943969726
0.3394208908081054,0.3280460357666016
0.3394208908081054,0.3280460357666016
0.3422098159790039,0.3281272888183593
0.3422098159790039,0.3281272888183593
0.3419551849365234,0.3311742782592773
0.3419551849365234,0.3311742782592773
0.3409566879272461,0.3292825698852539
0.3409566879272461,0.3292825698852539
0.3440311431884766,0.3320474624633789
0.3440311431884766,0.3320474624633789
0.3410820007324218,0.3309396743774414
0.3410820007324218,0.3309396743774414
0.3438852310180664,0.3309162139892578
0.3438852310180664,0.3309162139892578
0.3432844161987305,0.3337629318237305
0.3432844161987305,0.3337629318237305
0.3423654556274414,0.3316772460937500
0.3423654556274414,0.3316772460937500
0.3452407836914063,0.3342235565185547
0.3452407836914063,0.3342235565185547
0.3424015045166016,0.3329750061035156
0.3424015045166016,0.3329750061035156
0.3450479507446289,0.3328033447265625
0.3450479507446289,0.3328033447265625
0.3442119598388672,0.3355344772338867
0.3442119598388672,0.3355344772338867
0.3433095932006836,0.3334213256835937
0.3433095932006836,0.3334213256835937
0.3462375640869140,0.3360534667968750
0.3462375640869140,0.3360534667968750
0.3434503555297851,0.3347322463989258
0.3434503555297851,0.3347322463989258
0.3461420059204102,0.3347585678100586
0.3461420059204102,0.3347585678100586
0.3452390670776367,0.3376173019409179
0.3452390670776367,0.3376173019409179
0.3445730209350586,0.3356351852416992
0.3445730209350586,0.3356351852416992
0.3475536346435547,0.3385763168334961
0.3475536346435547,0.3385763168334961
0.3449666976928711,0.3373077392578125
0.3449666976928711,0.3373077392578125
0.3476600646972656,0.3374301910400391
0.3476600646972656,0.3374301910400391
0.3466970443725586,0.3403266906738281
0.3466970443725586,0.3403266906738281
0.3461952209472656,0.3384069442749023
0.3461952209472656,0.3384069442749023
0.3490814208984375,0.3413154602050781
0.3469671249389648,0.3413154602050781
0.3464824676513672,0.3398580551147461
0.3498847961425781,0.3398580551147461
0.3490322113037109,0.3397590637207031
0.3490322113037109,0.3397590637207031
0.3476858139038086,0.3418607711791992
0.3476858139038086,0.3418607711791992
0.3465259552001953,0.3385293960571289
0.3465259552001953,0.3385293960571289
0.3482505798339844,0.3391542434692383
0.3482505798339844,0.3391542434692383
0.3439510345458984,0.3341548919677734
0.3439510345458984,0.3341548919677734
0.3440465927124023,0.3300647735595703
0.3440465927124023,0.3300647735595703
0.3401996612548828,0.3279132843017578
0.3401996612548828,0.3279132843017578
0.3370994567871093,0.3210971832275391
0.3370994567871093,0.3210971832275391
0.3373477935791016,0.3195213317871093
0.3373477935791016,0.3195213317871093
0.3327283859252930,0.3142856597900390
0.3327283859252930,0.3142856597900390
0.3333766937255859,0.3117811203002930
0.3333766937255859,0.3117811203002930
0.3309219360351562,0.3121067047119140
0.3309219360351562,0.3121067047119140
0.3295749664306640,0.3085081100463867
0.3295749664306640,0.3085081100463867
0.3317173004150391,0.3103168487548828
0.3317173004150391,0.3103168487548828
0.3289312362670898,0.3080142974853515
0.3319622039794922,0.3080142974853515
0.3310998916625976,0.3082065582275391
0.3310998916625976,0.3082065582275391
0.3297048568725586,0.3102029800415039
0.3297048568725586,0.3102029800415039
0.3293254852294922,0.3079702377319336
0.3293254852294922,0.3079702377319336
0.3320251464843750,0.3106641769409180
0.3320251464843750,0.3106641769409180
0.3296613693237305,0.3090602874755859
0.3296613693237305,0.3090602874755859
0.3321418762207031,0.3099460601806641
0.3321418762207031,0.3099460601806641
0.3309825897216797,0.3123321533203125
0.3309825897216797,0.3123321533203125
0.3308618545532226,0.3106676101684570
0.3308618545532226,0.3106676101684570
0.3339065551757812,0.3142301559448242
0.3339065551757812,0.3142301559448242
0.3321281433105469,0.3132871627807617
0.3321281433105469,0.3132871627807617
0.3349267959594727,0.3152206420898437
0.3349267959594727,0.3152206420898437
0.3341348648071289,0.3181388854980469
0.3341348648071289,0.3181388854980469
0.3343248367309570,0.3168067932128906
0.3343248367309570,0.3168067932128906
0.3374067306518554,0.3203990936279297
0.3374067306518554,0.3203990936279297
0.3353456497192382,0.3189594268798828
0.3353456497192382,0.3189594268798828
0.3378576278686523,0.3204568862915039
0.3378576278686523,0.3204568862915039
0.3365879058837891,0.3223320007324219
0.3365879058837891,0.3223320007324219
0.3363035202026367,0.3200248718261718
0.3363035202026367,0.3200248718261718
0.3388189315795898,0.3227045059204102
0.3388189315795898,0.3227045059204102
0.3363859176635742,0.3203109741210937
0.3363859176635742,0.3203109741210937
0.3384630203247070,0.3213249206542969
0.3384630203247070,0.3213249206542969
0.3369112014770508,0.3226409912109375
0.3369112014770508,0.3226409912109375
0.3364374160766602,0.3201284408569336
0.3364374160766602,0.3201284408569336
0.3388423919677734,0.3228429794311523
0.3388423919677734,0.3228429794311523
0.3363847732543945,0.3204963684082031
0.3363847732543945,0.3204963684082031
0.3387548446655274,0.3218713760375976
0.3387548446655274,0.3218713760375976
0.3372390747070312,0.3234226226806641
0.3372390747070312,0.3234226226806641
0.3370399475097656,0.3212894439697265
0.3370399475097656,0.3212894439697265
0.3396383285522461,0.3244983673095703
0.3396383285522461,0.3244983673095703
0.3374719619750977,0.3224172592163086
0.3374719619750977,0.3224172592163086
0.3400646209716797,0.3243558883666992
0.3400646209716797,0.3243558883666992
0.3386489868164063,0.3262670516967773
0.3386489868164063,0.3262670516967773
0.3386919021606445,0.3243827819824219
0.3386919021606445,0.3243827819824219
0.3414173126220703,0.3278566360473633
0.3414173126220703,0.3278566360473633
0.3393842697143555,0.3258985519409179
0.3393842697143555,0.3258985519409179
0.3422161102294922,0.3281427383422851
0.3422161102294922,0.3281427383422851
0.3408262252807617,0.3300155639648437
0.3408262252807617,0.3300155639648437
0.3407741546630859,0.3282457351684570
0.3407741546630859,0.3282457351684570
0.3435693740844726,0.3317007064819336
0.3435693740844726,0.3317007064819336
0.3414642333984375,0.3296167373657227
0.3414642333984375,0.3296167373657227
0.3442222595214844,0.3318941116333008
0.3442222595214844,0.3318941116333008
0.3427368164062500,0.3335208892822266
0.3427368164062500,0.3335208892822266
0.3427585601806640,0.3316314697265625
0.3427585601806640,0.3316314697265625
0.3452831268310547,0.3350200653076172
0.3452831268310547,0.3350200653076172
0.3431671142578125,0.3327707290649414
0.3431671142578125,0.3327707290649414
0.3458936691284180,0.3348403930664062
0.3458936691284180,0.3348403930664062
0.3463314056396484,0.3364574432373047
0.3436471939086914,0.3364574432373047
0.3432409286499024,0.3354967117309570
0.3432409286499024,0.3354967117309570
0.3457265853881836,0.3351116180419922
0.3457265853881836,0.3351116180419922
0.3462318420410156,0.3380899429321289
0.3461128234863281,0.3380899429321289
0.3443704605102539,0.3356632232666015
0.3443704605102539,0.3356632232666015
0.3473842620849609,0.3382513046264649
0.3473842620849609,0.3382513046264649
0.3442989349365234,0.3372539520263672
0.3442989349365234,0.3372539520263672
0.3467416763305664,0.3369392395019531
0.3467416763305664,0.3369392395019531
0.3472492218017578,0.3399484634399414
0.3472492218017578,0.3399484634399414
0.3455377578735351,0.3378118515014648
0.3455377578735351,0.3378118515014648
0.3485469818115234,0.3405000686645508
0.3485469818115234,0.3405000686645508
0.3455074310302734,0.3395713806152343
0.3455074310302734,0.3395713806152343
0.3481235504150391,0.3393602371215820
0.3481235504150391,0.3393602371215820
0.3485143661499023,0.3424827575683594
0.3485143661499023,0.3424827575683594
0.3469917297363281,0.3403810501098632
0.3469917297363281,0.3403810501098632
0.3500644683837891,0.3431396484375000
0.3500644683837891,0.3431396484375000
0.3469728469848632,0.3420484542846680
0.3469728469848632,0.3420484542846680
0.3495735168457031,0.3419088363647461
0.3495735168457031,0.3419088363647461
0.3496244430541992,0.3445261001586914
0.3496244430541992,0.3445261001586914
0.3479484558105468,0.3419591903686524
0.3479484558105468,0.3419591903686524
0.3504919052124023,0.3433502197265625
0.3504919052124023,0.3433502197265625
0.3463640213012695,0.3402946472167969
0.3463640213012695,0.3402946472167969
0.3473052978515625,0.3369026184082031
0.3473052978515625,0.3369026184082031
0.3448179244995117,0.3354703903198242
0.3448179244995117,0.3354703903198242
0.3409252166748047,0.3287263870239258
0.3409252166748047,0.3287263870239258
0.3413188934326172,0.3265829086303711
0.3413188934326172,0.3265829086303711
0.3357273101806640,0.3210268020629883
0.3357273101806640,0.3210268020629883
0.3361839294433593,0.3171146392822266
0.3361839294433593,0.3171146392822266
0.3340152740478515,0.3169155120849609
0.3340152740478515,0.3169155120849609
0.3315736770629883,0.3125787734985351
0.3315736770629883,0.3125787734985351
0.3336439132690430,0.3135869979858398
0.3336439132690430,0.3135869979858398
0.3298839569091797,0.3114641189575195
0.3298839569091797,0.3114641189575195
0.3323472976684570,0.3107282638549805
0.3323472976684570,0.3107282638549805
0.3315496444702148,0.3132087707519531
0.3315496444702148,0.3132087707519531
0.3305110931396484,0.3109045028686523
0.3305110931396484,0.3109045028686523
0.3334539413452148,0.3134731292724609
0.3334539413452148,0.3134731292724609
0.3306243896484375,0.3123247146606445
0.3306243896484375,0.3123247146606445
0.3334608078002930,0.3124568939208984
0.3334608078002930,0.3124568939208984
0.3328296661376953,0.3155519485473633
0.3328296661376953,0.3155519485473633
0.3321956634521484,0.3138673782348633
0.3321956634521484,0.3138673782348633
0.3355407714843750,0.3172445297241211
0.3355407714843750,0.3172445297241211
0.3330739974975586,0.3168422698974609
0.3330739974975586,0.3168422698974609
0.3363601684570313,0.3177555084228516
0.3363601684570313,0.3177555084228516
0.3360586166381836,0.3215120315551758
0.3360586166381836,0.3215120315551758
0.3358337402343750,0.3202892303466797
0.3358337402343750,0.3202892303466797
0.3391553878784180,0.3238294601440430
0.3391553878784180,0.3238294601440430
0.3367240905761719,0.3230712890625000
0.3367240905761719,0.3230712890625000
0.3397298812866211,0.3233694076538086
0.3397298812866211,0.3233694076538086
0.3387886047363281,0.3262052536010742
0.3397327423095703,0.3262052536010742
0.3380458831787109,0.3239587783813476
0.3380458831787109,0.3239587783813476
0.3407821655273438,0.3264942169189453
0.3407821655273438,0.3264942169189453
0.3378519058227539,0.3246809005737304
0.3378519058227539,0.3246809005737304
0.3403839111328125,0.3242918014526367
0.3403839111328125,0.3242918014526367
0.3388721466064453,0.3264822006225586
0.3388721466064453,0.3264822006225586
0.3381334304809570,0.3239444732666015
0.3381334304809570,0.3239444732666015
0.3406808853149414,0.3263328552246094
0.3384881973266601,0.3263328552246094
0.3379074096679687,0.3243982315063477
0.3379074096679687,0.3243982315063477
0.3403673171997070,0.3243066787719727
0.3403673171997070,0.3243066787719727
0.3390827178955078,0.3267059326171875
0.3390827178955078,0.3267059326171875
0.3384819030761719,0.3245309829711914
0.3384819030761719,0.3245309829711914
0.3412387847900391,0.3273571014404297
0.3412387847900391,0.3273571014404297
0.3386718750000000,0.3257989883422852
0.3386718750000000,0.3257989883422852
0.3412988662719726,0.3262264251708984
0.3412988662719726,0.3262264251708984
0.3401544570922851,0.3289941787719726
0.3401544570922851,0.3289941787719726
0.3398946762084961,0.3270269393920898
0.3398946762084961,0.3270269393920898
0.3427820205688477,0.3301883697509765
0.3427820205688477,0.3301883697509765
0.3405303955078125,0.3289661407470703
0.3405303955078125,0.3289661407470703
0.3431184768676758,0.3297277450561523
0.3431184768676758,0.3297277450561523
0.3421045303344726,0.3324806213378906
0.3421045303344726,0.3324806213378906
0.3418859481811523,0.3307136535644531
0.3418859481811523,0.3307136535644531
0.3448385238647461,0.3338762283325195
0.3448385238647461,0.3338762283325195
0.3426200866699219,0.3325893402099609
0.3426200866699219,0.3325893402099609
0.3451515197753906,0.3335002899169922
0.3451515197753906,0.3335002899169922
0.3441118240356445,0.3360036849975586
0.3441118240356445,0.3360036849975586
0.3438045501708984,0.3341222763061523
0.3438045501708984,0.3341222763061523
0.3466478347778320,0.3370794296264648
0.3466478347778320,0.3370794296264648
0.3444099426269531,0.3357358932495117
0.3444099426269531,0.3357358932495117
0.3468915939331055,0.3366376876831055
0.3468915939331055,0.3366376876831055
0.3456470489501953,0.3387685775756836
0.3456470489501953,0.3387685775756836
0.3453655242919922,0.3366731643676757
0.3453655242919922,0.3366731643676757
0.3479518890380859,0.3395530700683594
0.3479518890380859,0.3395530700683594
0.3457002639770508,0.3376379013061523
0.3457002639770508,0.3376379013061523
0.3479278564453125,0.3385219573974609
0.3479278564453125,0.3385219573974609
0.3466232299804687,0.3403964996337890
0.3466232299804687,0.3403964996337890
0.3462221145629883,0.3381191253662109
0.3462221145629883,0.3381191253662109
0.3488056182861328,0.3409263610839844
0.3488056182861328,0.3409263610839844
0.3464916229248047,0.3390008926391602
0.3464916229248047,0.3390008926391602
0.3487947463989258,0.3401996612548828
0.3487947463989258,0.3401996612548828
0.3473636627197266,0.3419620513916016
0.3473636627197266,0.3419620513916016
0.3471084594726562,0.3397733688354492
0.3471084594726562,0.3397733688354492
0.3498086929321289,0.3427614212036132
0.3498086929321289,0.3427614212036132
0.3475284576416016,0.3407478332519531
0.3475284576416016,0.3407478332519531
0.3498905181884766,0.3421783447265625
0.3498905181884766,0.3421783447265625
0.3485755920410156,0.3439670562744140
0.3485755920410156,0.3439670562744140
0.3483072280883789,0.3418453216552734
0.3483072280883789,0.3418453216552734
0.3509576797485351,0.3449260711669922
0.3509576797485351,0.3449260711669922
0.3486139297485352,0.3427883148193359
0.3486139297485352,0.3427883148193359
0.3509988784790039,0.3440986633300781
0.3509988784790039,0.3440986633300781
0.3493417739868164,0.3452190399169922
0.3493417739868164,0.3452190399169922
0.3485921859741211,0.3418973922729492
0.3485921859741211,0.3418973922729492
0.3500616073608399,0.3428117752075195
0.3500616073608399,0.3428117752075195
0.3459434509277344,0.3371006011962890
0.3459434509277344,0.3371006011962890
0.3459686279296875,0.3343219757080078
0.3459686279296875,0.3343219757080078
0.3417554855346679,0.3310546875000000
0.3417554855346679,0.3310546875000000
0.3388263702392578,0.3241487503051758
0.3388263702392578,0.3241487503051758
0.3388835906982422,0.3226793289184570
0.3388835906982422,0.3226793289184570
0.3342378616333008,0.3165658950805664
0.3342378616333008,0.3165658950805664
0.3350440979003906,0.3154140472412109
0.3350440979003906,0.3154140472412109
0.3321865081787109,0.3146615982055664
0.3321865081787109,0.3146615982055664
0.3310838699340820,0.3110069274902343
0.3310838699340820,0.3110069274902343
0.3329784393310547,0.3131389617919922
0.3329784393310547,0.3131389617919922
0.3303680419921875,0.3101451873779297
0.3303680419921875,0.3101451873779297
0.3327564239501953,0.3116415023803711
0.3327564239501953,0.3116415023803711
0.3310495376586914,0.3128711700439453
0.3310495376586914,0.3128711700439453
0.3309236526489258,0.3106475830078125
0.3309236526489258,0.3106475830078125
0.3333864212036133,0.3138147354125976
0.3333864212036133,0.3138147354125976
0.3312149047851562,0.3115047454833984
0.3312149047851562,0.3115047454833984
0.3338687896728516,0.3137271881103516
0.3338687896728516,0.3137271881103516
0.3324033737182617,0.3153442382812500
0.3324033737182617,0.3153442382812500
0.3327592849731445,0.3138244628906250
0.3327592849731445,0.3138244628906250
0.3354452133178711,0.3177148818969727
0.3354452133178711,0.3177148818969727
0.3336673736572265,0.3161178588867187
0.3336673736572265,0.3161178588867187
0.3367263793945313,0.3189388275146484
0.3367263793945313,0.3189388275146484
0.3355550765991211,0.3210634231567382
0.3355550765991211,0.3210634231567382
0.3360883712768555,0.3197399139404297
0.3360883712768555,0.3197399139404297
0.3387165069580078,0.3235353469848632
0.3387165069580078,0.3235353469848632
0.3367670059204101,0.3214056015014649
0.3367670059204101,0.3214056015014649
0.3393728256225586,0.3235502243041992
0.3393728256225586,0.3235502243041992
0.3376344680786132,0.3247484207153320
0.3376344680786132,0.3247484207153320
0.3378181457519531,0.3224756240844727
0.3378181457519531,0.3224756240844727
0.3398374557495117,0.3253463745117187
0.3398374557495117,0.3253463745117187
0.3373580932617187,0.3225271224975586
0.3373580932617187,0.3225271224975586
0.3398300170898437,0.3240995407104492
0.3398300170898437,0.3240995407104492
0.3376384735107422,0.3248062133789062
0.3376384735107422,0.3248062133789062
0.3380401611328125,0.3224321365356445
0.3380401611328125,0.3224321365356445
0.3397836685180664,0.3252771377563476
0.3397836685180664,0.3252771377563476
0.3373626708984375,0.3225328445434570
0.3373626708984375,0.3225328445434570
0.3399284362792969,0.3244731903076172
0.3371841430664063,0.3244731903076172
0.3379091262817382,0.3254825592041016
0.3379091262817382,0.3254825592041016
0.3386730194091797,0.3235427856445313
0.3386730194091797,0.3235427856445313
0.3405057907104492,0.3268009185791015
0.3405057907104492,0.3268009185791015
0.3382593154907226,0.3244045257568359
0.3382593154907226,0.3244045257568359
0.3411569595336914,0.3267282485961914
0.3411569595336914,0.3267282485961914
0.3392326354980469,0.3281450271606445
0.3392326354980469,0.3281450271606445
0.3402952194213867,0.3264009475708008
0.3402952194213867,0.3264009475708008
0.3421766281127930,0.3299360275268555
0.3421766281127930,0.3299360275268555
0.3400646209716797,0.3276409149169922
0.3400646209716797,0.3276409149169922
0.3429948806762695,0.3301517486572266
0.3429948806762695,0.3301517486572266
0.3410333633422851,0.3315124511718750
0.3410333633422851,0.3315124511718750
0.3409635543823242,0.3311954498291015
0.3448986053466797,0.3311954498291015
0.3439189910888672,0.3313756942749023
0.3418481826782226,0.3313756942749023
0.3435052871704101,0.3343345642089844
0.3435052871704101,0.3343345642089844
0.3426733016967773,0.3325201034545898
0.3426733016967773,0.3325201034545898
0.3457054138183593,0.3353330612182617
0.3457054138183593,0.3353330612182617
0.3428260803222656,0.3342390060424805
0.3428260803222656,0.3342390060424805
0.3456636428833008,0.3342687606811524
0.3456636428833008,0.3342687606811524
0.3449844360351562,0.3371166229248047
0.3449844360351562,0.3371166229248047
0.3441083908081055,0.3351242065429688
0.3441083908081055,0.3351242065429688
0.3447750091552734,0.3377477645874024
0.3441295623779297,0.3363933563232422
0.3441295623779297,0.3363933563232422
0.3469293594360351,0.3363430023193359
0.3469293594360351,0.3363430023193359
0.3459554672241211,0.3389797210693359
0.3459554672241211,0.3389797210693359
0.3450805664062500,0.3368837356567383
0.3450805664062500,0.3368837356567383
0.3481018066406250,0.3395256042480468
0.3481018066406250,0.3395256042480468
0.3452224731445312,0.3380676269531250
0.3452224731445312,0.3380676269531250
0.3479616165161133,0.3380945205688476
0.3479616165161133,0.3380945205688476
0.3468852996826172,0.3408473968505859
0.3468852996826172,0.3408473968505859
0.3462713241577148,0.3388830184936523
0.3462713241577148,0.3388830184936523
0.3492553710937500,0.3417675018310547
0.3470632553100586,0.3417675018310547
0.3465208053588867,0.3403581619262695
0.3465208053588867,0.3403581619262695
0.3492954254150391,0.3405893325805664
0.3492954254150391,0.3405893325805664
0.3482969284057617,0.3434263229370117
0.3482969284057617,0.3434263229370117
0.3477298736572266,0.3414230346679688
0.3477298736572266,0.3414230346679688
0.3505823135375977,0.3443601608276367
0.3505823135375977,0.3443601608276367
0.3480382919311523,0.3426818847656250
0.3480382919311523,0.3426818847656250
0.3505548477172851,0.3425554275512695
0.3505548477172851,0.3425554275512695
0.3490482330322265,0.3445873260498047
0.3490482330322265,0.3445873260498047
0.3479982376098633,0.3413497924804688
0.3479982376098633,0.3413497924804688
0.3496158599853516,0.3419139862060547
0.3496158599853516,0.3419139862060547
0.3452270507812500,0.3368265151977539
0.3452270507812500,0.3368265151977539
0.3454347610473633,0.3326889038085937
0.3454347610473633,0.3326889038085937
0.3415328979492188,0.3305717468261719
0.3415328979492188,0.3305717468261719
0.3384613037109375,0.3237991333007812
0.3384613037109375,0.3237991333007812
0.3386941909790039,0.3222118377685547
0.3386941909790039,0.3222118377685547
0.3340501785278320,0.3169132232666015
0.3340501785278320,0.3169132232666015
0.3347431182861328,0.3144515991210937
0.3347431182861328,0.3144515991210937
0.3322923660278320,0.3147485733032226
0.3322923660278320,0.3147485733032226
0.3309923171997070,0.3111923217773437
0.3309923171997070,0.3111923217773437
0.3330774307250977,0.3128631591796875
0.3330774307250977,0.3128631591796875
0.3302890777587891,0.3106235504150390
0.3302890777587891,0.3106235504150390
0.3324428558349609,0.3106710433959961
0.3324428558349609,0.3106710433959961
0.3310266494750976,0.3126205444335937
0.3310266494750976,0.3126205444335937
0.3306032180786133,0.3103237152099609
0.3306032180786133,0.3103237152099609
0.3331655502319336,0.3129753112792968
0.3331655502319336,0.3129753112792968
0.3308950424194336,0.3113462448120117
0.3308950424194336,0.3113462448120117
0.3332410812377929,0.3122400283813476
0.3332410812377929,0.3122400283813476
0.3320686340332031,0.3145082473754883
0.3320686340332031,0.3145082473754883
0.3319135665893554,0.3126972198486328
0.3319135665893554,0.3126972198486328
0.3349308013916015,0.3161739349365234
0.3349308013916015,0.3161739349365234
0.3330265045166015,0.3151565551757812
0.3330265045166015,0.3151565551757812
0.3358554840087891,0.3169927597045898
0.3358554840087891,0.3169927597045898
0.3349960327148437,0.3198411941528320
0.3349960327148437,0.3198411941528320
0.3351997375488281,0.3184358596801758
0.3351997375488281,0.3184358596801758
0.3382129669189453,0.3219509124755859
0.3382129669189453,0.3219509124755859
0.3361387252807617,0.3205329895019531
0.3361387252807617,0.3205329895019531
0.3386764526367188,0.3220121383666992
0.3386764526367188,0.3220121383666992
0.3373620986938476,0.3238700866699218
0.3373620986938476,0.3238700866699218
0.3370370864868164,0.3215921401977539
0.3370370864868164,0.3215921401977539
0.3395605087280273,0.3243307113647461
0.3395605087280273,0.3243307113647461
0.3371383666992188,0.3219709396362305
0.3371383666992188,0.3219709396362305
0.3392692565917969,0.3228984832763672
0.3392692565917969,0.3228984832763672
0.3376979827880859,0.3241556167602539
0.3376979827880859,0.3241556167602539
0.3371904373168945,0.3216081619262695
0.3371904373168945,0.3216081619262695
0.3396612167358398,0.3243661880493164
0.3396612167358398,0.3243661880493164
0.3371315002441406,0.3219268798828125
0.3371315002441406,0.3219268798828125
0.3395067214965820,0.3232658386230469
0.3395067214965820,0.3232658386230469
0.3379171371459961,0.3248027801513672
0.3379171371459961,0.3248027801513672
0.3376916885375976,0.3225431442260742
0.3376916885375976,0.3225431442260742
0.3402969360351563,0.3257263183593750
0.3402969360351563,0.3257263183593750
0.3381179809570312,0.3235513687133789
0.3381179809570312,0.3235513687133789
0.3406883239746094,0.3254734039306640
0.3406883239746094,0.3254734039306640
0.3392349243164062,0.3272426605224609
0.3392349243164062,0.3272426605224609
0.3392189025878906,0.3253566741943359
0.3392189025878906,0.3253566741943359
0.3419334411621094,0.3287778854370117
0.3419334411621094,0.3287778854370117
0.3398546218872070,0.3267923355102539
0.3398546218872070,0.3267923355102539
0.3425708770751953,0.3289484024047851
0.3425708770751953,0.3289484024047851
0.3411729812622070,0.3307348251342773
0.3411729812622070,0.3307348251342773
0.3411844253540039,0.3289478302001953
0.3411844253540039,0.3289478302001953
0.3438571929931640,0.3322969436645508
0.3438571929931640,0.3322969436645508
0.3417108535766601,0.3302318572998047
0.3417108535766601,0.3302318572998047
0.3445140838623047,0.3324365615844727
0.3445140838623047,0.3324365615844727
0.3428907394409180,0.3340198516845703
0.3428907394409180,0.3340198516845703
0.3429943084716797,0.3320949554443359
0.3429943084716797,0.3320949554443359
0.3454885482788086,0.3353725433349609
0.3454885482788086,0.3353725433349609
0.3433891296386719,0.3330608367919922
0.3433891296386719,0.3330608367919922
0.3459960937500000,0.3350400924682617
0.3459960937500000,0.3350400924682617
0.3443069458007812,0.3364803314208984
0.3443069458007812,0.3364803314208984
0.3441953659057617,0.3343053817749023
0.3441953659057617,0.3343053817749023
0.3465837478637695,0.3374267578125000
0.3465837478637695,0.3374267578125000
0.3443544387817383,0.3348838806152344
0.3443544387817383,0.3348838806152344
0.3469459533691406,0.3368104934692382
0.3469459533691406,0.3368104934692382
0.3451812744140625,0.3380990982055664
0.3451812744140625,0.3380990982055664
0.3453449249267578,0.3359739303588867
0.3453449249267578,0.3359739303588867
0.3476274490356445,0.3392555236816406
0.3476274490356445,0.3392555236816406
0.3454198837280273,0.3368213653564453
0.3454198837280273,0.3368213653564453
0.3480394363403320,0.3389259338378906
0.3480394363403320,0.3389259338378906
0.3463102340698242,0.3403015136718750
0.3463102340698242,0.3403015136718750
0.3467628479003906,0.3384212493896484
0.3467628479003906,0.3384212493896484
0.3489875793457031,0.3417434692382812
0.3489875793457031,0.3417434692382812
0.3467748641967773,0.3394369125366211
0.3467748641967773,0.3394369125366211
0.3494441986083984,0.3416542053222656
0.3494441986083984,0.3416542053222656
0.3476709365844726,0.3429433822631836
0.3476709365844726,0.3429433822631836
0.3483066558837891,0.3409606933593750
0.3483066558837891,0.3409606933593750
0.3502058029174804,0.3439601898193359
0.3502058029174804,0.3439601898193359
0.3478374481201172,0.3411209106445313
0.3478374481201172,0.3411209106445313
0.3499814987182617,0.3423316955566406
0.3499814987182617,0.3423316955566406
0.3472475051879882,0.3415706634521484
0.3472475051879882,0.3415706634521484
0.3463771820068359,0.3365512847900390
0.3463771820068359,0.3365512847900390
0.3459365844726562,0.3356666564941406
0.3459365844726562,0.3356666564941406
0.3411260604858398,0.3285575866699219
0.3411260604858398,0.3285575866699219
0.3411403656005859,0.3260793685913086
0.3411403656005859,0.3260793685913086
0.3366256713867187,0.3226799011230468
0.3378925323486328,0.3226799011230468
0.3352695465087890,0.3167718887329101
0.3352695465087890,0.3167718887329101
0.3350664138793945,0.3167942047119141
0.3350664138793945,0.3167942047119141
0.3313888549804687,0.3119544982910156
0.3313888549804687,0.3119544982910156
0.3330436706542969,0.3124757766723633
0.3330436706542969,0.3124757766723633
0.3302799224853515,0.3123046875000000
0.3302799224853515,0.3123046875000000
0.3309757232666016,0.3095151901245117
0.3309757232666016,0.3095151901245117
0.3322546005249024,0.3121765136718750
0.3322546005249024,0.3121765136718750
0.3297054290771484,0.3092834472656250
0.3297054290771484,0.3092834472656250
0.3323530197143554,0.3112501144409179
0.3323530197143554,0.3112501144409179
0.3301208496093750,0.3121295928955078
0.3301208496093750,0.3121295928955078
0.3314643859863281,0.3101474761962891
0.3314643859863281,0.3101474761962891
0.3329063415527344,0.3133781433105469
0.3329063415527344,0.3133781433105469
0.3306118011474609,0.3109519958496094
0.3306118011474609,0.3109519958496094
0.3336885452270508,0.3135189056396484
0.3336885452270508,0.3135189056396484
0.3315788269042969,0.3149328231811523
0.3315788269042969,0.3149328231811523
0.3334236145019531,0.3136997222900391
0.3334236145019531,0.3136997222900391
0.3353399276733398,0.3177377700805664
0.3353399276733398,0.3177377700805664
0.3334213256835937,0.3158924102783203
0.3334213256835937,0.3158924102783203
0.3368110656738281,0.3191019058227539
0.3368110656738281,0.3191019058227539
0.3347717285156250,0.3206863403320312
0.3347717285156250,0.3206863403320312
0.3367355346679687,0.3192970275878906
0.3367355346679687,0.3192970275878906
0.3381591796875000,0.3227994918823242
0.3381591796875000,0.3227994918823242
0.3360111236572266,0.3200838088989258
0.3360111236572266,0.3200838088989258
0.3388452529907227,0.3224212646484375
0.3388452529907227,0.3224212646484375
0.3361999511718750,0.3232109069824219
0.3361999511718750,0.3232109069824219
0.3378112792968750,0.3210039138793945
0.3378112792968750,0.3210039138793945
0.3387937545776367,0.3237636566162109
0.3387937545776367,0.3237636566162109
0.3363252639770508,0.3204992294311523
0.3363252639770508,0.3204992294311523
0.3389928817749023,0.3225557327270508
0.3389928817749023,0.3225557327270508
0.3362382888793945,0.3231164932250977
0.3362382888793945,0.3231164932250977
0.3378330230712890,0.3210102081298828
0.3378330230712890,0.3210102081298828
0.3388727188110351,0.3239845275878906
0.3388727188110351,0.3239845275878906
0.3364877700805664,0.3209392547607422
0.3364877700805664,0.3209392547607422
0.3395244598388672,0.3234998703002930
0.3395244598388672,0.3234998703002930
0.3368574142456054,0.3242889404296875
0.3368574142456054,0.3242889404296875
0.3387062072753906,0.3226839065551758
0.3387062072753906,0.3226839065551758
0.3399530410766601,0.3260393142700195
0.3399530410766601,0.3260393142700195
0.3404365539550781,0.3268644332885742
0.3409864425659180,0.3268644332885742
0.3388978958129883,0.3251260757446289
0.3388978958129883,0.3251260757446289
0.3417692184448242,0.3283184051513672
0.3417692184448242,0.3283184051513672
0.3395164489746094,0.3270389556884766
0.3395164489746094,0.3270389556884766
0.3422452926635742,0.3277679443359375
0.3422452926635742,0.3277679443359375
0.3411832809448242,0.3305448532104492
0.3411832809448242,0.3305448532104492
0.3409543991088867,0.3287996292114257
0.3409543991088867,0.3287996292114257
0.3437753677368164,0.3319770812988281
0.3437753677368164,0.3319770812988281
0.3416278839111328,0.3305133819580078
0.3416278839111328,0.3305133819580078
0.3442045211791992,0.3314134597778320
0.3442045211791992,0.3314134597778320
0.3430412292480469,0.3337852478027344
0.3430412292480469,0.3337852478027344
0.3427820205688477,0.3320056915283203
0.3427820205688477,0.3320056915283203
0.3454919815063476,0.3349588394165039
0.3435619354248047,0.3349588394165039
0.3433021545410156,0.3332799911499023
0.3433021545410156,0.3332799911499023
0.3457077026367187,0.3341760635375977
0.3457077026367187,0.3341760635375977
0.3443733215332031,0.3362297058105468
0.3443733215332031,0.3362297058105468
0.3440162658691406,0.3341159820556641
0.3440162658691406,0.3341159820556641
0.3466306686401367,0.3368173599243164
0.3466306686401367,0.3368173599243164
0.3443269729614258,0.3349576950073242
0.3443269729614258,0.3349576950073242
0.3466363906860351,0.3359052658081055
0.3466363906860351,0.3359052658081055
0.3452470779418945,0.3378198623657226
0.3452470779418945,0.3378198623657226
0.3449913024902344,0.3356506347656250
0.3449913024902344,0.3356506347656250
0.3475954055786133,0.3385746002197266
0.3475954055786133,0.3385746002197266
0.3453580856323242,0.3367383956909180
0.3453580856323242,0.3367383956909180
0.3478391647338867,0.3380493164062500
0.3478391647338867,0.3380493164062500
0.3464813232421875,0.3399501800537109
0.3464813232421875,0.3399501800537109
0.3463022232055664,0.3380247116088867
0.3463022232055664,0.3380247116088867
0.3489646911621094,0.3410882949829102
0.3489646911621094,0.3410882949829102
0.3468429565429688,0.3392578125000000
0.3468429565429688,0.3392578125000000
0.3493537902832031,0.3408107757568359
0.3493537902832031,0.3408107757568359
0.3479187011718750,0.3425388336181641
0.3479187011718750,0.3425388336181641
0.3477859497070312,0.3405075073242188
0.3477859497070312,0.3405075073242188
0.3503488540649414,0.3434486389160156
0.3503488540649414,0.3434486389160156
0.3479627609252929,0.3410602569580078
0.3479627609252929,0.3410602569580078
0.3501554489135742,0.3419563293457031
0.3501554489135742,0.3419563293457031
0.3478780746459961,0.3421817779541015
0.3478780746459961,0.3421817779541015
0.3464767456054688,0.3375663757324219
0.3464767456054688,0.3375663757324219
0.3470151901245117,0.3368453979492188
0.3470151901245117,0.3368453979492188
0.3423625946044922,0.3302301406860351
0.3423625946044922,0.3302301406860351
0.3423282623291016,0.3273937225341797
0.3423282623291016,0.3273937225341797
0.3382003784179687,0.3244131088256836
0.3382003784179687,0.3244131088256836
0.3355962753295899,0.3180570602416992
0.3355962753295899,0.3180570602416992
0.3360414505004883,0.3176811218261719
0.3360414505004883,0.3176811218261719
0.3321847915649414,0.3127235412597656
0.3321847915649414,0.3127235412597656
0.3336645126342773,0.3125999450683594
0.3336645126342773,0.3125999450683594
0.3311262130737305,0.3126045227050781
0.3311262130737305,0.3126045227050781
0.3303571701049804,0.3095014572143555
0.3303571701049804,0.3095014572143555
0.3324892044067383,0.3120431900024414
0.3324892044067383,0.3120431900024414
0.3300579071044922,0.3092966079711914
0.3300579071044922,0.3092966079711914
0.3326402664184570,0.3109125137329101
0.3326402664184570,0.3109125137329101
0.3308080673217773,0.3121187210083008
0.3308080673217773,0.3121187210083008
0.3307222366333007,0.3099643707275391
0.3307222366333007,0.3099643707275391
0.3331518173217773,0.3132007598876953
0.3331518173217773,0.3132007598876953
0.3310083389282226,0.3107946395874023
0.3310083389282226,0.3107946395874023
0.3338922500610351,0.3131298065185547
0.3338922500610351,0.3131298065185547
0.3323324203491211,0.3149877548217773
0.3323324203491211,0.3149877548217773
0.3327901840209961,0.3136156082153320
0.3327901840209961,0.3136156082153320
0.3355264663696289,0.3175277709960938
0.3355264663696289,0.3175277709960938
0.3337572097778320,0.3159914016723633
0.3337572097778320,0.3159914016723633
0.3369970321655273,0.3188009262084961
0.3369970321655273,0.3188009262084961
0.3355579376220703,0.3207555770874023
0.3355579376220703,0.3207555770874023
0.3361043930053711,0.3192306518554687
0.3361043930053711,0.3192306518554687
0.3384950637817383,0.3227622985839844
0.3384950637817383,0.3227622985839844
0.3364437103271484,0.3204545974731445
0.3364437103271484,0.3204545974731445
0.3390930175781250,0.3223611831665039
0.3361982345581054,0.3223611831665039
0.3371200561523438,0.3233762741088867
0.3371200561523438,0.3233762741088867
0.3373214721679688,0.3210697174072266
0.3373214721679688,0.3210697174072266
0.3392423629760742,0.3238048553466797
0.3392423629760742,0.3238048553466797
0.3367589950561523,0.3209518432617187
0.3367589950561523,0.3209518432617187
0.3391937255859375,0.3225362777709961
0.3391937255859375,0.3225362777709961
0.3369976043701172,0.3233608245849609
0.3369976043701172,0.3233608245849609
0.3374782562255859,0.3209724426269531
0.3374782562255859,0.3209724426269531
0.3392721176147461,0.3239450454711914
0.3392721176147461,0.3239450454711914
0.3369094848632813,0.3212511062622070
0.3369094848632813,0.3212511062622070
0.3394563674926758,0.3233671188354492
0.3394563674926758,0.3233671188354492
0.3374565124511719,0.3244554519653320
0.3374565124511719,0.3244554519653320
0.3383909225463867,0.3225671768188477
0.3383909225463867,0.3225671768188477
0.3402231216430664,0.3258659362792969
0.3402231216430664,0.3258659362792969
0.3380504608154297,0.3236457824707031
0.3380504608154297,0.3236457824707031
0.3408845901489257,0.3260272979736328
0.3408845901489257,0.3260272979736328
0.3390844345092773,0.3273983001708984
0.3390844345092773,0.3273983001708984
0.3401699066162109,0.3257406234741211
0.3401699066162109,0.3257406234741211
0.3420639038085938,0.3292797088623047
0.3420639038085938,0.3292797088623047
0.3400016784667969,0.3271390914916992
0.3400016784667969,0.3271390914916992
0.3428953170776367,0.3297426223754883
0.3428953170776367,0.3297426223754883
0.3409378051757813,0.3310146331787109
0.3409378051757813,0.3310146331787109
0.3422704696655273,0.3294101715087890
0.3422704696655273,0.3294101715087890
0.3440328598022461,0.3328823089599609
0.3440328598022461,0.3328823089599609
0.3418996810913086,0.3305253982543945
0.3418996810913086,0.3305253982543945
0.3447841644287109,0.3329835891723633
0.3447841644287109,0.3329835891723633
0.3426893234252930,0.3341978073120117
0.3426893234252930,0.3341978073120117
0.3440402984619140,0.3323146820068359
0.3440402984619140,0.3323146820068359
0.3455760955810547,0.3356866836547852
0.3455760955810547,0.3356866836547852
0.3433490753173828,0.3330797195434570
0.3433490753173828,0.3330797195434570
0.3462066650390625,0.3353771209716797
0.3462066650390625,0.3353771209716797
0.3438234329223633,0.3364231109619141
0.3438234329223633,0.3364231109619141
0.3453323364257813,0.3343671798706054
0.3453323364257813,0.3343671798706054
0.3465951919555664,0.3374650955200195
0.3465951919555664,0.3374650955200195
0.3443120956420898,0.3346475601196289
0.3443120956420898,0.3346475601196289
0.3470684051513672,0.3368991851806640
0.3470684051513672,0.3368991851806640
0.3445569992065430,0.3377614974975586
0.3445569992065430,0.3377614974975586
0.3461677551269531,0.3359201431274414
0.3461677551269531,0.3359201431274414
0.3474088668823242,0.3390403747558594
0.3474088668823242,0.3390403747558594
0.3452138900756836,0.3362995147705078
0.3452138900756836,0.3362995147705078
0.3482093811035156,0.3388504028320312
0.3482093811035156,0.3388504028320312
0.3457048416137695,0.3398591995239258
0.3457048416137695,0.3398591995239258
0.3475318908691406,0.3382186889648438
0.3475318908691406,0.3382186889648438
0.3486757278442383,0.3415340423583984
0.3486757278442383,0.3415340423583984
0.3465785980224609,0.3386901855468750
0.3465785980224609,0.3386901855468750
0.3495477676391601,0.3413291931152344
0.3495477676391601,0.3413291931152344
0.3470209121704101,0.3423213958740234
0.3470209121704101,0.3423213958740234
0.3488496780395507,0.3405538558959961
0.3488496780395507,0.3405538558959961
0.3499208450317383,0.3436935424804687
0.3499208450317383,0.3436935424804687
0.3476955413818359,0.3405040740966797
0.3476955413818359,0.3405040740966797
0.3503396987915039,0.3424604415893555
0.3503396987915039,0.3424604415893555
0.3471221923828125,0.3420209884643555
0.3471221923828125,0.3420209884643555
0.3478185653686524,0.3380802154541016
0.3478185653686524,0.3380802154541016
0.3470609664916992,0.3377340316772461
0.3470609664916992,0.3377340316772461
0.3424627304077149,0.3305356979370117
0.3424627304077149,0.3305356979370117
0.3428684234619140,0.3285552978515625
0.3428684234619140,0.3285552978515625
0.3377346038818359,0.3247718811035156
0.3377346038818359,0.3247718811035156
0.3372047424316406,0.3190629959106445
0.3372047424316406,0.3190629959106445
0.3360363006591797,0.3186647415161133
0.3360363006591797,0.3186647415161133
0.3322168350219726,0.3128808975219726
0.3322168350219726,0.3128808975219726
0.3339906692504883,0.3136230468750000
0.3339906692504883,0.3136230468750000
0.3304870605468750,0.3126411437988281
0.3304870605468750,0.3126411437988281
0.3317790985107422,0.3102092742919922
0.3317790985107422,0.3102092742919922
0.3324102401733398,0.3126943588256836
0.3324102401733398,0.3126943588256836
0.3301294326782226,0.3094053268432617
0.3301294326782226,0.3094053268432617
0.3329257965087891,0.3119819641113281
0.3329257965087891,0.3119819641113281
0.3303537368774414,0.3121564865112305
0.3303537368774414,0.3121564865112305
0.3322792053222656,0.3110309600830078
0.3322792053222656,0.3110309600830078
0.3333372116088867,0.3141706466674805
0.3333372116088867,0.3141706466674805
0.3313356399536133,0.3115533828735351
0.3313356399536133,0.3115533828735351
0.3345949172973633,0.3147056579589844
0.3345949172973633,0.3147056579589844
0.3322460174560547,0.3153757095336914
0.3322460174560547,0.3153757095336914
0.3346498489379883,0.3150964736938476
0.3346498489379883,0.3150964736938476
0.3359676361083984,0.3191339492797852
0.3359676361083984,0.3191339492797852
0.3343769073486328,0.3170024871826172
0.3343769073486328,0.3170024871826172
0.3378284454345703,0.3206680297851562
0.3378284454345703,0.3206680297851562
0.3355087280273437,0.3212385177612305
0.3355087280273437,0.3212385177612305
0.3378347396850586,0.3205919265747070
0.3378347396850586,0.3205919265747070
0.3388778686523438,0.3239759445190429
0.3388778686523438,0.3239759445190429
0.3367486953735351,0.3210353851318359
0.3367486953735351,0.3210353851318359
0.3397876739501953,0.3238323211669922
0.3397876739501953,0.3238323211669922
0.3368665695190430,0.3231216430664062
0.3368665695190430,0.3231216430664062
0.3386993408203125,0.3219211578369141
0.3386993408203125,0.3219211578369141
0.3392972946166992,0.3245321273803711
0.3392972946166992,0.3245321273803711
0.3368511199951172,0.3212402343750000
0.3368511199951172,0.3212402343750000
0.3397161483764649,0.3212900161743164
0.3373477935791016,0.3212900161743164
0.3377586364746094,0.3240222930908203
0.3385894775390625,0.3240222930908203
0.3372848510742187,0.3215646743774414
0.3372848510742187,0.3215646743774414
0.3396354675292969,0.3229825973510742
0.3396354675292969,0.3229825973510742
0.3380865097045898,0.3244909286499023
0.3380865097045898,0.3244909286499023
0.3379537582397461,0.3222965240478515
0.3379537582397461,0.3222965240478515
0.3404811859130859,0.3254665374755859
0.3404811859130859,0.3254665374755859
0.3382518768310547,0.3232864379882812
0.3382518768310547,0.3232864379882812
0.3409137725830078,0.3252719879150390
0.3409137725830078,0.3252719879150390
0.3394432067871094,0.3270217895507813
0.3394432067871094,0.3270217895507813
0.3394094467163086,0.3251615524291992
0.3394094467163086,0.3251615524291992
0.3421875000000000,0.3285558700561523
0.3421875000000000,0.3285558700561523
0.3400920867919922,0.3264867782592774
0.3400920867919922,0.3264867782592774
0.3428472518920898,0.3287870407104492
0.3428472518920898,0.3287870407104492
0.3414167404174804,0.3305013656616211
0.3414167404174804,0.3305013656616211
0.3413795471191406,0.3287075042724609
0.3413795471191406,0.3287075042724609
0.3440814971923828,0.3321533203125000
0.3440814971923828,0.3321533203125000
0.3419963836669922,0.3299663543701172
0.3419963836669922,0.3299663543701172
0.3447784423828125,0.3322271347045898
0.3419408798217773,0.3322271347045898
0.3431934356689453,0.3336971282958984
0.3431934356689453,0.3336971282958984
0.3433324813842774,0.3319049835205078
0.3433324813842774,0.3319049835205078
0.3457958221435547,0.3351768493652343
0.3457958221435547,0.3351768493652343
0.3436151504516601,0.3328033447265625
0.3436151504516601,0.3328033447265625
0.3462965011596680,0.3349285125732422
0.3462965011596680,0.3349285125732422
0.3445747375488281,0.3362525939941406
0.3445747375488281,0.3362525939941406
0.3447154998779297,0.3341703414916992
0.3447154998779297,0.3341703414916992
0.3470060348510742,0.3373294830322265
0.3470060348510742,0.3373294830322265
0.3447750091552734,0.3348266601562500
0.3447750091552734,0.3348266601562500
0.3472761154174804,0.3367738723754883
0.3472761154174804,0.3367738723754883
0.3455137252807617,0.3378976821899414
0.3455137252807617,0.3378976821899414
0.3456459045410156,0.3357547760009765
0.3456459045410156,0.3357547760009765
0.3477390289306641,0.3388732910156250
0.3477390289306641,0.3388732910156250
0.3455657958984375,0.3362771987915039
0.3455657958984375,0.3362771987915039
0.3481607437133789,0.3383102416992188
0.3481607437133789,0.3383102416992188
0.3463668823242188,0.3396051406860351
0.3463668823242188,0.3396051406860351
0.3467988967895508,0.3375778198242188
0.3467988967895508,0.3375778198242188
0.3489269256591797,0.3409132003784179
0.3489269256591797,0.3409132003784179
0.3468143463134766,0.3385076522827148
0.3468143463134766,0.3385076522827148
0.3494705200195312,0.3407392501831055
0.3494705200195312,0.3407392501831055
0.3476497650146484,0.3420009613037109
0.3476497650146484,0.3420009613037109
0.3482797622680664,0.3400657653808594
0.3482797622680664,0.3400657653808594
0.3503311157226562,0.3434022903442382
0.3503311157226562,0.3434022903442382
0.3480915069580078,0.3409463882446289
0.3480915069580078,0.3409463882446289
0.3507946014404297,0.3431110382080078
0.3507946014404297,0.3431110382080078
0.3488227844238281,0.3439636230468750
0.3488227844238281,0.3439636230468750
0.3493801116943359,0.3414196014404297
0.3493801116943359,0.3414196014404297
0.3505022048950195,0.3434246063232422
0.3505022048950195,0.3434246063232422
0.3471015930175781,0.3386638641357422
0.3471015930175781,0.3386638641357422
0.3479764938354492,0.3373495101928711
0.3479764938354492,0.3373495101928711
0.3435087203979492,0.3339666366577148
0.3435087203979492,0.3339666366577148
0.3418024063110351,0.3273754119873047
0.3418024063110351,0.3273754119873047
0.3408428192138672,0.3259037017822266
0.3408428192138672,0.3259037017822266
0.3359619140625000,0.3191196441650391
0.3359619140625000,0.3191196441650391
0.3365776062011719,0.3175174713134766
0.3365776062011719,0.3175174713134766
0.3327787399291992,0.3157081604003906
0.3327787399291992,0.3157081604003906
0.3325704574584961,0.3115276336669922
0.3325704574584961,0.3115276336669922
0.3332090377807617,0.3132190704345703
0.3332090377807617,0.3132190704345703
0.3301946640014649,0.3095689773559570
0.3301946640014649,0.3095689773559570
0.3325939178466797,0.3110458374023438
0.3325939178466797,0.3110458374023438
0.3301094055175781,0.3116020202636718
0.3301094055175781,0.3116020202636718
0.3312343597412109,0.3093343734741211
0.3312343597412109,0.3093343734741211
0.3326660156250000,0.3124254226684570
0.3326660156250000,0.3124254226684570
0.3303073883056640,0.3095981597900391
0.3303073883056640,0.3095981597900391
0.3331335067749023,0.3119533538818359
0.3331335067749023,0.3119533538818359
0.3309391021728516,0.3130971908569336
0.3309391021728516,0.3130971908569336
0.3325475692749023,0.3113267898559570
0.3325475692749023,0.3113267898559570
0.3342075347900391,0.3150684356689453
0.3342075347900391,0.3150684356689453
0.3321647644042969,0.3129112243652344
0.3321647644042969,0.3129112243652344
0.3354869842529297,0.3160526275634766
0.3330362319946289,0.3160526275634766
0.3335569381713867,0.3179168701171875
0.3335569381713867,0.3179168701171875
0.3356712341308594,0.3168067932128906
0.3356712341308594,0.3168067932128906
0.3373603820800781,0.3207675933837891
0.3373603820800781,0.3207675933837891
0.3354303359985352,0.3184656143188476
0.3354303359985352,0.3184656143188476
0.3386020660400391,0.3212877273559570
0.3386020660400391,0.3212877273559570
0.3361438751220703,0.3223829269409180
0.3361438751220703,0.3223829269409180
0.3379623413085938,0.3204231262207031
0.3379623413085938,0.3204231262207031
0.3390232086181640,0.3234998703002930
0.3390232086181640,0.3234998703002930
0.3365404129028320,0.3202978134155273
0.3365404129028320,0.3202978134155273
0.3394174575805664,0.3223440170288086
0.3394174575805664,0.3223440170288086
0.3365215301513672,0.3228750228881836
0.3365215301513672,0.3228750228881836
0.3381299972534180,0.3205747604370117
0.3381299972534180,0.3205747604370117
0.3390134811401367,0.3234432220458984
0.3390134811401367,0.3234432220458984
0.3365678787231445,0.3201765060424804
0.3365678787231445,0.3201765060424804
0.3393699645996094,0.3225133895874023
0.3393699645996094,0.3225133895874023
0.3366783142089844,0.3231084823608398
0.3366783142089844,0.3231084823608398
0.3384481430053711,0.3212997436523438
0.3384481430053711,0.3212997436523438
0.3395822525024414,0.3245258331298828
0.3395822525024414,0.3245258331298828
0.3373352050781250,0.3216236114501953
0.3373352050781250,0.3216236114501953
0.3404033660888672,0.3244085311889648
0.3404033660888672,0.3244085311889648
0.3379291534423828,0.3252857208251953
0.3379291534423828,0.3252857208251953
0.3399570465087891,0.3239273071289062
0.3399570465087891,0.3239273071289062
0.3411420822143554,0.3274051666259766
0.3411420822143554,0.3274051666259766
0.3391462326049804,0.3247850418090820
0.3391462326049804,0.3247850418090820
0.3423345565795898,0.3278045654296875
0.3423345565795898,0.3278045654296875
0.3398586273193359,0.3286371231079102
0.3398586273193359,0.3286371231079102
0.3419792175292969,0.3275653839111328
0.3419792175292969,0.3275653839111328
0.3430830001831054,0.3310466766357422
0.3430830001831054,0.3310466766357422
0.3411180496215820,0.3282691955566406
0.3411180496215820,0.3282691955566406
0.3442789077758789,0.3313304901123047
0.3442789077758789,0.3313304901123047
0.3417566299438476,0.3319822311401367
0.3417566299438476,0.3319822311401367
0.3438394546508789,0.3308263778686523
0.3438394546508789,0.3308263778686523
0.3448516845703125,0.3341960906982422
0.3448516845703125,0.3341960906982422
0.3428707122802734,0.3313219070434570
0.3428707122802734,0.3313219070434570
0.3459314346313476,0.3342178344726562
0.3459314346313476,0.3342178344726562
0.3433158874511719,0.3344638824462891
0.3433158874511719,0.3344638824462891
0.3453008651733399,0.3333526611328125
0.3453008651733399,0.3333526611328125
0.3462324142456055,0.3365518569946289
0.3457317352294922,0.3365518569946289
0.3440614700317383,0.3335752487182617
0.3440614700317383,0.3335752487182617
0.3470775604248047,0.3363229751586914
0.3470775604248047,0.3363229751586914
0.3443859100341797,0.3361930847167969
0.3443859100341797,0.3361930847167969
0.3462610244750977,0.3349920272827148
0.3450799942016601,0.3349920272827148
0.3474248886108398,0.3380784988403320
0.3474248886108398,0.3356952667236328
0.3449483871459961,0.3351224899291992
0.3449483871459961,0.3351224899291992
0.3480354309082031,0.3379520416259765
0.3480354309082031,0.3379520416259765
0.3452825546264648,0.3377489089965820
0.3452825546264648,0.3377489089965820
0.3472887039184570,0.3368762969970703
0.3472887039184570,0.3368762969970703
0.3482597351074219,0.3401573181152344
0.3482597351074219,0.3401573181152344
0.3461769104003906,0.3374307632446289
0.3461769104003906,0.3374307632446289
0.3493309020996094,0.3403753280639648
0.3493309020996094,0.3403753280639648
0.3466403961181641,0.3400857925415039
0.3466403961181641,0.3400857925415039
0.3487461090087891,0.3394168853759765
0.3475502014160156,0.3394168853759765
0.3496541976928711,0.3426481246948242
0.3496541976928711,0.3426481246948242
0.3476074218750000,0.3400039672851562
0.3476074218750000,0.3400039672851562
0.3507614135742188,0.3429702758789062
0.3507614135742188,0.3429702758789062
0.3479032516479492,0.3422206878662109
0.3479032516479492,0.3422206878662109
0.3498653411865234,0.3412227630615234
0.3498653411865234,0.3412227630615234
0.3502744674682617,0.3433496475219727
0.3502744674682617,0.3433496475219727
0.3472709655761719,0.3389230728149414
0.3484228134155273,0.3389230728149414
0.3487953186035156,0.3389299392700195
0.3487953186035156,0.3389299392700195
0.3436758041381836,0.3339557647705078
0.3436758041381836,0.3339557647705078
0.3432723999023438,0.3287504196166992
0.3432723999023438,0.3287504196166992
0.3414241790771484,0.3272060394287109
0.3414241790771484,0.3272060394287109
0.3367212295532226,0.3201101303100586
0.3367212295532226,0.3201101303100586
0.3374708175659180,0.3190366744995117
0.3374708175659180,0.3190366744995117
0.3324777603149414,0.3148744583129883
0.3324777603149414,0.3148744583129883
0.3332330703735352,0.3119539260864257
0.3332330703735352,0.3119539260864257
0.3330190658569336,0.3132471084594726
0.3330190658569336,0.3132471084594726
0.3301643371582031,0.3093555450439453
0.3301643371582031,0.3093555450439453
0.3327438354492188,0.3113393783569336
0.3327438354492188,0.3113393783569336
0.3293895721435547,0.3097703933715820
0.3293895721435547,0.3097703933715820
0.3315101623535156,0.3090339660644531
0.3315101623535156,0.3090339660644531
0.3320446014404297,0.3117473602294922
0.3320446014404297,0.3117473602294922
0.3300727844238281,0.3091100692749023
0.3300727844238281,0.3091100692749023
0.3330476760864258,0.3118646621704101
0.3330476760864258,0.3118646621704101
0.3299800872802734,0.3108770370483399
0.3299800872802734,0.3108770370483399
0.3324846267700195,0.3106630325317383
0.3324846267700195,0.3106630325317383
0.3332015991210938,0.3139926910400391
0.3332015991210938,0.3139926910400391
0.3317253112792969,0.3121255874633789
0.3317253112792969,0.3121255874633789
0.3350378036499023,0.3155233383178711
0.3350378036499023,0.3155233383178711
0.3323604583740234,0.3152549743652344
0.3323604583740234,0.3152549743652344
0.3353679656982422,0.3157785415649414
0.3341411590576172,0.3165258407592773
0.3341411590576172,0.3158609390258789
0.3373065948486328,0.3186361312866211
0.3373065948486328,0.3186361312866211
0.3357868194580078,0.3203819274902344
0.3357868194580078,0.3203819274902344
0.3363824844360351,0.3187425613403320
0.3363824844360351,0.3187425613403320
0.3386260986328125,0.3221426010131836
0.3386260986328125,0.3221426010131836
0.3364076614379883,0.3196134567260742
0.3364076614379883,0.3196134567260742
0.3389064788818359,0.3214582443237304
0.3389064788818359,0.3214582443237304
0.3369707107543945,0.3223571777343750
0.3369707107543945,0.3223571777343750
0.3372493743896484,0.3199756622314453
0.3372493743896484,0.3199756622314453
0.3390907287597656,0.3227680206298828
0.3390907287597656,0.3227680206298828
0.3365060806274414,0.3197490692138672
0.3365060806274414,0.3197490692138672
0.3389402389526367,0.3215240478515625
0.3389402389526367,0.3215240478515625
0.3368471145629883,0.3223371505737305
0.3368471145629883,0.3223371505737305
0.3374387741088867,0.3200323104858399
0.3374387741088867,0.3200323104858399
0.3391399383544922,0.3230564117431641
0.3391399383544922,0.3230564117431641
0.3368167877197266,0.3204666137695312
0.3368167877197266,0.3204666137695312
0.3394701004028320,0.3226009368896484
0.3394701004028320,0.3226009368896484
0.3376058578491211,0.3237052917480469
0.3376058578491211,0.3237052917480469
0.3385356903076172,0.3219148635864258
0.3385356903076172,0.3219148635864258
0.3403833389282226,0.3253641128540039
0.3403833389282226,0.3253641128540039
0.3382198333740234,0.3230432510375976
0.3408542633056640,0.3230432510375976
0.3411180496215820,0.3255180358886718
0.3411180496215820,0.3255180358886718
0.3391948699951172,0.3268552780151367
0.3391948699951172,0.3268552780151367
0.3404611587524414,0.3252119064331054
0.3404611587524414,0.3252119064331054
0.3422882080078125,0.3289524078369140
0.3422882080078125,0.3289524078369140
0.3401544570922851,0.3266424179077148
0.3401544570922851,0.3266424179077148
0.3431888580322265,0.3291372299194336
0.3431888580322265,0.3291372299194336
0.3410762786865234,0.3304750442504883
0.3410762786865234,0.3304750442504883
0.3425611495971679,0.3287555694580078
0.3425611495971679,0.3287555694580078
0.3442022323608399,0.3322523117065430
0.3442022323608399,0.3322523117065430
0.3419466018676758,0.3298856735229492
0.3419466018676758,0.3298856735229492
0.3449861526489258,0.3322826385498047
0.3449861526489258,0.3322826385498047
0.3427831649780274,0.3334339141845703
0.3427831649780274,0.3334339141845703
0.3442296981811523,0.3315982818603516
0.3442296981811523,0.3315982818603516
0.3456882476806640,0.3349462509155273
0.3456882476806640,0.3349462509155273
0.3433794021606445,0.3321865081787109
0.3433794021606445,0.3321865081787109
0.3463027954101562,0.3344999313354492
0.3463027954101562,0.3344999313354492
0.3438377380371094,0.3353313446044922
0.3438377380371094,0.3353313446044922
0.3453729629516601,0.3333492279052734
0.3453729629516601,0.3333492279052734
0.3466175079345703,0.3365026473999023
0.3466175079345703,0.3365026473999023
0.3442073822021484,0.3335535049438477
0.3442073822021484,0.3335535049438477
0.3470626831054687,0.3359064102172851
0.3470626831054687,0.3359064102172851
0.3445323944091797,0.3367681503295898
0.3445323944091797,0.3367681503295898
0.3462163925170899,0.3348638534545899
0.3462163925170899,0.3348638534545899
0.3474414825439453,0.3381420135498047
0.3474414825439453,0.3381420135498047
0.3451818466186523,0.3352540969848632
0.3451818466186523,0.3352540969848632
0.3482700347900390,0.3378152847290039
0.3482700347900390,0.3378152847290039
0.3456092834472656,0.3387680053710938
0.3456092834472656,0.3387680053710938
0.3473762512207031,0.3370342254638672
0.3463296890258789,0.3370342254638672
0.3485967636108399,0.3403209686279297
0.3485967636108399,0.3403209686279297
0.3463520050048828,0.3374547958374023
0.3463520050048828,0.3374547958374023
0.3494035720825195,0.3399066925048828
0.3494035720825195,0.3399066925048828
0.3467931747436523,0.3407375335693359
0.3467931747436523,0.3407375335693359
0.3485727310180664,0.3388366699218750
0.3485727310180664,0.3388366699218750
0.3495100021362305,0.3416851043701172
0.3495100021362305,0.3416851043701172
0.3469213485717773,0.3380224227905274
0.3469213485717773,0.3380224227905274
0.3492370605468750,0.3391262054443359
0.3492370605468750,0.3391262054443359
0.3452596664428711,0.3373683929443359
0.3452596664428711,0.3373683929443359
0.3451509475708008,0.3320949554443359
0.3451509475708008,0.3320949554443359
0.3438199996948242,0.3310684204101562
0.3438199996948242,0.3310684204101562
0.3390512466430664,0.3236675262451172
0.3390512466430664,0.3236675262451172
0.3395679473876953,0.3218982696533203
0.3395679473876953,0.3218982696533203
0.3345811843872070,0.3185348510742188
0.3345811843872070,0.3185348510742188
0.3343294143676758,0.3134719848632813
0.3343294143676758,0.3134719848632813
0.3337749481201172,0.3140630722045898
0.3337749481201172,0.3140630722045898
0.3303812026977539,0.3091707229614258
0.3303812026977539,0.3091707229614258
0.3325384140014648,0.3104970932006836
0.3325384140014648,0.3104970932006836
0.3293466567993164,0.3099037170410156
0.3293466567993164,0.3099037170410156
0.3308858871459961,0.3079284667968750
0.3308858871459961,0.3079284667968750
0.3316520690917968,0.3105880737304688
0.3316520690917968,0.3105880737304688
0.3293495178222656,0.3074523925781250
0.3293495178222656,0.3074523925781250
0.3323049545288086,0.3100387573242188
0.3323049545288086,0.3100387573242188
0.3296287536621094,0.3102785110473633
0.3316617965698242,0.3091169357299804
0.3316617965698242,0.3091169357299804
0.3326391220092773,0.3123567581176758
0.3326391220092773,0.3123567581176758
0.3306169509887695,0.3097188949584961
0.3306169509887695,0.3097188949584961
0.3340387344360352,0.3130376815795898
0.3340387344360352,0.3130376815795898
0.3317361831665039,0.3137598037719727
0.3317361831665039,0.3137598037719727
0.3340936660766601,0.3132980346679687
0.3340936660766601,0.3132980346679687
0.3353370666503906,0.3171163558959961
0.3353370666503906,0.3171163558959961
0.3335746765136718,0.3148813247680664
0.3335746765136718,0.3148813247680664
0.3369638442993164,0.3182441711425781
0.3369638442993164,0.3182441711425781
0.3344467163085937,0.3182624816894531
0.3344467163085937,0.3182624816894531
0.3364963531494141,0.3173761367797852
0.3364963531494141,0.3173761367797852
0.3373889923095703,0.3204591751098633
0.3373889923095703,0.3204591751098633
0.3350847244262695,0.3173440933227539
0.3350847244262695,0.3173440933227539
0.3380069732666016,0.3198743820190429
0.3380069732666016,0.3198743820190429
0.3350807189941406,0.3191648483276367
0.3350807189941406,0.3191648483276367
0.3367938995361328,0.3177417755126953
0.3367938995361328,0.3177417755126953
0.3373764038085937,0.3203842163085938
0.3368574142456054,0.3203842163085938
0.3350126266479492,0.3171506881713867
0.3350126266479492,0.3171506881713867
0.3378845214843750,0.3196958541870117
0.3378845214843750,0.3196958541870117
0.3348592758178711,0.3188713073730469
0.3348592758178711,0.3188713073730469
0.3367778778076172,0.3178813934326172
0.3367778778076172,0.3178813934326172
0.3376024246215820,0.3209627151489258
0.3376024246215820,0.3209627151489258
0.3353834152221680,0.3180496215820313
0.3353834152221680,0.3180496215820313
0.3385917663574219,0.3210411071777344
0.3385917663574219,0.3210411071777344
0.3357278823852539,0.3204334259033203
0.3357278823852539,0.3204334259033203
0.3379537582397461,0.3199659347534179
0.3379537582397461,0.3199659347534179
0.3389505386352539,0.3232349395751953
0.3389505386352539,0.3232349395751953
0.3369815826416016,0.3208431243896484
0.3369815826416016,0.3208431243896484
0.3401681900024414,0.3240200042724609
0.3401681900024414,0.3240200042724609
0.3374095916748047,0.3234729766845703
0.3374095916748047,0.3234729766845703
0.3397247314453125,0.3231891632080078
0.3397247314453125,0.3231891632080078
0.3407987594604492,0.3265686035156250
0.3407987594604492,0.3265686035156250
0.3388074874877929,0.3241756439208984
0.3388074874877929,0.3241756439208984
0.3420713424682617,0.3273027420043945
0.3420713424682617,0.3273027420043945
0.3392463684082031,0.3265640258789063
0.3392463684082031,0.3265640258789063
0.3415866851806640,0.3263208389282227
0.3415866851806640,0.3263208389282227
0.3424278259277344,0.3295400619506836
0.3424278259277344,0.3295400619506836
0.3405212402343750,0.3270950317382812
0.3405212402343750,0.3270950317382812
0.3436191558837891,0.3299989700317383
0.3436191558837891,0.3299989700317383
