REDsignal,IRsignal
0.6675905227661133,0.5813186645507812
0.6837427139282226,0.5978862762451171
0.6837427139282226,0.5978862762451171
0.6656644821166992,0.5890045166015625
0.6656644821166992,0.5890045166015625
0.6790946960449219,0.5875865936279296
0.6790946960449219,0.5875865936279296
0.6792383193969727,0.6021148681640625
0.6792383193969727,0.6021148681640625
0.6700716018676758,0.5862636566162109
0.6700716018676758,0.5862636566162109
0.6865442276000976,0.6013166427612304
0.6865442276000976,0.6013166427612304
0.6680923461914062,0.5932250976562500
0.6680923461914062,0.5932250976562500
0.6821313858032226,0.5919073104858398
0.6821313858032226,0.5919073104858398
0.6818601608276367,0.6073545455932617
0.6818601608276367,0.6073545455932617
0.6730510711669921,0.5899063110351562
0.6730510711669921,0.5899063110351562
0.6895906448364257,0.6059148788452148
0.6895906448364257,0.6059148788452148
0.6718666076660156,0.5982439041137695
0.6718666076660156,0.5982439041137695
0.6852556228637695,0.5977352142333984
0.6852556228637695,0.5977352142333984
0.6853214263916015,0.6115619659423828
0.6853214263916015,0.6115619659423828
0.6762926101684570,0.5952775955200195
0.6762926101684570,0.5952775955200195
0.6933740615844727,0.6114046096801757
0.6933740615844727,0.6114046096801757
0.6752912521362304,0.6045186996459960
0.6752912521362304,0.6045186996459960
0.6888616561889648,0.6025897979736328
0.6888616561889648,0.6025897979736328
0.6889783859252929,0.6173618316650390
0.6889783859252929,0.6173618316650390
0.6804834365844726,0.6010179519653320
0.6804834365844726,0.6010179519653320
0.6968959808349610,0.6181205749511719
0.6968959808349610,0.6181205749511719
0.6790975570678711,0.6097023010253906
0.6790975570678711,0.6097023010253906
0.6923778533935546,0.6085424423217773
0.6923778533935546,0.6085424423217773
0.6930942535400391,0.6235708236694336
0.6930942535400391,0.6235708236694336
0.6841409683227538,0.6080400466918945
0.6841409683227538,0.6080400466918945
0.7007629394531250,0.6234174728393554
0.7007629394531250,0.6234174728393554
0.6829301834106445,0.6159090042114258
0.6829301834106445,0.6159090042114258
0.6968662261962890,0.6149110794067383
0.6968662261962890,0.6149110794067383
0.6968410491943359,0.6307302474975586
0.6968410491943359,0.6307302474975586
0.6880411148071289,0.6136642456054687
0.6880411148071289,0.6136642456054687
0.7046070098876953,0.6298839569091796
0.7046070098876953,0.6298839569091796
0.6870803833007812,0.6222301483154297
0.6870803833007812,0.6222301483154297
0.6999521255493164,0.6209501266479492
0.6999521255493164,0.6209501266479492
0.6986274719238281,0.6322374343872070
0.6986274719238281,0.6322374343872070
0.6867525100708007,0.6105045318603516
0.6867525100708007,0.6105045318603516
0.6991653442382812,0.6189336776733398
0.6991653442382812,0.6189336776733398
0.6761764526367188,0.6040935516357422
0.6761764526367188,0.6040935516357422
0.6848968505859375,0.5944267272949219
0.6848968505859375,0.5944267272949219
0.6806894302368164,0.6026641845703125
0.6806894302368164,0.6026641845703125
0.6684534072875976,0.5802171707153320
0.6684534072875976,0.5802171707153320
0.6815940856933593,0.5921218872070312
0.6815940856933593,0.5921218872070312
0.6607057571411132,0.5791076660156250
0.6607057571411132,0.5791076660156250
0.6717596054077148,0.5738788604736328
0.6717596054077148,0.5738788604736328
0.6699474334716796,0.5854974746704101
0.6699474334716796,0.5854974746704101
0.6591041564941406,0.5668762207031249
0.6591041564941406,0.5668762207031249
0.6741617202758788,0.5800363540649414
0.6741617202758788,0.5800363540649414
0.6548458099365234,0.5705720901489257
0.6548458099365234,0.5705720901489257
0.6676294326782226,0.5677270889282227
0.6676294326782226,0.5677270889282227
0.6670572280883789,0.5821666717529297
0.6670572280883789,0.5821666717529297
0.6574550628662109,0.5641181945800781
0.6574550628662109,0.5641181945800781
0.6737056732177734,0.5798892974853516
0.6737056732177734,0.5798892974853516
0.6560256958007812,0.5720443725585938
0.6560256958007812,0.5720443725585938
0.6691978454589843,0.5716346740722656
0.6691978454589843,0.5716346740722656
0.6696464538574218,0.5860456466674805
0.6696464538574218,0.5860456466674805
0.6607475280761719,0.5700708389282226
0.6607475280761719,0.5700708389282226
0.6781911849975586,0.5865732192993164
0.6781911849975586,0.5865732192993164
0.6603418350219726,0.5803636550903321
0.6603418350219726,0.5803636550903321
0.6740736007690430,0.5784748077392577
0.6740736007690430,0.5784748077392577
0.6744895935058594,0.5937829971313476
0.6744895935058594,0.5937829971313476
0.6660621643066406,0.5776107788085937
0.6660621643066406,0.5776107788085937
0.6825485229492188,0.5947666168212891
0.6825485229492188,0.5947666168212891
0.6646694183349610,0.5864130020141601
0.6646694183349610,0.5864130020141601
0.6777631759643554,0.5848434448242187
0.6777631759643554,0.5848434448242187
0.6783765792846680,0.5995084762573242
0.6783765792846680,0.5995084762573242
0.6687395095825195,0.5833465576171875
0.6687395095825195,0.5833465576171875
0.6852264404296875,0.5982507705688477
0.6852264404296875,0.5982507705688477
0.6670600891113281,0.5901357650756835
0.6670600891113281,0.5901357650756835
0.6801704406738281,0.5880340576171875
0.6801704406738281,0.5880340576171875
0.6798894882202148,0.6033456802368163
0.6798894882202148,0.6033456802368163
0.6706031799316406,0.5855501174926757
0.6706031799316406,0.5855501174926757
0.6867444992065429,0.6011592864990234
0.6867444992065429,0.6011592864990234
0.6691480636596679,0.5932422637939453
0.6691480636596679,0.5932422637939453
0.6818979263305663,0.5921619415283202
0.6818979263305663,0.5921619415283202
0.6818813323974610,0.6060035705566406
0.6818813323974610,0.6060035705566406
0.6726545333862305,0.5889432907104492
0.6726545333862305,0.5889432907104492
0.6892879486083984,0.6050039291381836
0.6892879486083984,0.6050039291381836
0.6711101531982422,0.5980556488037109
0.6711101531982422,0.5980556488037109
0.6842782974243163,0.5954744338989257
0.6842782974243163,0.5954744338989257
0.6840946197509765,0.6102315902709960
0.6840946197509765,0.6102315902709960
0.6754291534423827,0.5934940338134765
0.6754291534423827,0.5934940338134765
0.6919155120849609,0.6105154037475585
0.6919155120849609,0.6105154037475585
0.6740026473999023,0.6021612167358398
0.6740026473999023,0.6021612167358398
0.6871873855590820,0.6004520416259765
0.6871873855590820,0.6004520416259765
0.6877052307128906,0.6152429580688477
0.6877052307128906,0.6152429580688477
0.6781585693359374,0.5993728637695312
0.6781585693359374,0.5993728637695312
0.6948040008544921,0.6146255493164062
0.6948040008544921,0.6146255493164062
0.6874900817871094,0.6182184219360352
0.6874900817871094,0.6182184219360352
0.6789396286010742,0.6019351959228515
0.6789396286010742,0.6019351959228515
0.6950111389160156,0.6127218246459961
0.6950111389160156,0.6127218246459961
0.6833421707153320,0.6173961639404296
0.6833421707153320,0.6173961639404296
0.6862472534179688,0.6045444488525390
0.6862472534179688,0.6045444488525390
0.6969045639038086,0.6230003356933593
0.6969045639038086,0.6230003356933593
0.6817937850952148,0.6071697235107422
0.6817937850952148,0.6071697235107422
0.6973011016845703,0.6180999755859374
0.6973011016845703,0.6180999755859374
0.6873241424560547,0.6233430862426758
0.7028022766113281,0.6233430862426758
0.6896821975708007,0.6107872009277343
0.6896821975708007,0.6107872009277343
0.7005901336669922,0.6295463562011718
0.7005901336669922,0.6295463562011718
0.6849580764770508,0.6136665344238281
0.6849580764770508,0.6136665344238281
0.7018724441528320,0.6247655868530273
0.7018724441528320,0.6247655868530273
0.6908077239990235,0.6288911819458007
0.6908077239990235,0.6288911819458007
0.6915246963500976,0.6138301849365234
0.6915246963500976,0.6138301849365234
0.6991235733032226,0.6277467727661132
0.6991235733032226,0.6277467727661132
0.6809125900268554,0.6057071685791016
0.6809125900268554,0.6057071685791016
0.6931119918823242,0.6102979660034179
0.6931119918823242,0.6102979660034179
0.6782398223876953,0.6091890335083008
0.6782398223876953,0.6091890335083008
0.6762411117553710,0.5906959533691406
0.6762411117553710,0.5906959533691406
0.6844179153442382,0.6044689178466797
0.6844179153442382,0.6044689178466797
0.6666395187377929,0.5842952728271484
0.6666395187377929,0.5842952728271484
0.6803375244140625,0.5914386749267578
0.6803375244140625,0.5914386749267578
0.6668518066406249,0.5932085037231445
0.6668518066406249,0.5932085037231445
0.6678068161010742,0.5776977539062500
0.6678068161010742,0.5776977539062500
0.6773569107055664,0.5941783905029296
0.6773569107055664,0.5941783905029296
0.6610725402832031,0.5764726638793946
0.6610725402832031,0.5764726638793946
0.6758600234985351,0.5858362197875976
0.6758600234985351,0.5858362197875976
0.6649784088134766,0.5896762847900391
0.6649784088134766,0.5896762847900391
0.6665513992309570,0.5756109237670898
0.6665513992309570,0.5756109237670898
0.6768201828002930,0.5935363769531250
0.6768201828002930,0.5935363769531250
0.6609054565429687,0.5769979476928710
0.6609054565429687,0.5769979476928710
0.6772745132446288,0.5874715805053711
0.6772745132446288,0.5874715805053711
0.6666595458984375,0.5923273086547851
0.6666595458984375,0.5923273086547851
0.6688470840454102,0.5792312622070312
0.6688470840454102,0.5792312622070312
0.6793224334716796,0.5976442337036133
0.6793224334716796,0.5976442337036133
0.6651071548461914,0.5818782806396484
0.6651071548461914,0.5818782806396484
0.6813594818115234,0.5923885345458985
0.6813594818115234,0.5923885345458985
0.6706037521362305,0.5973913192749023
0.6706037521362305,0.5973913192749023
0.6720233917236328,0.5840143203735352
0.6720233917236328,0.5840143203735352
0.6834806442260742,0.6024089813232422
0.6834806442260742,0.6024089813232422
0.6682891845703125,0.5861177444458008
0.6682891845703125,0.5861177444458008
0.6839979171752929,0.5962554931640625
0.6839979171752929,0.5962554931640625
0.6725223541259765,0.6006122589111328
0.6725223541259765,0.6006122589111328
0.6747797012329101,0.5869462966918945
0.6747797012329101,0.5869462966918945
0.6852481842041015,0.6045650482177735
0.6852481842041015,0.6045650482177735
0.6694278717041016,0.5879322052001953
0.6694278717041016,0.5879322052001953
0.6843034744262695,0.5976402282714843
0.6843034744262695,0.5976402282714843
0.6738367080688477,0.6019105911254883
0.6738367080688477,0.6019105911254883
0.6753141403198242,0.5880214691162109
0.6753141403198242,0.5880214691162109
0.6859159469604492,0.6057895660400391
0.6859159469604492,0.6057895660400391
0.6696939468383789,0.5894405364990234
0.6696939468383789,0.5894405364990234
0.6859319686889648,0.5995267868041992
0.6859319686889648,0.5995267868041992
0.6753461837768554,0.6040740966796875
0.6753461837768554,0.6040740966796875
0.6769483566284179,0.5907503128051758
0.6769483566284179,0.5907503128051758
0.6870500564575195,0.6087793350219727
0.6870500564575195,0.6087793350219727
0.6724353790283203,0.5927902221679687
0.6724353790283203,0.5927902221679687
0.6883981704711913,0.6031156539916992
0.6883981704711913,0.6031156539916992
0.6776813507080078,0.6080045700073242
0.6927217483520508,0.6080045700073242
0.6789876937866210,0.5948221206665039
0.6789876937866210,0.5948221206665039
0.6904552459716796,0.6133312225341797
0.6904552459716796,0.6133312225341797
0.6755922317504882,0.5974571228027343
0.6755922317504882,0.5974571228027343
0.6913352966308594,0.6080131530761719
0.6913352966308594,0.6080131530761719
0.6801492691040039,0.6130691528320312
0.6801492691040039,0.6130691528320312
0.6828838348388672,0.6001190185546875
0.6828838348388672,0.6001190185546875
0.6937025070190429,0.6187025070190429
0.6937025070190429,0.6187025070190429
0.6786907196044921,0.6029491424560547
0.6786907196044921,0.6029491424560547
0.6940069198608398,0.6133964538574218
0.6940069198608398,0.6133964538574218
0.6842800140380859,0.6187677383422852
0.6842800140380859,0.6187677383422852
0.6863227844238281,0.6057907104492187
0.6863227844238281,0.6057907104492187
0.6972158432006835,0.6245080947875976
0.6972158432006835,0.6245080947875976
0.6816719055175781,0.6088657379150391
0.6816719055175781,0.6088657379150391
0.6982658386230468,0.6194698333740234
0.6982658386230468,0.6194698333740234
0.6877544403076171,0.6247598648071289
0.6877544403076171,0.6247598648071289
0.6899099349975586,0.6118360519409179
0.6899099349975586,0.6118360519409179
0.7001924514770508,0.6303016662597656
0.7001924514770508,0.6303016662597656
0.6857866287231446,0.6147726058959960
0.6857866287231446,0.6147726058959960
0.7018421173095702,0.6253377914428710
0.7018421173095702,0.6253377914428710
0.6912815093994140,0.6303857803344727
0.6912815093994140,0.6303857803344727
0.6922685623168945,0.6167169570922851
0.6922685623168945,0.6167169570922851
0.7029687881469726,0.6334156036376953
0.7029687881469726,0.6334156036376953
0.6855697631835938,0.6136711120605468
0.6855697631835938,0.6136711120605468
0.6976530075073242,0.6174642562866210
0.6976530075073242,0.6174642562866210
0.6817892074584960,0.6148052215576172
0.6817892074584960,0.6148052215576172
0.6795158386230469,0.5942173004150391
0.6795158386230469,0.5942173004150391
0.6862901687622071,0.6057260513305663
0.6862901687622071,0.6057260513305663
0.6670372009277343,0.5840538024902343
0.6670372009277343,0.5840538024902343
0.6786666870117187,0.5887447357177734
0.6786666870117187,0.5887447357177734
0.6656358718872070,0.5891532897949219
0.6656358718872070,0.5891532897949219
0.6649326324462891,0.5717205047607422
0.6649326324462891,0.5717205047607422
0.6734104156494141,0.5864055633544921
0.6734104156494141,0.5864055633544921
0.6555335998535156,0.5675045013427734
0.6555335998535156,0.5675045013427734
0.6700910568237305,0.5750684738159180
0.6700910568237305,0.5750684738159180
0.6582624435424804,0.5780239105224609
0.6582624435424804,0.5780239105224609
0.6587316513061523,0.5629863739013672
0.6587316513061523,0.5629863739013672
0.6681478500366210,0.5798389434814453
0.6681478500366210,0.5798389434814453
0.6527692794799804,0.5630252838134765
0.6527692794799804,0.5630252838134765
0.6679178237915039,0.5722492218017577
0.6679178237915039,0.5722492218017577
0.6571540832519531,0.5771032333374023
0.6571540832519531,0.5771032333374023
0.6581789016723633,0.5635248184204101
0.6581789016723633,0.5635248184204101
0.6698347091674804,0.5820745468139649
0.6698347091674804,0.5820745468139649
0.6549327850341796,0.5667583465576171
0.6549327850341796,0.5667583465576171
0.6708469390869141,0.5773578643798828
0.6708469390869141,0.5773578643798828
0.6601118087768555,0.5831623077392578
0.6601118087768555,0.5831623077392578
0.6628091812133788,0.5703718185424804
0.6628091812133788,0.5703718185424804
0.6742132186889648,0.5891761779785156
0.6742132186889648,0.5891761779785156
0.6590978622436523,0.5740116119384765
0.6590978622436523,0.5740116119384765
0.6746772766113281,0.5842987060546875
0.6746772766113281,0.5842987060546875
0.6649366378784179,0.5898759841918945
0.6649366378784179,0.5898759841918945
0.6669038772583008,0.5766941070556640
0.6669038772583008,0.5766941070556640
0.6777820587158203,0.5951202392578124
0.6777820587158203,0.5951202392578124
0.6619594573974609,0.5791585922241210
0.6777379989624023,0.5791585922241210
0.6780498504638671,0.5891716003417968
0.6780498504638671,0.5891716003417968
0.6675533294677735,0.5940422058105469
0.6675533294677735,0.5940422058105469
0.6690547943115234,0.5805341720581054
0.6690547943115234,0.5805341720581054
0.6792766571044921,0.5984790802001952
0.6792766571044921,0.5984790802001952
0.6643426895141601,0.5826387405395508
0.6643426895141601,0.5826387405395508
0.6800788879394531,0.5923976898193359
0.6800788879394531,0.5923976898193359
0.6694547653198242,0.5975097656250000
0.6694547653198242,0.5975097656250000
0.6704114913940430,0.5838552474975586
0.6704114913940430,0.5838552474975586
0.6820301055908203,0.6021680831909180
0.6820301055908203,0.6021680831909180
0.6667905807495117,0.5865818023681640
0.6667905807495117,0.5865818023681640
0.6823923110961914,0.5963945388793945
0.6823923110961914,0.5963945388793945
0.6714981079101562,0.6018350601196288
0.6714981079101562,0.6018350601196288
0.6738698959350585,0.5885959625244140
0.6738698959350585,0.5885959625244140
0.6850387573242187,0.6069877624511718
0.6850387573242187,0.6069877624511718
0.6698307037353516,0.5917848587036133
0.6698307037353516,0.5917848587036133
0.6850341796875000,0.6017063140869140
0.6850341796875000,0.6017063140869140
0.6753707885742187,0.6073791503906250
0.6753707885742187,0.6073791503906250
0.6772974014282226,0.5943283081054688
0.6772974014282226,0.5943283081054688
0.6885229110717773,0.6129215240478515
0.6885229110717773,0.6129215240478515
0.6726236343383789,0.5975486755371093
0.6726236343383789,0.5975486755371093
0.6893028259277344,0.6077888488769531
0.6893028259277344,0.6077888488769531
0.6791204452514649,0.6135297775268554
0.6791204452514649,0.6135297775268554
0.6808359146118164,0.6005115509033203
0.6808359146118164,0.6005115509033203
0.6914651870727538,0.6189914703369140
0.6914651870727538,0.6189914703369140
0.6771091461181641,0.6037691116333007
0.6771091461181641,0.6037691116333007
0.6930662155151367,0.6138959884643554
0.6930662155151367,0.6138959884643554
0.6828866958618164,0.6198165893554687
0.6828866958618164,0.6198165893554687
0.6842353820800781,0.6066902160644531
0.6842353820800781,0.6066902160644531
0.6960926055908203,0.6255477905273438
0.6960926055908203,0.6255477905273438
0.6813566207885742,0.6103923797607421
0.6813566207885742,0.6103923797607421
0.6970933914184571,0.6207183837890625
0.6970933914184571,0.6207183837890625
0.6864040374755859,0.6264570236206054
0.6864040374755859,0.6264570236206054
0.6888988494873046,0.6134925842285156
0.6888988494873046,0.6134925842285156
0.7002576828002930,0.6322134017944335
0.7002576828002930,0.6322134017944335
0.6851955413818359,0.6170030593872070
0.6851955413818359,0.6170030593872070
0.7000642776489258,0.6261846542358398
0.7000642776489258,0.6261846542358398
0.6893194198608398,0.6295904159545899
0.6893194198608398,0.6295904159545899
0.6883489608764648,0.6114784240722656
0.6801876068115235,0.6166643142700196
0.6801876068115235,0.6166643142700196
0.6718271255493163,0.6045553207397460
0.6738487243652344,0.6045553207397460
0.6827030181884766,0.6113983154296875
0.6827030181884766,0.6113983154296875
0.6685272216796875,0.5866470336914062
0.6685272216796875,0.5866470336914062
0.6807861328125000,0.5970256805419921
0.6807861328125000,0.5970256805419921
0.6595819473266601,0.5840572357177735
0.6595819473266601,0.5840572357177735
0.6688659667968749,0.5765304565429688
0.6688659667968749,0.5765304565429688
0.6671567916870117,0.5876380920410156
0.6671567916870117,0.5876380920410156
0.6547542572021484,0.5674203872680664
0.6547542572021484,0.5674203872680664
0.6694084167480469,0.5792650222778321
0.6694084167480469,0.5792650222778321
0.6500083923339843,0.5704553604125976
0.6500083923339843,0.5704553604125976
0.6615880966186524,0.5654977798461914
0.6477052688598632,0.5654977798461914
0.6609134674072266,0.5798847198486328
0.6609134674072266,0.5798847198486328
0.6501171112060546,0.5602415084838867
0.6501171112060546,0.5602415084838867
0.6661228179931641,0.5749866485595703
0.6661228179931641,0.5749866485595703
0.6483901977539063,0.5678369522094726
0.6483901977539063,0.5678369522094726
0.6602611541748047,0.5653964996337890
0.6602611541748047,0.5653964996337890
0.6609712600708008,0.5798349380493164
0.6609712600708008,0.5798349380493164
0.6510126113891601,0.5627368927001953
0.6510126113891601,0.5627368927001953
0.6684299468994140,0.5790550231933593
0.6684299468994140,0.5790550231933593
0.6510841369628906,0.5740882873535156
0.6510841369628906,0.5740882873535156
0.6640491485595703,0.5709651947021485
0.6640491485595703,0.5709651947021485
0.6653743743896484,0.5869325637817383
0.6653743743896484,0.5869325637817383
0.6560800552368163,0.5702630996704101
0.6560800552368163,0.5702630996704101
0.6730464935302735,0.5874801635742187
0.6583436965942383,0.5874801635742187
0.6560703277587890,0.5809713363647461
0.6560703277587890,0.5809713363647461
0.6686285018920898,0.5783718109130859
0.6686285018920898,0.5783718109130859
0.6700149536132812,0.5940124511718750
0.6700149536132812,0.5940124511718750
0.6599309921264648,0.5774259567260742
0.6599309921264648,0.5774259567260742
0.6767498016357422,0.5922826766967774
0.6767498016357422,0.5922826766967774
0.6592472076416015,0.5859712600708008
0.6592472076416015,0.5859712600708008
0.6715919494628906,0.5826942443847656
0.6715919494628906,0.5826942443847656
0.6721601486206055,0.5985586166381835
0.6721601486206055,0.5985586166381835
0.6619611740112304,0.5799671173095703
0.6619611740112304,0.5799671173095703
0.6785110473632813,0.5955739974975586
0.6785110473632813,0.5955739974975586
0.6613346099853515,0.5892127990722656
0.6613346099853515,0.5892127990722656
0.6733474731445312,0.5869050979614258
0.6733474731445312,0.5869050979614258
0.6741834640502929,0.6011032104492188
0.6741834640502929,0.6011032104492188
0.6641990661621093,0.5835216522216796
0.6641990661621093,0.5835216522216796
0.6810338973999023,0.5993139266967773
0.6810338973999023,0.5993139266967773
0.6634649276733399,0.5939975738525390
0.6634649276733399,0.5939975738525390
0.6759653091430664,0.5900865554809570
0.6759653091430664,0.5900865554809570
0.6765335083007812,0.6054862976074219
0.6765335083007812,0.6054862976074219
0.6673381805419921,0.5882469177246094
0.6673381805419921,0.5882469177246094
0.6840682983398437,0.6053157806396484
0.6840682983398437,0.6053157806396484
0.6668346405029296,0.5985471725463867
0.6668346405029296,0.5985471725463867
0.6794357299804688,0.5956993103027344
0.6794357299804688,0.5956993103027344
0.6806928634643554,0.6113199234008789
0.6806928634643554,0.6113199234008789
0.6707204818725586,0.5950355529785156
0.6707204818725586,0.5950355529785156
0.6877344131469726,0.6103540420532226
0.6877344131469726,0.6103540420532226
0.6704961776733398,0.6047321319580078
0.6704961776733398,0.6047321319580078
0.6834394454956054,0.6019523620605468
0.6834394454956054,0.6019523620605468
0.6844556808471679,0.6186269760131836
0.6844556808471679,0.6186269760131836
0.6746978759765625,0.6004646301269531
0.6746978759765625,0.6004646301269531
0.6917467117309570,0.6166339874267578
0.6917467117309570,0.6166339874267578
0.6748598098754882,0.6110429763793945
0.6748598098754882,0.6110429763793945
0.6871330261230468,0.6091764450073242
0.6871330261230468,0.6091764450073242
0.6883666992187499,0.6239593505859374
0.6883666992187499,0.6239593505859374
0.6783468246459960,0.6069299697875976
0.6783468246459960,0.6069299697875976
0.6960502624511719,0.6229974746704101
0.6960502624511719,0.6229974746704101
0.6786684036254883,0.6185422897338867
0.6786684036254883,0.6185422897338867
0.6912448883056640,0.6146896362304687
0.6912448883056640,0.6146896362304687
0.6924030303955078,0.6305917739868164
0.6924030303955078,0.6305917739868164
0.6829078674316406,0.6134405136108398
0.6829078674316406,0.6134405136108398
0.6997095108032226,0.6305425643920898
0.6824563980102539,0.6234655380249023
0.6824563980102539,0.6234655380249023
0.6939085006713867,0.6187385559082031
0.6939085006713867,0.6187385559082031
0.6930347442626953,0.6298599243164062
0.6930347442626953,0.6298599243164062
0.6785636901855469,0.6058765411376953
0.6785636901855469,0.6058765411376953
0.6898418426513672,0.6120512008666992
0.6898418426513672,0.6120512008666992
0.6669490814208984,0.5979045867919922
0.6669490814208984,0.5979045867919922
0.6747631072998047,0.5872484207153320
0.6747631072998047,0.5872484207153320
0.6713212966918946,0.5973072052001953
0.6713212966918946,0.5973072052001953
0.6577405929565430,0.5733713150024414
0.6577405929565430,0.5733713150024414
0.6711267471313477,0.5841922760009766
0.6711267471313477,0.5841922760009766
0.6513914108276367,0.5743881225585937
0.6513914108276367,0.5743881225585937
0.6612699508666992,0.5683135986328125
0.6612699508666992,0.5683135986328125
0.6601987838745117,0.5799282073974609
0.6601987838745117,0.5799282073974609
0.6483947753906250,0.5598421096801758
0.6483947753906250,0.5598421096801758
0.6639524459838867,0.5734245300292968
0.6639524459838867,0.5734245300292968
0.6453546524047852,0.5669065475463867
0.6453546524047852,0.5669065475463867
0.6566511154174804,0.5613229751586913
0.6566511154174804,0.5613229751586913
0.6567741394042969,0.5757282257080077
0.6567741394042969,0.5757282257080077
0.6465391159057617,0.5574256896972656
0.6465391159057617,0.5574256896972656
0.6627954483032227,0.5735624313354492
0.6627954483032227,0.5735624313354492
0.6453020095825195,0.5669191360473632
0.6453020095825195,0.5669191360473632
0.6576318740844727,0.5636816024780273
0.6576318740844727,0.5636816024780273
0.6592237472534179,0.5795820236206054
0.6592237472534179,0.5795820236206054
0.6493131637573242,0.5634481430053710
0.6493131637573242,0.5634481430053710
0.6665874481201172,0.5788604736328125
0.6665874481201172,0.5788604736328125
0.6494058609008789,0.5738536834716796
0.6494058609008789,0.5738536834716796
0.6623926162719727,0.5710321426391601
0.6623926162719727,0.5710321426391601
0.6636972427368164,0.5877536773681641
0.6636972427368164,0.5877536773681641
0.6539566040039062,0.5697418212890625
0.6539566040039062,0.5697418212890625
0.6708641052246094,0.5858264923095703
0.6558580398559570,0.5858264923095703
0.6538867950439453,0.5803453445434570
0.6538867950439453,0.5803453445434570
0.6659906387329101,0.5777412414550781
0.6659906387329101,0.5777412414550781
0.6668712615966796,0.5921579360961914
0.6668712615966796,0.5921579360961914
0.6565658569335937,0.5743629455566406
0.6565658569335937,0.5743629455566406
0.6735860824584960,0.5896705627441406
0.6735860824584960,0.5896705627441406
0.6557985305786133,0.5846717834472656
0.6557985305786133,0.5846717834472656
0.6678325653076171,0.5800088882446289
0.6678325653076171,0.5800088882446289
0.6686405181884766,0.5950836181640625
0.6686405181884766,0.5950836181640625
0.6586990356445312,0.5771879196166992
0.6586990356445312,0.5771879196166992
0.6750915527343749,0.5936141967773437
0.6750915527343749,0.5936141967773437
0.6576942443847656,0.5870132446289062
0.6576942443847656,0.5870132446289062
0.6697912216186523,0.5834135055541992
0.6697912216186523,0.5834135055541992
0.6712011337280274,0.5986244201660156
0.6712011337280274,0.5986244201660156
0.6609621047973633,0.5820116043090821
0.6609621047973633,0.5820116043090821
0.6777929306030274,0.5968517303466797
0.6777929306030274,0.5968517303466797
0.6605117797851562,0.5914798736572265
0.6605117797851562,0.5914798736572265
0.6731168746948242,0.5880420684814452
0.6731168746948242,0.5880420684814452
0.6741399765014648,0.6045907974243164
0.6741399765014648,0.6045907974243164
0.6641550064086914,0.5863695144653320
0.6641550064086914,0.5863695144653320
0.6810058593750000,0.6023088455200195
0.6660936355590820,0.6023088455200195
0.6641824722290038,0.5971801757812499
0.6641824722290038,0.5971801757812499
0.6765569686889649,0.5948141098022460
0.6765569686889649,0.5948141098022460
0.6778964996337891,0.6096153259277344
0.6778964996337891,0.6096153259277344
0.6680271148681640,0.5923513412475586
0.6680271148681640,0.5923513412475586
0.6852693557739258,0.6084531784057617
0.6852693557739258,0.6084531784057617
0.6680305480957031,0.6043596267700195
0.6680305480957031,0.6043596267700195
0.6805217742919921,0.6001888275146484
0.6805217742919921,0.6001888275146484
0.6815717697143554,0.6159101486206054
0.6815717697143554,0.6159101486206054
0.6720462799072265,0.5986856460571289
0.6720462799072265,0.5986856460571289
0.6890607833862304,0.6156972885131836
0.6890607833862304,0.6156972885131836
0.6720233917236328,0.6098670959472656
0.6720233917236328,0.6098670959472656
0.6844865798950195,0.6064006805419921
0.6844865798950195,0.6064006805419921
0.6861070632934571,0.6223726272583008
0.6861070632934571,0.6223726272583008
0.6759538650512695,0.6059486389160156
0.6759538650512695,0.6059486389160156
0.6930187225341796,0.6209896087646484
0.6930187225341796,0.6209896087646484
0.6758834838867187,0.6161035537719727
0.6758834838867187,0.6161035537719727
0.6887163162231446,0.6128202438354492
0.6887163162231446,0.6128202438354492
0.6897720336914063,0.6294794082641602
0.6897720336914063,0.6294794082641602
0.6797143936157226,0.6109537124633789
0.6797143936157226,0.6109537124633789
0.6961423873901367,0.6255672454833984
0.6961423873901367,0.6255672454833984
0.6774896621704102,0.6173995971679688
0.6774896621704102,0.6173995971679688
0.6860074996948242,0.6086780548095703
0.6860074996948242,0.6086780548095703
0.6822378158569335,0.6149814605712890
0.6822378158569335,0.6149814605712890
0.6663259506225586,0.5889575958251952
0.6663259506225586,0.5889575958251952
0.6786752700805664,0.5969381332397461
0.6786752700805664,0.5969381332397461
0.6566911697387695,0.5860015869140625
0.6566911697387695,0.5860015869140625
0.6650144577026367,0.5754117965698242
0.6650144577026367,0.5754117965698242
0.6627765655517578,0.5856594085693360
0.6627765655517578,0.5856594085693360
0.6497320175170899,0.5634149551391602
0.6497320175170899,0.5634149551391602
0.6639495849609375,0.5761608123779297
0.6639495849609375,0.5761608123779297
0.6443864822387695,0.5668064117431640
0.6443864822387695,0.5668064117431640
0.6544160842895508,0.5600297927856445
0.6544160842895508,0.5600297927856445
0.6544744491577148,0.5731269836425781
0.6544744491577148,0.5731269836425781
0.6425125122070312,0.5542716979980469
0.6425125122070312,0.5542716979980469
0.6583545684814452,0.5674535751342773
0.6583545684814452,0.5674535751342773
0.6571037292480468,0.5610425949096679
0.6571037292480468,0.5702219009399414
0.6517787933349609,0.5561256408691406
0.6388057708740235,0.5561256408691406
0.6523241043090821,0.5717828750610351
0.6523241043090821,0.5717828750610351
0.6416959762573242,0.5528137207031250
0.6416959762573242,0.5528137207031250
0.6583116531372070,0.5683141708374023
0.6583116531372070,0.5683141708374023
0.6414911270141601,0.5634859085083007
0.6414911270141601,0.5634859085083007
0.6537322998046875,0.5609161376953125
0.6537322998046875,0.5609161376953125
0.6553207397460937,0.5761075973510742
0.6553207397460937,0.5761075973510742
0.6453495025634766,0.5590347290039063
0.6453495025634766,0.5590347290039063
0.6630701065063477,0.5752498626708984
0.6630701065063477,0.5752498626708984
0.6459159851074219,0.5715682983398437
0.6459159851074219,0.5715682983398437
0.6584432601928710,0.5673677444458007
0.6584432601928710,0.5673677444458007
0.6597204208374023,0.5831691741943359
0.6597204208374023,0.5831691741943359
0.6499311447143554,0.5656545639038085
0.6499311447143554,0.5656545639038085
0.6667699813842773,0.5822576522827149
0.6667699813842773,0.5822576522827149
0.6495334625244140,0.5762964248657226
0.6495334625244140,0.5762964248657226
0.6614891052246094,0.5720643997192383
0.6614891052246094,0.5720643997192383
0.6627662658691406,0.5873279571533203
0.6652004241943359,0.5873279571533203
0.6520202636718749,0.5702104568481445
0.6520202636718749,0.5702104568481445
0.6688505172729492,0.5847164154052734
0.6688505172729492,0.5847164154052734
0.6512420654296874,0.5793439865112304
0.6512420654296874,0.5793439865112304
0.6633928298950195,0.5750404357910156
0.6633928298950195,0.5750404357910156
0.6644187927246094,0.5912057876586914
0.6644187927246094,0.5912057876586914
0.6538358688354492,0.5724025726318359
0.6538358688354492,0.5724025726318359
0.6708148956298828,0.5878595352172852
0.6708148956298828,0.5878595352172852
0.6537059783935547,0.5828796386718750
0.6537059783935547,0.5828796386718750
0.6656742095947266,0.5796998977661133
0.6656742095947266,0.5796998977661133
0.6669244766235352,0.5943082809448242
0.6669244766235352,0.5943082809448242
0.6564050674438476,0.5765510559082031
0.6564050674438476,0.5765510559082031
0.6738882064819336,0.5921728134155273
0.6738882064819336,0.5921728134155273
0.6564931869506836,0.5884809494018555
0.6564931869506836,0.5884809494018555
0.6687715530395507,0.5837625503540039
0.6687715530395507,0.5837625503540039
0.6701339721679688,0.5994054794311523
0.6701339721679688,0.5994054794311523
0.6601713180541992,0.5818920135498047
0.6601713180541992,0.5818920135498047
0.6771440505981445,0.5985517501831055
0.6771440505981445,0.5985517501831055
0.6600036621093750,0.5932680130004883
0.6600036621093750,0.5932680130004883
0.6721784591674804,0.5894594192504883
0.6721784591674804,0.5894594192504883
0.6741096496582031,0.6053358078002929
0.6741096496582031,0.6053358078002929
0.6636932373046874,0.5888031005859374
0.6636932373046874,0.5888031005859374
0.6809280395507812,0.6037427902221679
0.6809280395507812,0.6037427902221679
0.6637825012207031,0.5992595672607421
0.6637825012207031,0.5992595672607421
0.6763475418090820,0.5954996109008789
0.6763475418090820,0.5954996109008789
0.6777774810791015,0.6122903823852539
0.6777774810791015,0.6122903823852539
0.6675813674926757,0.5938241958618163
0.6675813674926757,0.5938241958618163
0.6844430923461914,0.6096988677978515
0.6844430923461914,0.6096988677978515
0.6677530288696288,0.6054010391235352
0.6677530288696288,0.6054010391235352
0.6799066543579101,0.6023626327514648
0.6799066543579101,0.6023626327514648
0.6815013885498047,0.6172245025634765
0.6815013885498047,0.6172245025634765
0.6712829589843750,0.5997631072998046
0.6712829589843750,0.5997631072998046
0.6886150360107421,0.6157630920410156
0.6886150360107421,0.6157630920410156
0.6714694976806640,0.6122514724731445
0.6714694976806640,0.6122514724731445
0.6836151123046875,0.6072154998779297
0.6836151123046875,0.6072154998779297
0.6848236083984375,0.6227113723754882
0.6848236083984375,0.6227113723754882
0.6741382598876953,0.6037805557250976
0.6741382598876953,0.6037805557250976
0.6894687652587891,0.6171924591064453
0.6894687652587891,0.6171924591064453
0.6688407897949219,0.6058553695678711
0.6688407897949219,0.6058553695678711
0.6760786056518554,0.5938585281372070
0.6760786056518554,0.5938585281372070
0.6725000381469727,0.6015117645263671
0.6725000381469727,0.6015117645263671
0.6571655273437500,0.5771747589111328
0.6571655273437500,0.5771747589111328
0.6695909500122070,0.5852737426757812
0.6695909500122070,0.5852737426757812
0.6483707427978516,0.5748601913452148
0.6483707427978516,0.5748601913452148
0.6573566436767578,0.5653266906738281
0.6573566436767578,0.5653266906738281
0.6555879592895507,0.5772737503051758
0.6555879592895507,0.5772737503051758
0.6424947738647461,0.5545583724975586
0.6424947738647461,0.5545583724975586
0.6570739746093750,0.5667028427124023
0.6570739746093750,0.5667028427124023
0.6380716323852539,0.5592985153198242
0.6380716323852539,0.5592985153198242
0.6482419967651367,0.5532508850097656
0.6349342346191406,0.5532508850097656
0.6483203887939453,0.5658885955810546
0.6483203887939453,0.5658885955810546
0.6363721847534179,0.5461727142333984
0.6363721847534179,0.5461727142333984
0.6526348114013671,0.5603479385375977
0.6526348114013671,0.5603479385375977
0.6343648910522460,0.5554996490478515
0.6343648910522460,0.5554996490478515
0.6457820892333984,0.5492654800415039
0.6457820892333984,0.5492654800415039
0.6467559814453124,0.5642852783203125
0.6467559814453124,0.5642852783203125
0.6361289978027344,0.5462602615356446
0.6361289978027344,0.5462602615356446
0.6531463623046875,0.5626607894897461
0.6531463623046875,0.5626607894897461
0.6359991073608399,0.5578399658203125
0.6359991073608399,0.5578399658203125
0.6481527328491211,0.5537464141845703
0.6481527328491211,0.5537464141845703
0.6503585815429688,0.5698425292968750
0.6503585815429688,0.5698425292968750
0.6399793624877930,0.5535066604614257
0.6399793624877930,0.5535066604614257
0.6573852539062500,0.5688028335571289
0.6573852539062500,0.5688028335571289
0.6404251098632813,0.5650451660156249
0.6404251098632813,0.5650451660156249
0.6530113220214844,0.5608463287353516
0.6530113220214844,0.5608463287353516
0.6545888900756835,0.5775089263916016
0.6570173263549804,0.5775089263916016
0.6440225601196289,0.5588642120361328
0.6440225601196289,0.5588642120361328
0.6608654022216797,0.5744287490844726
0.6608654022216797,0.5744287490844726
0.6439086914062500,0.5701417922973633
0.6439086914062500,0.5701417922973633
0.6556022644042968,0.5660533905029297
0.6556022644042968,0.5660533905029297
0.6570796966552734,0.5805788040161133
0.6570796966552734,0.5805788040161133
0.6462020874023438,0.5624010086059570
0.6462020874023438,0.5624010086059570
0.6633041381835937,0.5777011871337890
0.6633041381835937,0.5777011871337890
0.6457815170288086,0.5741661071777343
0.6457815170288086,0.5741661071777343
0.6576221466064452,0.5684715270996094
0.6576221466064452,0.5684715270996094
0.6590211868286132,0.5838026046752930
0.6590211868286132,0.5838026046752930
0.6486150741577148,0.5659309387207031
0.6486150741577148,0.5659309387207031
0.6655254364013672,0.5822244644165039
0.6655254364013672,0.5822244644165039
0.6482379913330077,0.5772531509399413
0.6482379913330077,0.5772531509399413
0.6602525711059570,0.5725547790527343
0.6602525711059570,0.5725547790527343
0.6620538711547851,0.5883642196655273
0.6620538711547851,0.5883642196655273
0.6513135910034179,0.5715145111083985
0.6591047286987305,0.5715145111083985
0.6685958862304687,0.5860759735107421
0.6685958862304687,0.5860759735107421
0.6512649536132812,0.5822793960571289
0.6512649536132812,0.5822793960571289
0.6637407302856445,0.5777721405029297
0.6637407302856445,0.5777721405029297
0.6655202865600586,0.5946207046508789
0.6655202865600586,0.5946207046508789
0.6549722671508789,0.5761173248291015
0.6549722671508789,0.5761173248291015
0.6722723007202148,0.5918901443481445
0.6722723007202148,0.5918901443481445
0.6553670883178710,0.5882040023803711
0.6553670883178710,0.5882040023803711
0.6674812316894531,0.5845607757568360
0.6674812316894531,0.5845607757568360
0.6692619323730469,0.5996160507202148
0.6692619323730469,0.5996160507202148
0.6584455490112304,0.5820007324218750
0.6584455490112304,0.5820007324218750
0.6762428283691406,0.5977283477783203
0.6762428283691406,0.5977283477783203
0.6590549468994140,0.5950372695922851
0.6590549468994140,0.5950372695922851
0.6711502075195312,0.5894067764282226
0.6711502075195312,0.5894067764282226
0.6729572296142577,0.6053672790527344
0.6729572296142577,0.6053672790527344
0.6625242233276367,0.5876838684082031
0.6625242233276367,0.5876838684082031
0.6797996520996094,0.6043619155883789
0.6797996520996094,0.6043619155883789
0.6626867294311524,0.5999965667724609
0.6626867294311524,0.5999965667724609
0.6746841430664062,0.5952941894531250
0.6746841430664062,0.5952941894531250
0.6769323348999023,0.6112306594848632
0.6769323348999023,0.6112306594848632
0.6660610198974609,0.5944015502929687
0.6660610198974609,0.5944015502929687
0.6833061218261719,0.6092948913574219
0.6679601669311523,0.6092948913574219
0.6664564132690429,0.6058507919311523
0.6664564132690429,0.6058507919311523
0.6786426544189453,0.6009361267089843
0.6786426544189453,0.6009361267089843
0.6800811767578124,0.6172405242919922
0.6800811767578124,0.6172405242919922
0.6685335159301757,0.5968837738037109
0.6685335159301757,0.5968837738037109
0.6834875106811523,0.6088216781616210
0.6834875106811523,0.6088216781616210
0.6631353378295898,0.5990678787231445
0.6631353378295898,0.5990678787231445
0.6702924728393554,0.5876329421997070
0.6702924728393554,0.5876329421997070
0.6671854019165039,0.5949645996093750
0.6671854019165039,0.5949645996093750
0.6517438888549805,0.5699867248535156
0.6517438888549805,0.5699867248535156
0.6649068832397461,0.5791912078857422
0.6649068832397461,0.5791912078857422
0.6438388824462891,0.5707574844360351
0.6438388824462891,0.5707574844360351
0.6525409698486327,0.5597837448120117
0.6525409698486327,0.5597837448120117
0.6510160446166992,0.5710681915283203
0.6510160446166992,0.5710681915283203
0.6378376007080078,0.5491836547851562
0.6378376007080078,0.5491836547851562
0.6526342391967773,0.5620267868041992
0.6526342391967773,0.5620267868041992
0.6334259033203125,0.5545589447021484
0.6334259033203125,0.5545589447021484
0.6433851242065429,0.5470722198486327
0.6433851242065429,0.5470722198486327
0.6441095352172851,0.5606374740600586
0.6441095352172851,0.5606374740600586
0.6317087173461914,0.5414314270019531
0.6317087173461914,0.5414314270019531
0.6476583480834961,0.5544433593750000
0.6476583480834961,0.5544433593750000
0.6291738510131836,0.5493999481201172
0.6291738510131836,0.5493999481201172
0.6406969070434571,0.5432561874389649
0.6406969070434571,0.5432561874389649
0.6417697906494141,0.5591394424438476
0.6417697906494141,0.5591394424438476
0.6307022094726562,0.5400426864624023
0.6307022094726562,0.5400426864624023
0.6478025436401367,0.5554447174072266
0.6478025436401367,0.5554447174072266
0.6308578491210938,0.5520612716674804
0.6308578491210938,0.5520612716674804
0.6429399490356446,0.5480930328369140
0.6308435440063477,0.5480930328369140
0.6451274871826171,0.5635974884033202
0.6451274871826171,0.5635974884033202
0.6344009399414062,0.5462265014648438
0.6425897598266601,0.5462265014648438
0.6522033691406249,0.5622648239135742
0.6522033691406249,0.5622648239135742
0.6530948638916015,0.5679491043090820
0.6530948638916015,0.5680841445922852
0.6372980117797852,0.5546590805053710
0.6540744781494140,0.5546590805053710
0.6529809951782226,0.5616331100463867
0.6529809951782226,0.5616331100463867
0.6439064025878906,0.5693910598754882
0.6439064025878906,0.5693910598754882
0.6442514419555664,0.5554046630859375
0.6442514419555664,0.5554046630859375
0.6560388565063476,0.5733352661132812
0.6560388565063476,0.5733352661132812
0.6409200668334961,0.5594272613525391
0.6409200668334961,0.5594272613525391
0.6558477401733398,0.5658353805541992
0.6558477401733398,0.5658353805541992
0.6464263916015625,0.5733810424804687
0.6464263916015625,0.5733810424804687
0.6462450027465820,0.5592235565185547
0.6462450027465820,0.5592235565185547
0.6589450836181641,0.5771244049072265
0.6589450836181641,0.5771244049072265
0.6435894012451172,0.5634344100952148
0.6435894012451172,0.5634344100952148
0.6583889007568359,0.5699220657348633
0.6583889007568359,0.5699220657348633
0.6486539840698242,0.5776685714721680
0.6486539840698242,0.5776685714721680
0.6496244430541992,0.5636718749999999
0.6496244430541992,0.5636718749999999
0.6619400024414063,0.5819303512573242
0.6619400024414063,0.5819303512573242
0.6466243743896484,0.5683782577514648
0.6466243743896484,0.5683782577514648
0.6610656738281250,0.5751142501831055
0.6610656738281250,0.5751142501831055
0.6527732849121094,0.5831285476684570
0.6527732849121094,0.5831285476684570
0.6533809661865234,0.5693738937377929
0.6487632751464844,0.5693738937377929
0.6656513214111328,0.5876569747924805
0.6656513214111328,0.5876569747924805
0.6499248504638672,0.5743223190307617
0.6499248504638672,0.5743223190307617
0.6656862258911133,0.5810348510742187
0.6656862258911133,0.5810348510742187
0.6565996170043945,0.5891510009765625
0.6565996170043945,0.5891510009765625
0.6572319030761719,0.5754421234130859
0.6572319030761719,0.5754421234130859
0.6690404891967773,0.5937618255615235
0.6690404891967773,0.5937618255615235
0.6543760299682617,0.5803876876831054
0.6543760299682617,0.5803876876831054
0.6697443008422851,0.5870573043823242
0.6697443008422851,0.5870573043823242
0.6606016159057617,0.5951969146728515
0.6606016159057617,0.5951969146728515
0.6604619979858398,0.5815561294555663
0.6604619979858398,0.5815561294555663
0.6735677719116211,0.5996824264526367
0.6735677719116211,0.5996824264526367
0.6581697463989258,0.5862951278686523
0.6581697463989258,0.5862951278686523
0.6733617782592773,0.5930150985717774
0.6733617782592773,0.5930150985717774
0.6638345718383789,0.6011386871337890
0.6638345718383789,0.6011386871337890
0.6650161743164062,0.5874252319335938
0.6650161743164062,0.5874252319335938
0.6774106979370117,0.6056762695312500
0.6774106979370117,0.6056762695312500
0.6620670318603515,0.5923925399780273
0.6620670318603515,0.5923925399780273
0.6766405105590820,0.5989780426025391
0.6766405105590820,0.5989780426025391
0.6683807373046875,0.6072275161743164
0.6683807373046875,0.6072275161743164
0.6689048767089844,0.5934041976928711
0.6689048767089844,0.5934041976928711
0.6812942504882812,0.6116420745849609
0.6812942504882812,0.6116420745849609
0.6654756546020507,0.5983388900756835
0.6654756546020507,0.5983388900756835
0.6809921264648438,0.6046308517456055
0.6809921264648438,0.6046308517456055
0.6717916488647461,0.6122629165649414
0.6717916488647461,0.6122629165649414
0.6712812423706055,0.5966205596923828
0.6712812423706055,0.5966205596923828
0.6809017181396484,0.6107597351074219
0.6809017181396484,0.6107597351074219
0.6624835968017578,0.5915016174316406
0.6624835968017578,0.5915016174316406
0.6728805541992188,0.5906885147094726
0.6728805541992188,0.5906885147094726
0.6591533660888672,0.5916309356689453
0.6591533660888672,0.5916309356689453
0.6544023513793945,0.5707300186157226
0.6544023513793945,0.5707300186157226
0.6631908416748047,0.5824745178222656
0.6631908416748047,0.5824745178222656
0.6441284179687500,0.5636066436767578
0.6441284179687500,0.5636066436767578
0.6558958053588867,0.5649106979370117
0.6558958053588867,0.5649106979370117
0.6433639526367188,0.5685802459716797
0.6433639526367188,0.5685802459716797
0.6415540695190429,0.5507904052734375
0.6415540695190429,0.5507904052734375
0.6516946792602539,0.5653375625610352
0.6516946792602539,0.5653375625610352
0.6343265533447265,0.5491905212402344
0.6343265533447265,0.5491905212402344
0.6470821380615234,0.5526958465576172
0.6470821380615234,0.5526958465576172
0.6370187759399414,0.5587560653686523
0.6370187759399414,0.5587560653686523
0.6360219955444336,0.5430198669433594
0.6360219955444336,0.5430198669433594
0.6472394943237304,0.5592859268188476
0.6472394943237304,0.5592859268188476
0.6303354263305664,0.5445585250854492
0.6303354263305664,0.5445585250854492
0.6450422286987304,0.5496385574340820
0.6450422286987304,0.5496385574340820
0.6357084274291992,0.5572517395019531
0.6357084274291992,0.5572517395019531
0.6354246139526367,0.5431240081787109
0.6354246139526367,0.5431240081787109
0.6474449157714843,0.5611169815063476
0.6474449157714843,0.5611169815063476
0.6326356887817383,0.5481502532958984
0.6326356887817383,0.5481502532958984
0.6479021072387695,0.5546585083007812
0.6479021072387695,0.5546585083007812
0.6393350601196289,0.5636341094970703
0.6393350601196289,0.5636341094970703
0.6394008636474610,0.5500087738037109
0.6394008636474610,0.5500087738037109
0.6527217864990235,0.5686071395874023
0.6527217864990235,0.5686071395874023
0.6377037048339843,0.5559934616088867
0.6377037048339843,0.5559934616088867
0.6528917312622070,0.5622934341430664
0.6356998443603515,0.5622934341430664
0.6435871124267578,0.5708209991455078
0.6435871124267578,0.5708209991455078
0.6445678710937500,0.5569301605224609
0.6445678710937500,0.5569301605224609
0.6570281982421875,0.5748619079589844
0.6570281982421875,0.5748619079589844
0.6415906906127929,0.5616725921630860
0.6415906906127929,0.5616725921630860
0.6557647705078125,0.5672859191894531
0.6557647705078125,0.5672859191894531
0.6473167419433593,0.5755290985107422
0.6473167419433593,0.5755290985107422
0.6472967147827148,0.5612737655639648
0.6472967147827148,0.5612737655639648
0.6598073959350585,0.5790756225585937
0.6598073959350585,0.5790756225585937
0.6436277389526367,0.5654119491577149
0.6436277389526367,0.5654119491577149
0.6589645385742188,0.5712621688842773
0.6589645385742188,0.5712621688842773
0.6501279830932617,0.5796735763549804
0.6501279830932617,0.5796735763549804
0.6501394271850586,0.5656202316284179
0.6501394271850586,0.5656202316284179
0.6622032165527344,0.5833786010742187
0.6622032165527344,0.5833786010742187
0.6472223281860351,0.5702127456665039
0.6472223281860351,0.5702127456665039
0.6622856140136718,0.5761585235595703
0.6622856140136718,0.5761585235595703
0.6533592224121093,0.5848440170288086
0.6533592224121093,0.5848440170288086
0.6529518127441406,0.5709342956542969
0.6488445281982421,0.5709342956542969
0.6663442611694336,0.5890045166015625
0.6663442611694336,0.5890045166015625
0.6510263442993164,0.5760560989379883
0.6510263442993164,0.5760560989379883
0.6660736083984374,0.5821369171142577
0.6660736083984374,0.5821369171142577
0.6568714141845703,0.5908739089965820
0.6568714141845703,0.5908739089965820
0.6574768066406250,0.5771867752075195
0.6574768066406250,0.5771867752075195
0.6703227996826172,0.5953147888183593
0.6703227996826172,0.5953147888183593
0.6552360534667968,0.5828481674194336
0.6552360534667968,0.5828481674194336
0.6698301315307617,0.5886388778686523
0.6698301315307617,0.5886388778686523
0.6616727828979492,0.5974382400512696
0.6616727828979492,0.5974382400512696
0.6620246887207031,0.5838014602661132
0.6620246887207031,0.5838014602661132
0.6748758316040039,0.6021806716918945
0.6748758316040039,0.6021806716918945
0.6589221954345703,0.5893226623535156
0.6589221954345703,0.5893226623535156
0.6747356414794922,0.5951471328735352
0.6747356414794922,0.5951471328735352
0.6659637451171875,0.6041587829589844
0.6659637451171875,0.6041587829589844
0.6662509918212890,0.5905769348144531
0.6662509918212890,0.5905769348144531
0.6786535263061523,0.6086317062377929
0.6786535263061523,0.6086317062377929
0.6638603210449219,0.5958847045898438
0.6638603210449219,0.5958847045898438
0.6790615081787109,0.6017990112304688
0.6790615081787109,0.6017990112304688
0.6703302383422851,0.6109291076660156
0.6703302383422851,0.6109291076660156
0.6699382781982421,0.5969369888305663
0.6699382781982421,0.5969369888305663
0.6832832336425781,0.6152292251586914
0.6832832336425781,0.6152292251586914
0.6680271148681640,0.6024621963500977
0.6680271148681640,0.6024621963500977
0.6831212997436523,0.6080211639404297
0.6831212997436523,0.6080211639404297
0.6736581802368163,0.6167020797729492
0.6736581802368163,0.6167020797729492
0.6736055374145508,0.6017240524291992
0.6736055374145508,0.6017240524291992
0.6849328994750976,0.6166585922241211
0.6849328994750976,0.6166585922241211
0.6662956237792969,0.5984739303588867
0.6662956237792969,0.5984739303588867
0.6759361267089844,0.5960826873779297
0.6759361267089844,0.5960826873779297
0.6624423980712890,0.5968706130981445
0.6624423980712890,0.5968706130981445
0.6574796676635742,0.5752635955810547
0.6574796676635742,0.5752635955810547
0.6658567428588867,0.5864868164062500
0.6658567428588867,0.5864868164062500
0.6459583282470703,0.5675416946411133
0.6459583282470703,0.5675416946411133
0.6578847885131835,0.5678472518920898
0.6578847885131835,0.5678472518920898
0.6462993621826172,0.5723310470581054
0.6462993621826172,0.5723310470581054
0.6436048507690429,0.5544713973999024
0.6436048507690429,0.5544713973999024
0.6537775039672852,0.5690271377563476
0.6537775039672852,0.5690271377563476
0.6368110656738281,0.5534940719604492
0.6368110656738281,0.5534940719604492
0.6503173828125000,0.5563997268676758
0.6503173828125000,0.5563997268676758
0.6400777816772460,0.5635293960571289
0.6400777816772460,0.5635293960571289
0.6383886337280273,0.5477783203125000
0.6383886337280273,0.5477783203125000
0.6509061813354492,0.5643310546875000
0.6509061813354492,0.5643310546875000
0.6346824645996093,0.5506084442138671
0.6346824645996093,0.5506084442138671
0.6489515304565430,0.5551288604736327
0.6489515304565430,0.5551288604736327
0.6393871307373047,0.5636100769042969
0.6393871307373047,0.5636100769042969
0.6396909713745117,0.5494314193725586
0.6396909713745117,0.5494314193725586
0.6525999069213867,0.5675399780273437
0.6525999069213867,0.5675399780273437
0.6373861312866210,0.5552370071411132
0.6373861312866210,0.5552370071411132
0.6520334243774414,0.5608469009399414
0.6520334243774414,0.5608469009399414
0.6442394256591797,0.5705669403076171
0.6442394256591797,0.5705669403076171
0.6444448471069336,0.5568923950195312
0.6444448471069336,0.5568923950195312
0.6696916580200195,0.5723590850830078
0.6696916580200195,0.5723590850830078
0.6420341491699219,0.5637405395507812
0.6420341491699219,0.5637405395507812
0.6572273254394531,0.5680429458618164
0.6572273254394531,0.5680429458618164
0.6497165679931640,0.5778333663940429
0.6497165679931640,0.5778333663940429
0.6484783172607421,0.5637176513671874
0.6484783172607421,0.5637176513671874
0.6609987258911133,0.5806337356567383
0.6609987258911133,0.5806337356567383
0.6457712173461914,0.5681396484375000
0.6457712173461914,0.5681396484375000
0.6608333587646484,0.5725015640258789
0.6608333587646484,0.5725015640258789
0.6519802093505859,0.5817975997924805
0.6519802093505859,0.5817975997924805
0.6506933212280274,0.5671428680419922
0.6506933212280274,0.5671428680419922
0.6576896667480469,0.5702430725097656
0.6457889556884765,0.5702430725097656
0.6600368499755859,0.5868936538696289
0.6600368499755859,0.5868936538696289
0.6483140945434570,0.5678890228271484
0.6483140945434570,0.5678890228271484
0.6655305862426758,0.5826210021972656
0.6655305862426758,0.5826210021972656
0.6488193511962891,0.5808912277221679
0.6488193511962891,0.5808912277221679
0.6600505828857421,0.5749191284179688
0.6600505828857421,0.5749191284179688
0.6627061843872070,0.5901494979858398
0.6627061843872070,0.5901494979858398
0.6508214950561523,0.5723047256469727
0.6508214950561523,0.5723047256469727
0.6688287734985351,0.5872203826904296
0.6688287734985351,0.5872203826904296
0.6516689300537110,0.5867139816284179
0.6516689300537110,0.5867139816284179
0.6634099960327148,0.5791866302490234
0.6634099960327148,0.5791866302490234
0.6662921905517578,0.5955911636352539
0.6662921905517578,0.5955911636352539
0.6549837112426757,0.5780347824096680
0.6549837112426757,0.5780347824096680
0.6724840164184570,0.5939329147338867
0.6724840164184570,0.5939329147338867
0.6556898117065429,0.5919055938720703
0.6556898117065429,0.5919055938720703
0.6671922683715820,0.5854871749877929
0.6671922683715820,0.5854871749877929
0.6706197738647460,0.6019403457641601
0.6706197738647460,0.6019403457641601
0.6590337753295898,0.5852176666259765
0.6590337753295898,0.5852176666259765
0.6767555236816406,0.5994953155517578
0.6767555236816406,0.5994953155517578
0.6600105285644531,0.5985906600952148
0.6600105285644531,0.5985906600952148
0.6719375610351562,0.5920234680175781
0.6719375610351562,0.5920234680175781
0.6747316360473633,0.6093984603881836
0.6747316360473633,0.6093984603881836
0.6633390426635742,0.5910461425781249
0.6633390426635742,0.5910461425781249
0.6808427810668946,0.6061231613159179
0.6808427810668946,0.6061231613159179
0.6644474029541015,0.6050914764404297
0.6852910995483398,0.6050914764404297
0.6759132385253906,0.5993734359741211
0.6759132385253906,0.5993734359741211
0.6789842605590820,0.6150318145751953
0.6789842605590820,0.6150318145751953
0.6673639297485351,0.5973169326782226
0.6673639297485351,0.5973169326782226
0.6852613449096679,0.6124122619628906
0.6852613449096679,0.6124122619628906
0.6683149337768555,0.6123418807983398
0.6683149337768555,0.6123418807983398
0.6798986434936524,0.6047166824340821
0.6798986434936524,0.6047166824340821
0.6826807022094726,0.6211704254150391
0.6826807022094726,0.6211704254150391
0.6714345932006835,0.6035459518432617
0.6714345932006835,0.6035459518432617
0.6888553619384765,0.6189519882202148
0.6888553619384765,0.6189519882202148
0.6715158462524414,0.6157888412475586
0.6715158462524414,0.6157888412475586
0.6812719345092774,0.6060047149658203
0.6812719345092774,0.6060047149658203
0.6812507629394531,0.6165899276733399
0.6812507629394531,0.6165899276733399
0.6643764495849609,0.5914855957031250
0.6643764495849609,0.5914855957031250
0.6763538360595703,0.5969141006469726
0.6763538360595703,0.5969141006469726
0.6542942047119140,0.5880151748657226
0.6542942047119140,0.5880151748657226
0.6615755081176757,0.5740007400512696
0.6615755081176757,0.5740007400512696
0.6603750228881836,0.5850728988647461
0.6603750228881836,0.5850728988647461
0.6452201843261719,0.5610574722290039
0.6452201843261719,0.5610574722290039
0.6598543167114258,0.5712936401367187
0.6598543167114258,0.5712936401367187
0.6404897689819335,0.5663034439086914
0.6404897689819335,0.5663034439086914
0.6495660781860352,0.5567218780517578
0.6495660781860352,0.5567218780517578
0.6507900238037109,0.5693870544433594
0.6507900238037109,0.5693870544433594
0.6371709823608398,0.5492139816284179
0.6371709823608398,0.5492139816284179
0.6537008285522461,0.5619718551635742
0.6537008285522461,0.5619718551635742
0.6356231689453125,0.5600830078125000
0.6356231689453125,0.5600830078125000
0.6461631774902343,0.5508069992065430
0.6461631774902343,0.5508069992065430
0.6483449935913086,0.5662015914916992
0.6483449935913086,0.5662015914916992
0.6363275527954101,0.5483499526977539
0.6363275527954101,0.5483499526977539
0.6528013229370117,0.5622459411621094
0.6391273498535156,0.5622459411621094
0.6370513916015624,0.5612102508544922
0.6370513916015624,0.5612102508544922
0.6476457595825195,0.5538951873779296
0.6476457595825195,0.5538951873779296
0.6511144638061523,0.5707775115966797
0.6511144638061523,0.5707775115966797
0.6394071578979492,0.5541423797607422
0.6394071578979492,0.5541423797607422
0.6576089859008789,0.5686397552490234
0.6576089859008789,0.5686397552490234
0.6410207748413086,0.5682449340820312
0.6410207748413086,0.5682449340820312
0.6529186248779296,0.5615238189697266
0.6529186248779296,0.5615238189697266
0.6561532974243164,0.5792598724365234
0.6561532974243164,0.5792598724365234
0.6443864822387695,0.5608400344848633
0.6443864822387695,0.5608400344848633
0.6620321273803711,0.5756881713867187
0.6620321273803711,0.5756881713867187
0.6454811096191406,0.5748607635498046
0.6661720275878906,0.5748607635498046
0.6567758560180664,0.5682449340820312
0.6567758560180664,0.5682449340820312
0.6597106933593749,0.5834838867187500
0.6597106933593749,0.5834838867187500
0.6472972869873047,0.5652477264404296
0.6472972869873047,0.5652477264404296
0.6649703979492188,0.5795019149780273
0.6649703979492188,0.5795019149780273
0.6476417541503906,0.5791339874267578
0.6476417541503906,0.5791339874267578
0.6588432312011718,0.5705720901489257
0.6588432312011718,0.5705720901489257
0.6613901138305663,0.5866956710815430
0.6613901138305663,0.5866956710815430
0.6496662139892578,0.5684371948242187
0.6496662139892578,0.5684371948242187
0.6670160293579102,0.5836166381835938
0.6670160293579102,0.5836166381835938
0.6499414443969727,0.5818307876586913
0.6708784103393555,0.5818307876586913
0.6613077163696289,0.5744722366333007
0.6613077163696289,0.5744722366333007
0.6646213531494141,0.5907331466674804
0.6646213531494141,0.5907331466674804
0.6524271011352539,0.5736116409301758
0.6524271011352539,0.5736116409301758
0.6701242446899414,0.5874858856201172
0.6701242446899414,0.5874858856201172
0.6531263351440429,0.5868942260742187
0.6531263351440429,0.5868942260742187
0.6649435043334960,0.5797348022460938
0.6649435043334960,0.5797348022460938
0.6680540084838867,0.5971944808959960
0.6680540084838867,0.5971944808959960
0.6561504364013672,0.5785657882690429
0.6561504364013672,0.5785657882690429
0.6740936279296875,0.5933973312377929
0.6740936279296875,0.5933973312377929
0.6574779510498047,0.5931301116943359
0.6574779510498047,0.5931301116943359
0.6689952850341797,0.5868295669555664
0.6689952850341797,0.5868295669555664
0.6723672866821289,0.6029308319091796
0.6723672866821289,0.6029308319091796
0.6602828979492187,0.5852851867675781
0.6602828979492187,0.5852851867675781
0.6787462234497070,0.6002798080444336
0.6787462234497070,0.6002798080444336
0.6617717742919922,0.6008817672729492
0.6617717742919922,0.6008817672729492
0.6733652114868164,0.5928977966308594
0.6733652114868164,0.5928977966308594
0.6768482208251952,0.6097686767578124
0.6768482208251952,0.6097686767578124
0.6652490615844726,0.5922580718994140
0.6652490615844726,0.5922580718994140
0.6829456329345703,0.6080554962158203
0.6668861389160156,0.6080554962158203
0.6662944793701172,0.6069368362426758
0.6662944793701172,0.6069368362426758
0.6776813507080078,0.5998111724853515
0.6776813507080078,0.5998111724853515
0.6814825057983398,0.6166620254516602
0.6814825057983398,0.6166620254516602
0.6692510604858398,0.6000434875488281
0.6692510604858398,0.6000434875488281
0.6872400283813477,0.6139720916748047
0.6872400283813477,0.6139720916748047
0.6705814361572265,0.6137386322021484
0.6705814361572265,0.6137386322021484
0.6823539733886719,0.6065105438232422
0.6823539733886719,0.6065105438232422
0.6856727600097656,0.6242734909057617
0.6856727600097656,0.6242734909057617
0.6736055374145508,0.6058050155639648
0.6830755233764648,0.6058050155639648
0.6913810729980469,0.6206022262573242
0.6913810729980469,0.6206022262573242
0.6749227523803710,0.6205032348632812
0.6749227523803710,0.6205032348632812
0.6862020492553711,0.6134651184082031
0.6862020492553711,0.6134651184082031
0.6889068603515625,0.6280225753784180
0.6889068603515625,0.6280225753784180
0.6748008728027344,0.6066793441772461
0.6748008728027344,0.6066793441772461
0.6891380310058594,0.6149871826171874
0.6891380310058594,0.6149871826171874
0.6668666839599610,0.6066873550415038
0.6848693847656250,0.6066873550415038
0.6724439620971679,0.5891624450683594
0.6724439620971679,0.5891624450683594
0.6704584121704101,0.5977157592773438
0.6704584121704101,0.5977157592773438
0.6538822174072265,0.5728317260742187
0.6538822174072265,0.5728317260742187
0.6677455902099609,0.5822410583496094
0.6677455902099609,0.5822410583496094
0.6473001480102539,0.5758295059204102
0.6473001480102539,0.5758295059204102
0.6555553436279297,0.5635860443115234
0.6555553436279297,0.5635860443115234
0.6565950393676757,0.5762746810913085
0.6565950393676757,0.5762746810913085
0.6425754547119140,0.5559179306030273
0.6425754547119140,0.5559179306030273
0.6576604843139648,0.5666141510009766
0.6576604843139648,0.5666141510009766
0.6397356033325196,0.5639928817749024
0.6397356033325196,0.5639928817749024
0.6489589691162109,0.5554092407226562
0.6489589691162109,0.5554092407226562
0.6527132034301758,0.5705205917358398
0.6527132034301758,0.5705205917358398
0.6391319274902344,0.5510850906372070
0.6391319274902344,0.5510850906372070
0.6554689407348633,0.5635093688964844
0.6554689407348633,0.5635093688964844
0.6395450592041015,0.5629554748535156
0.6581766128540039,0.5629554748535156
0.6492794036865234,0.5558326721191406
0.6388710021972656,0.5558326721191406
0.6526342391967773,0.5705818176269531
0.6526342391967773,0.5705818176269531
0.6500770568847656,0.5541641235351562
0.6582847595214844,0.5681522369384765
0.6431865692138672,0.5681522369384765
0.6431253433227538,0.5697755813598633
0.6431253433227538,0.5697755813598633
0.6536504745483398,0.5619129180908203
0.6536504745483398,0.5619129180908203
0.6576581954956054,0.5782510757446289
0.6576581954956054,0.5782510757446289
0.6461723327636718,0.5658296585083008
0.6461723327636718,0.5658296585083008
0.6626707077026367,0.5772148132324219
0.6626707077026367,0.5772148132324219
0.6478717803955077,0.5766946792602539
0.6478717803955077,0.5766946792602539
0.6579706192016601,0.5690706253051757
0.6579706192016601,0.5690706253051757
0.6621620178222656,0.5849939346313476
0.6621620178222656,0.5849939346313476
0.6498945236206054,0.5687587738037109
0.6498945236206054,0.5687587738037109
0.6668266296386719,0.5812688827514648
0.6668266296386719,0.5812688827514648
0.6505456924438476,0.5808265686035156
0.6505456924438476,0.5808265686035156
0.6611240386962890,0.5730411529541015
0.6611240386962890,0.5730411529541015
0.6644411087036133,0.5896471023559570
0.6644411087036133,0.5896471023559570
0.6519556045532227,0.5712558746337890
0.6519556045532227,0.5712558746337890
0.6687480926513671,0.5845315933227538
0.6687480926513671,0.5845315933227538
0.6527698516845702,0.5843009948730469
0.6527698516845702,0.5843009948730469
0.6631725311279296,0.5771318435668945
0.6631725311279296,0.5771318435668945
0.6666996002197265,0.5922815322875976
0.6666996002197265,0.5922815322875976
0.6543325424194336,0.5750730514526367
0.6543325424194336,0.5750730514526367
0.6718517303466797,0.5886491775512696
0.6718517303466797,0.5886491775512696
0.6727266311645508,0.5946395874023437
0.6727266311645508,0.5946395874023437
0.6739734649658203,0.5838460922241211
0.6697957992553710,0.5838460922241211
0.6720010757446289,0.5870590209960938
0.6720010757446289,0.5870590209960938
0.6640588760375976,0.5976568222045898
0.6640588760375976,0.5976568222045898
0.6628887176513671,0.5838340759277344
0.6628887176513671,0.5838340759277344
0.6762422561645508,0.6005962371826171
0.6762422561645508,0.6005962371826171
0.6609683990478515,0.5901208877563476
0.6609683990478515,0.5901208877563476
0.6763223648071289,0.5937108993530273
0.6763223648071289,0.5937108993530273
0.6684751510620117,0.6043573379516601
0.6684751510620117,0.6043573379516601
0.6667030334472656,0.5904504776000976
0.6667030334472656,0.5904504776000976
0.6811712265014648,0.6076417922973633
0.6811712265014648,0.6076417922973633
0.6653743743896484,0.5971881866455078
0.6653743743896484,0.5971881866455078
0.6807128906250000,0.6007329940795898
0.6807128906250000,0.6007329940795898
0.6724445343017578,0.6113840103149414
0.6724445343017578,0.6113840103149414
0.6716680526733398,0.5976642608642578
0.6716680526733398,0.5976642608642578
0.6858221054077148,0.6148721694946289
0.6858221054077148,0.6148721694946289
0.6700819015502929,0.6044878005981446
0.6700819015502929,0.6044878005981446
0.6846393585205078,0.6078466415405274
0.6846393585205078,0.6078466415405274
0.6775194168090820,0.6189050674438477
0.6775194168090820,0.6189050674438477
0.6763561248779296,0.6050302505493164
0.6763561248779296,0.6050302505493164
0.6903167724609375,0.6219944000244141
0.6903167724609375,0.6219944000244141
0.6739156723022460,0.6116134643554687
0.6739156723022460,0.6116134643554687
0.6896873474121094,0.6152355194091796
0.6896873474121094,0.6152355194091796
0.6821044921875000,0.6259815216064453
0.6821044921875000,0.6259815216064453
0.6807163238525390,0.6121931076049805
0.6807163238525390,0.6121931076049805
0.6941385269165039,0.6289970397949218
0.6941385269165039,0.6289970397949218
0.6787410736083984,0.6186098098754883
0.6787410736083984,0.6186098098754883
0.6937419891357421,0.6213781356811523
0.6937419891357421,0.6213781356811523
0.6851943969726563,0.6304939270019531
0.6959741592407226,0.6304939270019531
0.6811340332031249,0.6127172470092773
0.6811340332031249,0.6127172470092773
0.6915315628051758,0.6223159790039062
0.6915315628051758,0.6223159790039062
0.6698907852172852,0.6022247314453125
0.6698907852172852,0.6022247314453125
0.6787399291992188,0.5956048965454102
0.6787399291992188,0.5956048965454102
0.6647930145263672,0.5977140426635742
0.6647930145263672,0.5977140426635742
0.6589960098266602,0.5764944076538085
0.6589960098266602,0.5764944076538085
0.6688556671142578,0.5870378494262695
0.6688556671142578,0.5870378494262695
0.6494562149047851,0.5713914871215821
0.6494562149047851,0.5713914871215821
0.6611967086791992,0.5698562622070312
0.6611967086791992,0.5698562622070312
0.6514005661010742,0.5771701812744140
0.6514005661010742,0.5771701812744140
0.6474357604980469,0.5592555999755859
0.6474357604980469,0.5592555999755859
0.6602457046508788,0.5734222412109374
0.6602457046508788,0.5734222412109374
0.6419368743896484,0.5616039276123047
0.6419368743896484,0.5616039276123047
0.6559026718139648,0.5617218017578125
0.6559026718139648,0.5617218017578125
0.6485509872436523,0.5715185165405273
0.6485509872436523,0.5715185165405273
0.6449953079223633,0.5560981750488281
0.6449953079223633,0.5560981750488281
0.6581480026245117,0.5713977813720703
0.6581480026245117,0.5713977813720703
0.6419837951660156,0.5616685867309570
0.6419837951660156,0.5616685867309570
0.6568742752075195,0.5635774612426757
0.6568742752075195,0.5635774612426757
0.6500902175903320,0.5748561859130860
0.6500902175903320,0.5748561859130860
0.6474798202514648,0.5607187271118164
0.6474798202514648,0.5607187271118164
0.6623136520385742,0.5777069091796875
0.6623136520385742,0.5777069091796875
0.6465373992919922,0.5682237625122070
0.6465373992919922,0.5682237625122070
0.6619503021240234,0.5712484359741211
0.6619503021240234,0.5712484359741211
0.6544429779052734,0.5824453353881835
0.6544429779052734,0.5824453353881835
0.6531074523925781,0.5687976837158203
0.6531074523925781,0.5687976837158203
0.6674938201904297,0.5854082107543945
0.6674938201904297,0.5854082107543945
0.6513027191162110,0.5754650115966796
0.6513027191162110,0.5754650115966796
0.6659568786621094,0.5783088684082031
0.6659568786621094,0.5783088684082031
0.6587602615356445,0.5888442993164062
0.6587602615356445,0.5888442993164062
0.6568405151367187,0.5743726730346680
0.6568405151367187,0.5743726730346680
0.6706466674804688,0.5904333114624023
0.6706466674804688,0.5904333114624023
0.6536293029785156,0.5796792984008788
0.6536293029785156,0.5796792984008788
0.6688922882080078,0.5818737030029296
0.6688922882080078,0.5818737030029296
0.6610467910766601,0.5920841217041015
0.6610467910766601,0.5920841217041015
0.6588289260864257,0.5774477005004882
0.6566047668457031,0.5774477005004882
0.6719781875610351,0.5932193756103515
0.6719781875610351,0.5932193756103515
0.6559759140014648,0.5826896667480469
0.6559759140014648,0.5826896667480469
0.6709997177124023,0.5852251052856445
0.6709997177124023,0.5852251052856445
0.6636137008666992,0.5959339141845703
0.6636137008666992,0.5959339141845703
0.6605735778808594,0.5811269760131835
0.6605735778808594,0.5811269760131835
0.6753187179565430,0.5972911834716796
0.6753187179565430,0.5972911834716796
0.6588581085205077,0.5874040603637695
0.6588581085205077,0.5874040603637695
0.6738452911376953,0.5896041870117187
0.6738452911376953,0.5896041870117187
0.6663368225097656,0.6006763458251952
0.6663368225097656,0.6006763458251952
0.6644376754760742,0.5863620758056640
0.6644376754760742,0.5863620758056640
0.6791067123413086,0.6028936386108398
0.6791067123413086,0.6028936386108398
0.6627124786376953,0.5930414199829102
0.6627124786376953,0.5930414199829102
0.6774198532104492,0.5957777023315429
0.6774198532104492,0.5957777023315429
0.6705568313598632,0.6068332672119140
0.6705568313598632,0.6068332672119140
0.6688138961791992,0.5929332733154297
0.6688138961791992,0.5929332733154297
0.6832826614379882,0.6094596862792968
0.6832826614379882,0.6094596862792968
0.6662338256835937,0.6001184463500976
0.6834280014038085,0.6001184463500976
0.6818492889404296,0.6020536422729492
0.6818492889404296,0.6020536422729492
0.6752643585205078,0.6136207580566406
0.6752643585205078,0.6136207580566406
0.6725177764892578,0.5993711471557617
0.6725177764892578,0.5993711471557617
0.6866958618164062,0.6155393600463867
0.6866958618164062,0.6155393600463867
0.6704675674438476,0.6063577651977539
0.6704675674438476,0.6063577651977539
0.6860149383544921,0.6087753295898437
0.6860149383544921,0.6087753295898437
0.6786237716674804,0.6198028564453125
0.6786237716674804,0.6198028564453125
0.6760723114013671,0.6055154800415039
0.6760723114013671,0.6055154800415039
0.6908454895019531,0.6218685150146485
0.6908454895019531,0.6218685150146485
0.6743734359741210,0.6117776870727539
0.6743734359741210,0.6117776870727539
0.6896181106567383,0.6145963668823242
0.6896181106567383,0.6145963668823242
0.6815259933471679,0.6252754211425781
0.6815259933471679,0.6252754211425781
0.6798963546752930,0.6111104965209960
0.6798963546752930,0.6111104965209960
0.6942592620849609,0.6272518157958984
0.6942592620849609,0.6272518157958984
0.6775554656982422,0.6169698715209960
0.6775554656982422,0.6169698715209960
0.6918291091918946,0.6186635971069335
0.6918291091918946,0.6186635971069335
0.6837930679321289,0.6275367736816406
0.6837930679321289,0.6275367736816406
0.6792108535766601,0.6089235305786133
0.6792108535766601,0.6089235305786133
0.6894321441650391,0.6179248809814453
0.6894321441650391,0.6179248809814453
0.6667116165161132,0.5988149642944336
0.6667116165161132,0.5988149642944336
0.6767326354980469,0.5926465988159180
0.6767326354980469,0.5926465988159180
0.6643198013305663,0.5958211898803710
0.6643198013305663,0.5958211898803710
0.6577194213867187,0.5747629165649414
0.6577194213867187,0.5747629165649414
0.6677227020263672,0.5849012374877930
0.6677227020263672,0.5849012374877930
0.6481430053710937,0.5699621200561523
0.6481430053710937,0.5699621200561523
0.6607343673706054,0.5683113098144531
0.6607343673706054,0.5683113098144531
0.6509977340698242,0.5755170822143555
0.6509977340698242,0.5755170822143555
0.6459228515625000,0.5574491500854492
0.6459228515625000,0.5574491500854492
0.6591196060180664,0.5709291458129883
0.6591196060180664,0.5709291458129883
0.6410551071166992,0.5596693038940429
0.6410551071166992,0.5596693038940429
0.6543920516967773,0.5593265533447266
0.6543920516967773,0.5593265533447266
0.6468601226806641,0.5691644668579101
0.6468601226806641,0.5691644668579101
0.6429044723510742,0.5530900955200195
0.6429044723510742,0.5530900955200195
0.6567890167236328,0.5678684234619140
0.6567890167236328,0.5678684234619140
0.6399238586425781,0.5586313247680664
0.6399238586425781,0.5586313247680664
0.6536573410034180,0.5595720291137695
0.6536573410034180,0.5595720291137695
0.6481201171875000,0.5709920883178711
0.6481201171875000,0.5709920883178711
0.6449472427368164,0.5564283370971680
0.6449472427368164,0.5564283370971680
0.6595739364624024,0.5726617813110352
0.6595739364624024,0.5726617813110352
0.6428741455078125,0.5644557952880859
0.6428741455078125,0.5644557952880859
0.6582939147949218,0.5662731170654297
0.6582939147949218,0.5662731170654297
0.6526353836059570,0.5782974243164062
0.6526353836059570,0.5782974243164062
0.6495546340942383,0.5639757156372071
0.6495546340942383,0.5639757156372071
0.6640451431274413,0.5801691055297852
0.6640451431274413,0.5801691055297852
0.6478197097778320,0.5714658737182617
0.6478197097778320,0.5714658737182617
0.6630455017089844,0.5731292724609375
0.6630455017089844,0.5731292724609375
0.6571203231811523,0.5850448608398438
0.6571203231811523,0.5850448608398438
0.6529684066772461,0.5700994491577148
0.6529684066772461,0.5700994491577148
0.6678588867187499,0.5855827331542969
0.6678588867187499,0.5855827331542969
0.6512792587280273,0.5768005371093750
0.6512792587280273,0.5768005371093750
0.6657291412353515,0.5778184890747070
0.6657291412353515,0.5778184890747070
0.6594194412231446,0.5891464233398437
0.6594194412231446,0.5891464233398437
0.6558803558349610,0.5742290496826171
0.6558803558349610,0.5742290496826171
0.6705350875854492,0.5896883010864258
0.6705350875854492,0.5896883010864258
0.6536327362060547,0.5805850982666015
0.6536327362060547,0.5805850982666015
0.6680437088012695,0.5821866989135742
0.6680437088012695,0.5821866989135742
0.6619949340820312,0.5933687210083007
0.6619949340820312,0.5933687210083007
0.6589399337768554,0.5786710739135742
0.6589399337768554,0.5786710739135742
0.6735443115234375,0.5945554733276367
0.6735443115234375,0.5945554733276367
0.6560817718505859,0.5849567413330078
0.6560817718505859,0.5849567413330078
0.6717962265014649,0.5871831893920898
0.6717962265014649,0.5871831893920898
0.6651306152343750,0.5985214233398437
0.6651306152343750,0.5985214233398437
0.6622158050537109,0.5840898513793945
0.6622158050537109,0.5840898513793945
0.6765060424804688,0.5998826980590820
0.6765060424804688,0.5998826980590820
0.6600917816162110,0.5905466079711914
0.6600917816162110,0.5905466079711914
0.6755315780639648,0.5929235458374024
0.6755315780639648,0.5929235458374024
0.6690547943115234,0.6044797897338867
0.6690547943115234,0.6044797897338867
0.6657028198242188,0.5901844024658203
0.6657028198242188,0.5901844024658203
0.6811019897460937,0.6062450408935547
0.6737565994262695,0.5897237777709960
0.6644313812255859,0.5971601486206054
0.6835281372070312,0.5971601486206054
0.6798208236694335,0.5997327804565430
0.6798208236694335,0.5997327804565430
0.6731397628784179,0.6113170623779297
0.6731397628784179,0.6113170623779297
0.6705917358398438,0.5970256805419921
0.6705917358398438,0.5970256805419921
0.6857254028320312,0.6130754470825195
0.6857254028320312,0.6130754470825195
0.6687068939208984,0.6045988082885742
0.6687068939208984,0.6045988082885742
0.6833089828491211,0.6062330245971680
0.6833089828491211,0.6062330245971680
0.6783313751220703,0.6183454513549804
0.6783313751220703,0.6183454513549804
0.6748947143554688,0.6036186218261719
0.6748947143554688,0.6036186218261719
0.6899894714355469,0.6199161529541015
0.6899894714355469,0.6199161529541015
0.6725452423095702,0.6113502502441406
0.6725452423095702,0.6113502502441406
0.6882345199584960,0.6132642745971679
0.6882345199584960,0.6132642745971679
0.6827522277832031,0.6253601074218750
0.6827522277832031,0.6253601074218750
0.6791501998901367,0.6106773376464844
0.6791501998901367,0.6106773376464844
0.6935028076171875,0.6264209747314453
0.6935028076171875,0.6264209747314453
0.6770313262939452,0.6181440353393555
0.6770313262939452,0.6181440353393555
0.6916265487670898,0.6187013626098633
0.6916265487670898,0.6187013626098633
0.6854724884033203,0.6285112380981445
0.6854724884033203,0.6285112380981445
0.6783697128295898,0.6092823028564452
0.6783697128295898,0.6092823028564452
0.6893108367919921,0.6172061920166015
0.6893108367919921,0.6172061920166015
0.6667688369750976,0.5995342254638671
0.6667688369750976,0.5995342254638671
0.6752700805664062,0.5913734436035156
0.6752700805664062,0.5913734436035156
0.6646293640136719,0.5950372695922851
0.6646293640136719,0.5950372695922851
0.6563970565795898,0.5734468460083008
0.6563970565795898,0.5734468460083008
0.6674268722534179,0.5829093933105468
0.6674268722534179,0.5829093933105468
0.6473150253295898,0.5700004577636718
0.6473150253295898,0.5700004577636718
0.6585983276367188,0.5665500640869140
0.6585983276367188,0.5665500640869140
0.6517295837402344,0.5746839523315429
0.6517295837402344,0.5746839523315429
0.6453340530395507,0.5565759658813476
0.6453340530395507,0.5565759658813476
0.6583871841430664,0.5690923690795898
0.6583871841430664,0.5690923690795898
0.6393207550048828,0.5585947036743164
0.6393207550048828,0.5585947036743164
0.6530593872070313,0.5575304031372070
0.6530593872070313,0.5575304031372070
0.6472034454345703,0.5676223754882812
0.6553779602050781,0.5676223754882812
0.6416833877563476,0.5513151168823242
0.6416833877563476,0.5513151168823242
0.6552457809448242,0.5653415679931640
0.6552457809448242,0.5653415679931640
0.6381740570068359,0.5564924240112304
0.6381740570068359,0.5564924240112304
0.6522216796875000,0.5567350387573242
0.6522216796875000,0.5567350387573242
0.6473922729492188,0.5683393478393555
0.6473922729492188,0.5683393478393555
0.6421583175659179,0.5534751892089843
0.6421583175659179,0.5534751892089843
0.6575471878051757,0.5687467575073242
0.6575471878051757,0.5687467575073242
0.6411924362182617,0.5610712051391601
0.6411924362182617,0.5610712051391601
0.6555828094482422,0.5621091842651367
0.6555828094482422,0.5621091842651367
0.6507408142089843,0.5740407943725586
0.6507408142089843,0.5740407943725586
0.6466529846191406,0.5593717575073242
0.6466529846191406,0.5593717575073242
0.6614719390869140,0.5746599197387695
0.6614719390869140,0.5746599197387695
0.6445873260498046,0.5666250228881836
0.6445873260498046,0.5666250228881836
0.6583448410034179,0.5670782089233398
0.6442050933837891,0.5670782089233398
0.6542644500732422,0.5785429000854492
0.6542644500732422,0.5785429000854492
0.6493274688720703,0.5633640289306641
0.6493274688720703,0.5633640289306641
0.6638780593872070,0.5780965805053710
0.6638780593872070,0.5780965805053710
0.6460149765014648,0.5695810317993164
0.6460149765014648,0.5695810317993164
0.6606136322021484,0.5698574066162109
0.6606136322021484,0.5698574066162109
0.6561355590820312,0.5810119628906250
0.6561355590820312,0.5810119628906250
0.6507436752319335,0.5657976150512695
0.6507436752319335,0.5657976150512695
0.6649526596069336,0.5804809570312500
0.6649526596069336,0.5804809570312500
0.6481927871704102,0.5722846984863281
0.6481927871704102,0.5722846984863281
0.6625797271728515,0.5728260040283203
0.6625797271728515,0.5728260040283203
0.6580541610717773,0.5845247268676758
0.6580541610717773,0.5845247268676758
0.6524654388427734,0.5693212509155273
0.6524654388427734,0.5693212509155273
0.6679000854492188,0.5845430374145507
0.6679000854492188,0.5845430374145507
0.6508998870849609,0.5768537521362305
0.6508998870849609,0.5768537521362305
0.6652061462402343,0.5774208068847656
0.6652061462402343,0.5774208068847656
0.6608608245849609,0.5894056320190429
0.6608608245849609,0.5894056320190429
0.6563346862792968,0.5747446060180664
0.6563346862792968,0.5747446060180664
0.6714031219482421,0.5901031494140625
0.6714031219482421,0.5901031494140625
0.6544624328613281,0.5826215744018555
0.6719530105590820,0.5826215744018555
0.6684425354003906,0.5833116531372070
0.6684425354003906,0.5833116531372070
0.6651025772094726,0.5955654144287109
0.6651025772094726,0.5955654144287109
0.6601152420043945,0.5808712005615234
0.6601152420043945,0.5808712005615234
0.6752632141113281,0.5962251663208008
0.6752632141113281,0.5962251663208008
0.6577280044555663,0.5884471893310547
0.6577280044555663,0.5884471893310547
0.6726316452026367,0.5894130706787110
0.6726316452026367,0.5894130706787110
0.6685398101806640,0.6014654159545898
0.6685398101806640,0.6014654159545898
0.6639604568481445,0.5868867874145508
0.6639604568481445,0.5868867874145508
0.6785957336425781,0.6024330139160156
0.6785957336425781,0.6024330139160156
0.6614645004272460,0.5935770034790039
0.6614645004272460,0.5935770034790039
0.6767377853393555,0.5950870513916016
0.6767377853393555,0.5950870513916016
0.6719198226928711,0.6069637298583984
0.6719198226928711,0.6069637298583984
0.6668752670288086,0.5922626495361328
0.6668752670288086,0.5922626495361328
0.6825233459472656,0.6076000213623046
0.6825233459472656,0.6076000213623046
0.6649675369262695,0.5988069534301758
0.6649675369262695,0.5988069534301758
0.6799198150634765,0.6001619338989258
0.6799198150634765,0.6001619338989258
0.6747230529785156,0.6119115829467773
0.6836826324462890,0.6119115829467773
0.6704452514648437,0.5971361160278320
0.6704452514648437,0.5971361160278320
0.6853666305541992,0.6118629455566406
0.6853666305541992,0.6118629455566406
0.6668678283691406,0.6014265060424805
0.6668678283691406,0.6014265060424805
0.6793928146362305,0.5990873336791992
0.6793928146362305,0.5990873336791992
0.6718545913696289,0.6050165176391601
0.6718545913696289,0.6050165176391601
0.6624813079833984,0.5829322814941406
0.6624813079833984,0.5829322814941406
0.6730625152587890,0.5910507202148437
0.6730625152587890,0.5910507202148437
0.6504283905029297,0.5754655838012696
0.6504283905029297,0.5754655838012696
0.6620384216308594,0.5705898284912109
0.6620384216308594,0.5705898284912109
0.6541402816772460,0.5770414352416992
0.6541402816772460,0.5770414352416992
0.6460607528686523,0.5573793411254883
0.6460607528686523,0.5573793411254883
0.6579139709472656,0.5682352066040038
0.6579139709472656,0.5682352066040038
0.6382661819458008,0.5556518554687500
0.6382661819458008,0.5556518554687500
0.6510698318481445,0.5536725997924804
0.6510698318481445,0.5536725997924804
0.6447950363159179,0.5626945495605469
0.6447950363159179,0.5626945495605469
0.6374238967895508,0.5452777862548828
0.6374238967895508,0.5452777862548828
0.6516809463500977,0.5583103179931640
0.6516809463500977,0.5583103179931640
0.6326620101928710,0.5476730346679687
0.6326620101928710,0.5476730346679687
0.6465122222900390,0.5472581863403320
0.6465122222900390,0.5472581863403320
0.6410539627075195,0.5604532241821288
0.6410539627075195,0.5604532241821288
0.6352317810058593,0.5419012069702148
0.6352317810058593,0.5419012069702148
0.6497669219970703,0.5559534072875977
0.6391605377197266,0.5559534072875977
0.6323101043701171,0.5480535507202148
0.6323101043701171,0.5480535507202148
0.6455846786499023,0.5480089187622070
0.6455846786499023,0.5480089187622070
0.6430126190185547,0.5603410720825195
0.6430126190185547,0.5603410720825195
0.6372344970703124,0.5457046508789062
0.6372344970703124,0.5457046508789062
0.6525203704833984,0.5607793807983398
0.6525203704833984,0.5607793807983398
0.6350229263305663,0.5536325454711913
0.6350229263305663,0.5536325454711913
0.6497177124023438,0.5541149139404297
0.6497177124023438,0.5541149139404297
0.6470718383789062,0.5665620803833008
0.6470718383789062,0.5665620803833008
0.6411214828491211,0.5519239425659179
0.6411214828491211,0.5519239425659179
0.6556245803833007,0.5665031433105469
0.6556245803833007,0.5665031433105469
0.6390678405761718,0.5589466094970703
0.6390678405761718,0.5589466094970703
0.6529609680175781,0.5588693618774414
0.6529609680175781,0.5588693618774414
0.6501245498657227,0.5709182739257812
0.6501245498657227,0.5709182739257812
0.6432363510131835,0.5555740356445312
0.6432363510131835,0.5555740356445312
0.6588060379028320,0.5700788497924805
0.6588060379028320,0.5700788497924805
0.6414676666259765,0.5622528076171874
0.6414676666259765,0.5622528076171874
0.6550706863403321,0.5618482589721679
0.6550706863403321,0.5618482589721679
0.6517278671264648,0.5737598419189452
0.6517278671264648,0.5737598419189452
0.6456842422485352,0.5586513519287110
0.6456842422485352,0.5586513519287110
0.6607749938964843,0.5729690551757812
0.6498807907104492,0.5729690551757812
0.6435298919677734,0.5653244018554687
0.6435298919677734,0.5653244018554687
0.6567518234252929,0.5648517608642578
0.6567518234252929,0.5648517608642578
0.6545900344848633,0.5772691726684570
0.6545900344848633,0.5772691726684570
0.6480497360229492,0.5622962951660156
0.6480497360229492,0.5622962951660156
0.6633499145507812,0.5768520355224609
0.6633499145507812,0.5768520355224609
0.6456808090209961,0.5695295333862305
0.6456808090209961,0.5695295333862305
0.6600448608398437,0.5695650100708007
0.6600448608398437,0.5695650100708007
0.6578613281250000,0.5820922851562500
0.6578613281250000,0.5820922851562500
0.6513027191162110,0.5674707412719726
0.6513027191162110,0.5674707412719726
0.6662298202514648,0.5821477890014648
0.6662298202514648,0.5821477890014648
0.6497657775878906,0.5753591537475585
0.6677518844604492,0.5753591537475585
0.6635335922241211,0.5752206802368164
0.6635335922241211,0.5752206802368164
0.6616579055786133,0.5879516601562500
0.6616579055786133,0.5879516601562500
0.6545619964599609,0.5732374191284180
0.6545619964599609,0.5732374191284180
0.6704898834228515,0.5882617950439453
0.6704898834228515,0.5882617950439453
0.6536922454833984,0.5814434051513672
0.6536922454833984,0.5814434051513672
0.6675252914428711,0.5815172195434570
0.6675252914428711,0.5815172195434570
0.6653944015502929,0.5943723678588867
0.6653944015502929,0.5943723678588867
0.6590400695800781,0.5798978805541992
0.6590400695800781,0.5798978805541992
0.6747585296630859,0.5948907852172851
0.6747585296630859,0.5948907852172851
0.6578830718994141,0.5880752563476562
0.6578830718994141,0.5880752563476562
0.6711021423339844,0.5878892898559570
0.6711021423339844,0.5878892898559570
0.6700979232788086,0.6010059356689453
0.6700979232788086,0.6010059356689453
0.6632080078125000,0.5864152908325195
0.6632080078125000,0.5864152908325195
0.6690170288085937,0.5869577407836913
0.6690170288085937,0.5869577407836913
0.6690170288085937,0.5885341644287109
0.6778158187866211,0.6055549621582031
0.6749061584472656,0.6055549621582031
0.6636137008666992,0.5903337478637695
0.6750457763671874,0.5903337478637695
0.6798145294189453,0.6005321502685547
0.6643135070800781,0.6005321502685547
0.6660913467407227,0.6001682281494141
0.6798357009887696,0.6001682281494141
0.6668569564819335,0.5838901519775390
0.6564783096313477,0.5838901519775390
0.6714334487915039,0.5935535430908203
0.6656782150268554,0.5935535430908203
0.6519052505493164,0.5716014862060547
0.6610857009887695,0.5716014862060547
0.6640623092651367,0.5737232208251953
0.6467634201049804,0.5737232208251953
0.6477264404296875,0.5708953857421875
0.6607612609863281,0.5708953857421875
0.6480995178222656,0.5544336318969726
0.6383296966552734,0.5544336318969726
0.6538478851318359,0.5674272537231445
0.6491603851318359,0.5674272537231445
0.6365833282470703,0.5471815109252930
0.6469493865966797,0.5471815109252930
0.6506618499755860,0.5536365509033203
0.6345422744750976,0.5536365509033203
0.6367132186889648,0.5541114807128906
0.6506956100463867,0.5541114807128906
0.6385574340820312,0.5412128448486327
0.6297655105590820,0.5412128448486327
0.6460458755493164,0.5550464630126953
0.6420593261718750,0.5550464630126953
0.6302192687988281,0.5380422592163085
0.6414339065551757,0.5380422592163085
0.6458507537841797,0.5467054367065429
0.6303291320800781,0.5467054367065429
0.6329080581665039,0.5498554229736328
0.6474935531616210,0.5498554229736328
0.6359315872192383,0.5371833801269531
0.6278160095214843,0.5371833801269531
0.6444986343383788,0.5535512924194336
0.6410161972045898,0.5535512924194336
0.6298570632934570,0.5380783081054688
0.6416072845458984,0.5380783081054688
0.6463663101196289,0.5490440368652344
0.6315502166748047,0.5490440368652344
0.6346515655517578,0.5523096084594726
0.6497177124023438,0.5523096084594726
0.6384241104125976,0.5416391372680663
0.6308778762817383,0.5416391372680663
0.6483667373657226,0.5593740463256835
0.6449769973754883,0.5593740463256835
0.6340295791625976,0.5456886291503906
0.6461980819702148,0.5456886291503906
0.6509931564331054,0.5556427001953125
0.6362720489501953,0.5556427001953125
0.6396045684814453,0.5599851608276367
0.6544538497924804,0.5599851608276367
0.6434944152832031,0.5492666244506835
0.6357536315917969,0.5492666244506835
0.6530937194824219,0.5673482894897460
0.6494064331054688,0.5673482894897460
0.6383394241333008,0.5515651702880859
0.6503808975219726,0.5515651702880859
0.6548269271850585,0.5616262435913085
0.6399879455566406,0.5616262435913085
0.6433187484741211,0.5653507232666015
0.6580364227294921,0.5653507232666015
0.6462713241577148,0.5547214508056640
0.6385625839233399,0.5547214508056640
0.6556303024291992,0.5705045700073242
0.6516712188720702,0.5705045700073242
0.6405733108520507,0.5550493240356446
0.6524213790893555,0.5550493240356446
0.6569515228271484,0.5647499084472656
0.6417228698730468,0.5647499084472656
0.6452636718750000,0.5690586090087890
0.6596511840820313,0.5690586090087890
0.6479433059692382,0.5565370559692383
0.6403369903564453,0.5565370559692383
0.6572925567626953,0.5733507156372070
0.6534124374389648,0.5733507156372070
0.6426910400390625,0.5580614089965820
0.6546031951904296,0.5580614089965820
0.6588878631591797,0.5686901092529296
0.6439716339111328,0.5686901092529296
0.6475513458251952,0.5717205047607422
0.6619319915771484,0.5717205047607422
0.6500106811523437,0.5602540969848633
0.6425605773925781,0.5602540969848633
0.6600059509277344,0.5772314071655273
0.6560211181640625,0.5772314071655273
0.6451017379760742,0.5630693435668945
0.6574350357055664,0.5630693435668945
0.6616424560546875,0.5722017288208008
0.6467914581298828,0.5722017288208008
0.6505891799926757,0.5766185760498047
0.6649990081787109,0.5766185760498047
0.6536035537719727,0.5652276992797851
0.6462106704711914,0.5652276992797851
0.6632978439331054,0.5832750320434570
0.6594205856323242,0.5832750320434570
0.6487066268920898,0.5676807403564453
0.6611394882202148,0.5676807403564453
0.6652490615844726,0.5781211853027344
0.6500312805175781,0.5781211853027344
0.6548423767089844,0.5826192855834961
0.6688110351562500,0.5826192855834961
0.6572095870971679,0.5719041824340820
0.6500736236572265,0.5719041824340820
0.6672300338745117,0.5882080078124999
0.6631668090820312,0.5882080078124999
0.6525512695312500,0.5733999252319336
0.6647661209106445,0.5733999252319336
0.6690090179443359,0.5836463928222656
0.6544223785400390,0.5836463928222656
0.6584369659423828,0.5891590118408203
0.6727329254150390,0.5891590118408203
0.6610639572143554,0.5768331527709961
0.6539566040039062,0.5768331527709961
0.6709367752075195,0.5941761016845702
0.6669370651245117,0.5941761016845702
0.6566671371459961,0.5795476913452148
0.6690238952636719,0.5795476913452148
0.6729400634765624,0.5905763626098632
0.6582195281982421,0.5905763626098632
0.6624790191650390,0.5945205688476562
0.6766960144042968,0.5945205688476562
0.6649944305419921,0.5829820632934570
0.6581789016723633,0.5829820632934570
0.6754325866699219,0.6005264282226562
0.6710878372192383,0.6005264282226562
0.6606227874755859,0.5866224288940429
0.6731288909912109,0.5866224288940429
0.6768127441406250,0.5956335067749023
0.6620887756347656,0.5956335067749023
0.6663110733032226,0.6004978179931640
0.6803157806396484,0.6004978179931640
0.6686656951904296,0.5883911132812499
0.6616493225097656,0.5883911132812499
0.6782014846801757,0.6054742813110351
0.6731620788574219,0.6054742813110351
0.6620498657226562,0.5871477127075195
0.6732135772705078,0.5871477127075195
0.6750680923461914,0.5919198989868164
0.6587316513061523,0.5919198989868164
0.6608768463134765,0.5897449493408203
0.6740192413330078,0.5897449493408203
0.6576066970825195,0.5707500457763671
0.6516574859619141,0.5707500457763671
0.6639038085937500,0.5798143386840821
0.6595693588256836,0.5798143386840821
0.6436162948608398,0.5690277099609374
0.6461957931518555,0.5690277099609374
0.6555850982666015,0.5647504806518554
0.6427082061767578,0.5647504806518554
0.6446697235107421,0.5655292510986328
0.6558860778808594,0.5655292510986328
0.6433176040649414,0.5492843627929688
0.6364580154418945,0.5492843627929688
0.6510875701904296,0.5622636795043945
0.6457586288452148,0.5622636795043945
0.6354108810424804,0.5457979202270508
0.6460847854614258,0.5457979202270508
0.6485567092895508,0.5531003952026367
0.6344902038574218,0.5531003952026367
0.6380006790161132,0.5554321289062499
0.6500318527221679,0.5554321289062499
0.6384527206420898,0.5425506591796875
0.6320606231689453,0.5425506591796875
0.6478895187377930,0.5574319839477538
0.6430892944335938,0.5574319839477538
0.6331186294555664,0.5438129425048828
0.6444293975830078,0.5438129425048828
0.6474649429321289,0.5510559082031250
0.6338893890380859,0.5510559082031250
0.6381317138671875,0.5559768676757812
0.6506280899047852,0.5559768676757812
0.6397407531738281,0.5445808410644531
0.6340021133422852,0.5445808410644531
0.6496141433715820,0.5616382598876953
0.6454799652099609,0.5616382598876953
0.6359539031982422,0.5477502822875976
0.6475639343261719,0.5477502822875976
0.6506069183349609,0.5564580917358398
0.6374879837036133,0.5564580917358398
0.6423328399658202,0.5620811462402343
0.6545534133911133,0.5620811462402343
0.6435544967651367,0.5514455795288086
0.6380207061767578,0.5514455795288086
0.6536813735961914,0.5667806625366211
0.6492364883422851,0.5667806625366211
0.6397344589233398,0.5533355712890625
0.6510326385498046,0.5533355712890625
0.6541271209716797,0.5615959167480469
0.6408370971679688,0.5615959167480469
0.6453546524047852,0.5673780441284180
0.6573509216308594,0.5673780441284180
0.6461374282836914,0.5545635223388672
0.6404170989990234,0.5545635223388672
0.6556131362915039,0.5701051712036133
0.6510732650756835,0.5701051712036133
0.6416885375976562,0.5563402175903320
0.6528213500976562,0.5563402175903320
0.6556543350219727,0.5648271560668945
0.6423643112182617,0.5648271560668945
0.6469121932983398,0.5690368652343750
0.6588249206542969,0.5690368652343750
0.6475502014160156,0.5568780899047852
0.6419254302978515,0.5568780899047852
0.6573400497436523,0.5724225997924804
0.6528236389160156,0.5724225997924804
0.6432197570800781,0.5596389770507812
0.6545042037963867,0.5596389770507812
0.6571649551391602,0.5665924072265625
0.6440666198730468,0.5665924072265625
0.6485944747924804,0.5717788696289062
0.6603818893432617,0.5717788696289062
0.6493246078491210,0.5596801757812500
0.6438108444213867,0.5596801757812500
0.6592008590698242,0.5762151718139649
0.6545986175537110,0.5762151718139649
0.6449798583984375,0.5617641448974610
0.6563787460327148,0.5617641448974610
0.6589965820312500,0.5694648742675781
0.6458192825317383,0.5694648742675781
0.6505937576293945,0.5748641967773437
0.6624320983886719,0.5748641967773437
0.6510423660278321,0.5635065078735352
0.6457157135009766,0.5635065078735352
0.6610193252563477,0.5783998489379882
0.6561395645141601,0.5783998489379882
0.6466094970703125,0.5648649215698242
0.6579917907714844,0.5648649215698242
0.6607675552368164,0.5724088668823242
0.6473590850830078,0.5724088668823242
0.6522691726684570,0.5786584854125977
0.6639398574829102,0.5786584854125977
0.6527000427246094,0.5654726028442383
0.6472469329833984,0.5654726028442383
0.6625774383544921,0.5811876296997071
0.6576976776123047,0.5811876296997071
0.6485263824462890,0.5676670074462891
0.6597587585449218,0.5676670074462891
0.6623170852661132,0.5758867263793945
0.6490825653076172,0.5758867263793945
0.6541625976562500,0.5808757781982422
0.6658739089965821,0.5808757781982422
0.6545145034790039,0.5685052871704102
0.6492668151855469,0.5685052871704102
0.6650070190429688,0.5845727920532227
0.6600511550903320,0.5845727920532227
0.6508106231689453,0.5720340728759765
0.6625654220581054,0.5720340728759765
0.6649835586547851,0.5788770675659179
0.6517353057861328,0.5788770675659179
0.6569063186645507,0.5850082397460937
0.6689380645751953,0.5850082397460937
0.6577589035034179,0.5727933883666992
0.6524740219116211,0.5727933883666992
0.6681037902832031,0.5898359298706054
0.6631565093994141,0.5898359298706054
0.6539377212524414,0.5758346557617188
0.6658275604248046,0.5758346557617188
0.6680328369140625,0.5834775924682617
0.6546054840087890,0.5834775924682617
0.6603881835937500,0.5898891448974609
0.6721481323242188,0.5898891448974609
0.6606056213378906,0.5782310485839843
0.6555353164672851,0.5782310485839843
0.6712623596191406,0.5938413619995117
0.6661411285400390,0.5938413619995117
0.6568416595458985,0.5805107116699219
0.6688138961791992,0.5805107116699219
0.6706815719604492,0.5870681762695312
0.6566047668457031,0.5870681762695312
0.6615343093872070,0.5920463562011719
0.6724210739135742,0.5920463562011719
0.6595561981201171,0.5748699188232421
0.6530067443847656,0.5748699188232421
0.6669204711914062,0.5862676620483398
0.6597742080688477,0.5862676620483398
0.6493240356445312,0.5677127838134766
0.6594200134277344,0.5677127838134766
0.6596694946289062,0.5704908370971680
0.6445867538452148,0.5704908370971680
0.6487209320068359,0.5713937759399413
0.6587448120117188,0.5713937759399413
0.6459892272949218,0.5543157577514648
0.6397190093994141,0.5543157577514648
0.6542066574096680,0.5670238494873047
0.6475341796874999,0.5670238494873047
0.6375909805297851,0.5511823654174804
0.6490127563476562,0.5511823654174804
0.6495563507080078,0.5548215866088867
0.6349359512329101,0.5548215866088867
0.6397882461547851,0.5589128494262695
0.6512712478637696,0.5589128494262695
0.6337560653686524,0.5511703491210938
0.6337560653686524,0.5511703491210938
0.6434045791625976,0.5460496902465820
0.6434045791625976,0.5460496902465820
0.6433582305908203,0.5592384338378906
0.6433582305908203,0.5592384338378906
0.6340753555297851,0.5423881530761718
0.6340753555297851,0.5423881530761718
0.6490602493286133,0.5562955856323242
0.6361387252807617,0.5562955856323242
0.6335529327392578,0.5513809204101562
0.6335529327392578,0.5513809204101562
0.6436460494995117,0.5474069595336913
0.6436460494995117,0.5474069595336913
0.6454330444335937,0.5622556686401367
0.6454330444335937,0.5622556686401367
0.6365415573120117,0.5467494964599610
0.6365415573120117,0.5467494964599610
0.6523973464965820,0.5616262435913085
0.6523973464965820,0.5616262435913085
0.6368654251098632,0.5574485778808593
0.6368654251098632,0.5574485778808593
0.6481550216674804,0.5538986206054687
0.6481550216674804,0.5538986206054687
0.6497560501098633,0.5687793731689453
0.6524957656860352,0.5687793731689453
0.6405624389648438,0.5529808044433594
0.6405624389648438,0.5529808044433594
0.6558952331542969,0.5673276901245117
0.6558952331542969,0.5673276901245117
0.6407999038696289,0.5630161285400390
0.6407999038696289,0.5630161285400390
0.6514205932617188,0.5587692260742188
0.6514205932617188,0.5587692260742188
0.6527114868164062,0.5732528686523437
0.6527114868164062,0.5732528686523437
0.6425371170043945,0.5566194534301757
0.6425371170043945,0.5566194534301757
0.6587614059448242,0.5703752517700195
0.6458175659179687,0.5703752517700195
0.6429336547851562,0.5666038513183593
0.6429336547851562,0.5666038513183593
0.6524168014526367,0.5609424591064452
0.6524168014526367,0.5609424591064452
0.6538862228393555,0.5750988006591796
0.6538862228393555,0.5750988006591796
0.6442502975463867,0.5589649200439453
0.6442502975463867,0.5589649200439453
0.6594686508178711,0.5721382141113281
0.6594686508178711,0.5721382141113281
0.6447515487670898,0.5688348770141601
0.6447515487670898,0.5688348770141601
0.6533803939819336,0.5634670257568359
0.6533803939819336,0.5634670257568359
0.6560565948486328,0.5777801513671875
0.6560565948486328,0.5777801513671875
0.6461534500122070,0.5617910385131836
0.6461534500122070,0.5617910385131836
0.6615428924560547,0.5750833511352539
0.6615428924560547,0.5750833511352539
0.6464412689208984,0.5721839904785156
0.6464412689208984,0.5721839904785156
0.6560995101928710,0.5670450210571288
0.6560995101928710,0.5670450210571288
0.6584936141967773,0.5816734313964843
0.6584936141967773,0.5816734313964843
0.6487632751464844,0.5653158187866211
0.6487632751464844,0.5653158187866211
0.6637636184692383,0.5795265197753906
0.6637636184692383,0.5795265197753906
0.6480892181396484,0.5767181396484374
0.6480892181396484,0.5767181396484374
0.6596574783325195,0.5713096618652344
0.6596574783325195,0.5713096618652344
0.6618925094604492,0.5861675262451171
0.6618925094604492,0.5861675262451171
0.6514474868774414,0.5708284378051758
0.6514474868774414,0.5708284378051758
0.6673856735229492,0.5844280242919921
0.6673856735229492,0.5844280242919921
0.6522577285766601,0.5812780380249023
0.6519521713256836,0.5766763687133789
0.6642545700073242,0.5911119461059570
0.6642545700073242,0.5911119461059570
0.6549854278564453,0.5753517150878906
0.6549854278564453,0.5753517150878906
0.6708372116088867,0.5893260955810546
0.6708372116088867,0.5893260955810546
0.6557092666625977,0.5867431640624999
0.6557092666625977,0.5867431640624999
0.6656610488891601,0.5819171905517578
0.6656610488891601,0.5819171905517578
0.6683258056640625,0.5966949462890625
0.6683258056640625,0.5966949462890625
0.6586858749389648,0.5809553146362304
0.6586858749389648,0.5809553146362304
0.6743499755859375,0.5950635910034180
0.6743499755859375,0.5950635910034180
0.6588020324707031,0.5924194335937499
0.6588020324707031,0.5924194335937499
0.6697900772094726,0.5875402450561523
0.6697900772094726,0.5875402450561523
0.6718631744384765,0.6022510528564453
0.6718631744384765,0.6022510528564453
0.6620161056518554,0.5860422134399413
0.6620161056518554,0.5860422134399413
0.6769203186035156,0.5991725921630859
0.6769203186035156,0.5991725921630859
0.6610645294189453,0.5947980880737305
0.6610645294189453,0.5947980880737305
0.6693431854248046,0.5860330581665039
0.6693431854248046,0.5860330581665039
0.6681896209716797,0.5953050613403320
0.6681896209716797,0.5953050613403320
0.6538770675659179,0.5730754852294921
0.6538770675659179,0.5730754852294921
0.6658315658569336,0.5806005477905273
0.6658315658569336,0.5806005477905273
0.6469047546386718,0.5727705001831055
0.6469047546386718,0.5727705001831055
0.6539005279541016,0.5624444961547851
0.6539005279541016,0.5624444961547851
0.6527257919311523,0.5726766586303711
0.6527257919311523,0.5726766586303711
0.6406110763549805,0.5526826858520507
0.6406110763549805,0.5526826858520507
0.6540195465087890,0.5632146835327149
0.6540195465087890,0.5632146835327149
0.6370576858520508,0.5584150314331054
0.6370576858520508,0.5584150314331054
0.6452785491943359,0.5504785537719726
0.6452785491943359,0.5504785537719726
0.6468269348144531,0.5633651733398437
0.6468269348144531,0.5633651733398437
0.6356924057006835,0.5458740234375000
0.6356924057006835,0.5458740234375000
0.6505537033081055,0.5582965850830078
0.6505537033081055,0.5582965850830078
0.6343597412109375,0.5555013656616211
0.6343597412109375,0.5555013656616211
0.6445884704589844,0.5492654800415039
0.6445884704589844,0.5492654800415039
0.6469013214111328,0.5639087677001953
0.6469013214111328,0.5639087677001953
0.6366250991821288,0.5480192184448242
0.6366250991821288,0.5480192184448242
0.6522382736206055,0.5616840362548828
0.6522382736206055,0.5616840362548828
0.6376607894897460,0.5604154586791992
0.6376607894897460,0.5604154586791992
0.6482276916503906,0.5549623489379882
0.6388303756713867,0.5549623489379882
0.6514314651489258,0.5703718185424804
0.6514314651489258,0.5703718185424804
0.6404760360717773,0.5548221588134765
0.6404760360717773,0.5548221588134765
0.6569051742553711,0.5680738449096679
0.6569051742553711,0.5680738449096679
0.6426475524902343,0.5675285339355468
0.6426475524902343,0.5675285339355468
0.6516838073730469,0.5609424591064452
0.6516838073730469,0.5609424591064452
0.6545848846435547,0.5757110595703124
0.6545848846435547,0.5757110595703124
0.6442050933837891,0.5599382400512695
0.6442050933837891,0.5599382400512695
0.6596448898315429,0.5721839904785156
0.6596448898315429,0.5721839904785156
0.6450576782226562,0.5713256835937500
0.6450576782226562,0.5713256835937500
0.6530794143676758,0.5637462615966796
0.6530794143676758,0.5637462615966796
0.6567558288574219,0.5781749725341797
0.6567558288574219,0.5781749725341797
0.6454416275024414,0.5619609832763671
0.6454416275024414,0.5619609832763671
0.6607315063476562,0.5741128921508789
0.6607315063476562,0.5741128921508789
0.6456121444702149,0.5731487274169922
0.6456121444702149,0.5731487274169922
0.6549304962158203,0.5656877517700195
0.6454685211181640,0.5656877517700195
0.6576948165893555,0.5802028656005859
0.6576948165893555,0.5802028656005859
0.6467622756958008,0.5638063430786132
0.6467622756958008,0.5638063430786132
0.6619686126708985,0.5766683578491211
0.6619686126708985,0.5766683578491211
0.6470769882202149,0.5755908966064452
0.6470769882202149,0.5755908966064452
0.6570625305175781,0.5687376022338867
0.6570625305175781,0.5687376022338867
0.6598760604858398,0.5836006164550781
0.6598760604858398,0.5836006164550781
0.6485950469970703,0.5671600341796875
0.6485950469970703,0.5671600341796875
0.6649435043334960,0.5804025650024414
0.6649435043334960,0.5804025650024414
0.6498132705688476,0.5796844482421875
0.6498132705688476,0.5796844482421875
0.6595058441162109,0.5726806640625000
0.6595058441162109,0.5726806640625000
0.6627531051635742,0.5877799987792969
0.6627531051635742,0.5877799987792969
0.6520059585571288,0.5723939895629883
0.6520059585571288,0.5723939895629883
0.6676677703857422,0.5846723556518555
0.6676677703857422,0.5846723556518555
0.6534650802612304,0.5847747802734374
0.6534650802612304,0.5847747802734374
0.6617488861083984,0.5774860382080078
0.6617488861083984,0.5774860382080078
0.6661874771118164,0.5926420211791992
0.6661874771118164,0.5926420211791992
0.6552114486694336,0.5774002075195312
0.6552114486694336,0.5774002075195312
0.6708560943603515,0.5895401000976562
0.6708560943603515,0.5895401000976562
0.6563432693481445,0.5899063110351562
0.6563432693481445,0.5899063110351562
0.6654544830322265,0.5824115753173827
0.6654544830322265,0.5824115753173827
0.6696018218994141,0.5977586746215821
0.6696018218994141,0.5977586746215821
0.6582801818847656,0.5824911117553710
0.6582801818847656,0.5824911117553710
0.6738115310668945,0.5946893692016602
0.6738115310668945,0.5946893692016602
0.6601129531860351,0.5952421188354492
0.6601129531860351,0.5952421188354492
0.6688928604125977,0.5876506805419922
0.6598789215087890,0.5876506805419922
0.6731088638305663,0.6030544281005860
0.6731088638305663,0.6030544281005860
0.6612253189086914,0.5876003265380859
0.6612253189086914,0.5876003265380859
0.6772968292236328,0.5993883132934570
0.6772968292236328,0.5993883132934570
0.6629493713378906,0.5995811462402344
0.6629493713378906,0.5995811462402344
0.6707559585571289,0.5903537750244140
0.6707559585571289,0.5903537750244140
0.6727535247802734,0.6021869659423827
0.6727535247802734,0.6021869659423827
0.6585639953613281,0.5817953109741211
0.6585639953613281,0.5817953109741211
0.6703725814819336,0.5873800277709961
0.6703725814819336,0.5873800277709961
0.6520957946777344,0.5819120407104492
0.6520957946777344,0.5819120407104492
0.6563220977783203,0.5681522369384765
0.6563220977783203,0.5681522369384765
0.6576078414916992,0.5780548095703125
0.6576078414916992,0.5780548095703125
0.6427997589111328,0.5580774307250976
0.6427997589111328,0.5580774307250976
0.6558322906494141,0.5656837463378906
0.6558322906494141,0.5656837463378906
0.6389556884765625,0.5628347396850586
0.6389556884765625,0.5628347396850586
0.6457443237304688,0.5518512725830078
0.6457443237304688,0.5518512725830078
0.6485177993774414,0.5644460678100586
0.6485177993774414,0.5644460678100586
0.6354240417480469,0.5474361419677735
0.6354240417480469,0.5474361419677735
0.6494573593139649,0.5569456100463867
0.6494573593139649,0.5569456100463867
0.6350206375122071,0.5567253112792968
0.6350206375122071,0.5567253112792968
0.6425725936889648,0.5474475860595703
0.6425725936889648,0.5474475860595703
0.6465459823608398,0.5621572494506836
0.6465459823608398,0.5621572494506836
0.6341806411743164,0.5466087341308593
0.6341806411743164,0.5466087341308593
0.6500879287719726,0.5577312469482422
0.6500879287719726,0.5577312469482422
0.6363470077514648,0.5590227127075195
0.6363470077514648,0.5590227127075195
0.6447755813598632,0.5511995315551758
0.6447755813598632,0.5511995315551758
0.6492422103881835,0.5668510437011719
0.6492422103881835,0.5668510437011719
0.6380945205688476,0.5522907257080077
0.6380945205688476,0.5522907257080077
0.6541219711303711,0.5637050628662109
0.6415323257446289,0.5637050628662109
0.6403976440429687,0.5654497146606445
0.6403976440429687,0.5654497146606445
0.6483787536621094,0.5572265625000000
0.6483787536621094,0.5572265625000000
0.6535732269287109,0.5727069854736327
0.6535732269287109,0.5727069854736327
0.6416587829589844,0.5576288223266601
0.6416587829589844,0.5576288223266601
0.6451652526855468,0.5583440780639648
0.6451652526855468,0.5583440780639648
0.6578556060791015,0.5730211257934570
0.6502115249633789,0.5730211257934570
0.6427368164062500,0.5637451171875000
0.6566791534423828,0.5637451171875000
0.6554901123046875,0.5654211044311523
0.6418790817260742,0.5654211044311523
0.6493635177612305,0.5744035720825195
0.6584770202636718,0.5744035720825195
0.6459405899047851,0.5598215103149414
0.6436294555664063,0.5598215103149414
0.6588289260864257,0.5742078781127929
0.6510452270507813,0.5742078781127929
0.6434577941894531,0.5660785675048828
0.6576679229736327,0.5660785675048828
0.6564279556274414,0.5659778594970702
0.6427030563354492,0.5659778594970702
0.6502613067626953,0.5760297775268555
0.6594915390014648,0.5760297775268555
0.6470266342163086,0.5617338180541992
0.6448762893676757,0.5617338180541992
0.6600734710693359,0.5770603179931640
0.6524505615234375,0.5770603179931640
0.6445175170898437,0.5678163528442383
0.6585886001586914,0.5678163528442383
0.6580535888671875,0.5686288833618164
0.6443367004394531,0.5686288833618164
0.6524173736572265,0.5789205551147460
0.6615463256835937,0.5789205551147460
0.6489973068237305,0.5657054901123046
0.6472801208496094,0.5657054901123046
0.6623743057250976,0.5794944763183594
0.6541791915893554,0.5794944763183594
0.6467182159423828,0.5710052490234375
0.6622415542602539,0.5710052490234375
0.6606863021850585,0.5723453521728515
0.6464624404907227,0.5723453521728515
0.6544887542724609,0.5835874557495117
0.6641075134277343,0.5835874557495117
0.6517032623291016,0.5689744949340820
0.6500581741333008,0.5689744949340820
0.6651014328002930,0.5838157653808593
0.6560062408447266,0.5838157653808593
0.6495094299316406,0.5748235702514648
0.6662984848022461,0.5748235702514648
0.6634712219238281,0.5774763107299804
0.6484188079833985,0.5774763107299804
0.6569898605346679,0.5869554519653321
0.6669965744018554,0.5869554519653321
0.6541088104248046,0.5731933593749999
0.6528070449829101,0.5731933593749999
0.6680316925048828,0.5880500793457031
0.6584907531738281,0.5880500793457031
0.6520986557006836,0.5799676895141601
0.6691972732543945,0.5799676895141601
0.6661376953125000,0.5808597564697265
0.6510841369628906,0.5808597564697265
0.6598989486694335,0.5913522720336913
0.6696332931518555,0.5913522720336913
0.6571689605712890,0.5775798797607422
0.6560892105102539,0.5775798797607422
0.6707656860351562,0.5931673049926758
0.6612504959106446,0.5931673049926758
0.6551136016845703,0.5838232040405273
0.6722019195556640,0.5838232040405273
0.6688396453857421,0.5853567123413086
0.6541116714477538,0.5853567123413086
0.6630489349365234,0.5957565307617188
0.6723426818847656,0.5957565307617188
0.6597816467285156,0.5823989868164062
0.6587779998779296,0.5823989868164062
0.6727775573730469,0.5951425552368164
0.6627702713012695,0.5951425552368164
0.6557968139648437,0.5844343185424804
0.6716279983520508,0.5844343185424804
0.6672597885131836,0.5819103240966796
0.6508180618286132,0.5819103240966796
0.6580312728881835,0.5878601074218750
0.6653818130493164,0.5878601074218750
0.6508054733276367,0.5672418594360351
0.6481195449829101,0.5672418594360351
0.6604419708251953,0.5755668640136719
0.6488187789916992,0.5755668640136719
0.6410848617553710,0.5615175247192382
0.6562425613403320,0.5615175247192382
0.6512838363647461,0.5584196090698242
0.6351579666137696,0.5584196090698242
0.6426458358764648,0.5636020660400390
0.6503339767456054,0.5636020660400390
0.6364717483520508,0.5456560134887695
0.6347105026245117,0.5456560134887695
0.6477149963378906,0.5565010070800781
0.6369358062744140,0.5565010070800781
0.6296825408935547,0.5459014892578125
0.6460206985473632,0.5459014892578125
0.6417303085327148,0.5437505722045898
0.6264284133911132,0.5437505722045898
0.6347637176513672,0.5524394989013671
0.6430223464965820,0.5524394989013671
0.6303045272827148,0.5367370605468750
0.6293071746826172,0.5367370605468750
0.6429039001464844,0.5504699707031250
0.6326162338256835,0.5504699707031250
0.6258710861206055,0.5402658462524413
0.6430263519287109,0.5402658462524413
0.6390987396240234,0.5404552459716797
0.6243867874145508,0.5404552459716797
0.6336450576782227,0.5505992889404296
0.6422109603881836,0.5505992889404296
0.6294450759887695,0.5371839523315429
0.6293363571166992,0.5371839523315429
0.6432168960571288,0.5506004333496094
0.6331912994384765,0.5506004333496094
0.6270320892333984,0.5426702499389648
0.6447916030883789,0.5426702499389648
0.6412221908569335,0.5441099166870117
0.6269891738891601,0.5441099166870117
0.6365112304687500,0.5561548233032226
0.6453683853149413,0.5561548233032226
0.6327838897705078,0.5418004989624023
0.6330007553100586,0.5418004989624023
0.6468955993652343,0.5563413619995117
0.6369277954101562,0.5563413619995117
0.6310306549072265,0.5484752655029297
0.6485853195190430,0.5484752655029297
0.6447263717651367,0.5502948760986328
0.6305540084838867,0.5502948760986328
0.6400909423828125,0.5604457855224609
0.6483592987060547,0.5604457855224609
0.6355808258056640,0.5462739944458007
0.6357439041137695,0.5462739944458007
0.6495574951171875,0.5600938796997070
0.6390941619873046,0.5600938796997070
0.6329784393310547,0.5525968551635742
0.6504392623901367,0.5525968551635742
0.6462398529052734,0.5520223617553711
0.6320966720581055,0.5520223617553711
0.6415088653564452,0.5625223159790039
0.6496324539184570,0.5625223159790039
0.6368305206298828,0.5480157852172851
0.6371246337890625,0.5480157852172851
0.6503831863403320,0.5623157501220702
0.6399719238281250,0.5623157501220702
0.6337635040283203,0.5532194137573242
0.6513027191162110,0.5532194137573242
0.6469997406005860,0.5534626007080078
0.6329051971435546,0.5534626007080078
0.6427419662475585,0.5643236160278320
0.6507139205932617,0.5643236160278320
0.6378387451171875,0.5508035659790039
0.6382650375366211,0.5508035659790039
0.6516717910766602,0.5637016296386719
0.6412359237670898,0.5637016296386719
0.6352884292602539,0.5556987762451172
0.6529523849487304,0.5556987762451172
0.6486923217773437,0.5562063217163086
0.6347791671752929,0.5562063217163086
0.6447246551513671,0.5680543899536132
0.6527561187744141,0.5680543899536132
0.6398025512695312,0.5531787872314453
0.6404983520507812,0.5531787872314453
0.6537740707397460,0.5670850753784179
0.6432918548583985,0.5670850753784179
0.6377912521362304,0.5594072341918945
0.6556222915649413,0.5594072341918945
0.6511482238769531,0.5607971191406250
0.6373758316040039,0.5607971191406250
0.6474403381347656,0.5712701797485351
0.6552429199218750,0.5712701797485351
0.6424930572509765,0.5573215484619141
0.6434366226196289,0.5573215484619141
0.6566848754882812,0.5713062286376953
0.6460081100463867,0.5713062286376953
0.6402683258056641,0.5643035888671875
0.6583688735961913,0.5643035888671875
0.6537322998046875,0.5641765594482422
0.6401647567749024,0.5641765594482422
0.6502195358276367,0.5756011962890625
0.6579128265380859,0.5756011962890625
0.6453329086303711,0.5615890502929687
0.6464641571044921,0.5615890502929687
0.6594944000244141,0.5763914108276367
0.6487981796264648,0.5763914108276367
0.6430692672729492,0.5680303573608398
0.6613059997558594,0.5680303573608398
0.6565263748168945,0.5684658050537109
0.6431213378906250,0.5684658050537109
0.6535331726074218,0.5801359176635742
0.6610170364379883,0.5801359176635742
0.6481739044189453,0.5668973922729492
0.6496273040771484,0.5668973922729492
0.6623497009277344,0.5802383422851562
0.6516242980957031,0.5802383422851562
0.6458473205566406,0.5726291656494140
0.6642213821411133,0.5726291656494140
0.6595636367797851,0.5728139877319336
0.6458925247192383,0.5728139877319336
0.6564182281494141,0.5852102279663086
0.6638265609741211,0.5852102279663086
0.6508289337158203,0.5702573776245117
0.6522754669189453,0.5702573776245117
0.6646247863769531,0.5834501266479492
0.6533214569091796,0.5834501266479492
0.6474306106567382,0.5742382049560547
0.6651620864868164,0.5742382049560547
0.6585937500000000,0.5719980239868164
0.6441965103149414,0.5719980239868164
0.6532464981079101,0.5781955718994141
0.6584026336669921,0.5781955718994141
0.6436998367309570,0.5585924148559570
0.6432741165161132,0.5585924148559570
0.6543090820312499,0.5665414810180663
0.6411014556884765,0.5665414810180663
0.6340547561645508,0.5542053222656250
0.6505989074707031,0.5542053222656250
0.6429834365844727,0.5481491088867188
0.6298387527465820,0.5481491088867188
0.6384658813476562,0.5553445816040039
0.6433691024780274,0.5553445816040039
0.6295932769775391,0.5373046874999999
0.6301637649536133,0.5373046874999999
0.6413000106811523,0.5483081817626952
0.6290863037109374,0.5483081817626952
0.6228401184082031,0.5371089935302734
0.6402860641479492,0.5371089935302734
0.6340089797973633,0.5344459533691406
0.6200969696044921,0.5344459533691406
0.6304040908813476,0.5441110610961913
0.6364030838012695,0.5441110610961913
0.6229722976684570,0.5290964126586913
0.6243272781372070,0.5290964126586913
0.6361473083496093,0.5405296325683594
0.6244400024414062,0.5405296325683594
0.6188661575317382,0.5317480087280273
0.6368957519531250,0.5317480087280273
0.6312051773071289,0.5305263519287109
0.6176765441894531,0.5305263519287109
0.6283172607421875,0.5423864364624024
0.6347408294677734,0.5423864364624024
0.6214673995971679,0.5268207550048828
0.6236606597900390,0.5268207550048828
0.6355012893676758,0.5402034759521485
0.6240182876586914,0.5402034759521485
0.6190504074096680,0.5327470779418945
0.6378490447998046,0.5327470779418945
0.6322826385498047,0.5333015441894531
0.6191854476928711,0.5333015441894531
0.6303382873535156,0.5447256088256835
0.6369031906127930,0.5447256088256835
0.6239261627197266,0.5306962966918946
0.6263454437255859,0.5306962966918946
0.6385900497436523,0.5443897247314453
0.6269777297973632,0.5443897247314453
0.6219417572021484,0.5377183914184570
0.6407369613647461,0.5377183914184570
0.6347980499267578,0.5363016128540039
0.6217432022094727,0.5363016128540039
0.6328405380249024,0.5479871749877929
0.6389402389526367,0.5479871749877929
0.6260690689086914,0.5333370208740235
0.6284454345703124,0.5333370208740235
0.6401887893676758,0.5471832275390625
0.6281587600708007,0.5471832275390625
0.6231576919555664,0.5385091781616210
0.6418882369995117,0.5385091781616210
0.6357084274291992,0.5375255584716797
0.6226873397827148,0.5375255584716797
0.6339626312255859,0.5492740631103515
0.6397848129272461,0.5492740631103515
0.6265296936035156,0.5352710723876953
0.6292139053344726,0.5352710723876953
0.6407444000244140,0.5476295471191406
0.6288619995117187,0.5476295471191406
0.6238912582397461,0.5399745941162110
0.6426063537597656,0.5399745941162110
0.6366559982299804,0.5390504837036133
0.6237659454345703,0.5390504837036133
0.6349903106689453,0.5517442703247070
0.6407787322998046,0.5517442703247070
0.6277667999267578,0.5365407943725585
0.6304647445678710,0.5365407943725585
0.6421365737915039,0.5501924514770508
0.6303411483764648,0.5501924514770508
0.6258516311645508,0.5427692413330077
0.6446537017822266,0.5427692413330077
0.6383056640625000,0.5427898406982422
0.6257314682006836,0.5427898406982422
0.6372865676879883,0.5544708251953124
0.6430641174316406,0.5544708251953124
0.6300144195556641,0.5400987625122070
0.6330053329467773,0.5400987625122070
