REDsignal,IRsignal
0.4628665924072266,0.5490200042724609
0.4598939895629883,0.5413026809692383
0.4598939895629883,0.5413026809692383
0.4659536361694336,0.5488231658935546
0.4659536361694336,0.5488231658935546
0.4574666976928711,0.5472238540649413
0.4574666976928711,0.5472238540649413
0.4643680572509765,0.5455942153930664
0.4643680572509765,0.5455942153930664
0.4635440826416015,0.5505472183227539
0.4635440826416015,0.5505472183227539
0.4607872009277343,0.5430845260620117
0.4607872009277343,0.5430845260620117
0.4668394088745117,0.5512498855590821
0.4668394088745117,0.5512498855590821
0.4584794998168945,0.5483058929443360
0.4584794998168945,0.5483058929443360
0.4652584075927734,0.5470167160034179
0.4652584075927734,0.5470167160034179
0.4642324447631836,0.5518054962158203
0.4642324447631836,0.5518054962158203
0.4612455368041992,0.5447250366210937
0.4612455368041992,0.5447250366210937
0.4672702789306640,0.5513105392456055
0.4672702789306640,0.5513105392456055
0.4585441589355468,0.5487985610961914
0.4585441589355468,0.5487985610961914
0.4654850006103515,0.5474172592163086
0.4654850006103515,0.5474172592163086
0.4643388748168945,0.5526809692382812
0.4643388748168945,0.5526809692382812
0.4613325119018554,0.5442855834960937
0.4613325119018554,0.5442855834960937
0.4673458099365234,0.5515829086303711
0.4673458099365234,0.5515829086303711
0.4587856292724609,0.5490663528442382
0.4587856292724609,0.5490663528442382
0.4655748367309570,0.5485176086425781
0.4655748367309570,0.5485176086425781
0.4645906448364258,0.5525728225708008
0.4645906448364258,0.5525728225708008
0.4615848541259766,0.5449865341186523
0.4615848541259766,0.5449865341186523
0.4677165985107422,0.5521991729736327
0.4677165985107422,0.5521991729736327
0.4592514038085938,0.5505432128906250
0.4592514038085938,0.5505432128906250
0.4659816741943359,0.5487785339355469
0.4659816741943359,0.5487785339355469
0.4651668548583984,0.5536474227905274
0.4651668548583984,0.5536474227905274
0.4621622085571289,0.5459426879882813
0.4621622085571289,0.5459426879882813
0.4682292938232422,0.5539707183837891
0.4682292938232422,0.5539707183837891
0.4598213195800781,0.5510982513427735
0.4598213195800781,0.5510982513427735
0.4665744781494141,0.5499738693237305
0.4665744781494141,0.5499738693237305
0.4658065795898437,0.5548364639282226
0.4658065795898437,0.5548364639282226
0.4627922058105469,0.5478652954101563
0.4627922058105469,0.5478652954101563
0.4689210891723632,0.5546916961669922
0.4689210891723632,0.5546916961669922
0.4604690551757812,0.5524515151977539
0.4604690551757812,0.5524515151977539
0.4672748565673828,0.5512744903564453
0.4672748565673828,0.5512744903564453
0.4663736343383789,0.5567922592163086
0.4663736343383789,0.5567922592163086
0.4635789871215820,0.5485582351684570
0.4635789871215820,0.5485582351684570
0.4693765640258789,0.5558218002319336
0.4693765640258789,0.5558218002319336
0.4610498428344726,0.5535226821899414
0.4610498428344726,0.5535226821899414
0.4678464889526367,0.5530941009521484
0.4678464889526367,0.5530941009521484
0.4668720245361328,0.5572568893432617
0.4668720245361328,0.5572568893432617
0.4640813827514648,0.5496494293212890
0.4640813827514648,0.5496494293212890
0.4700483322143554,0.5570846557617187
0.4700483322143554,0.5570846557617187
0.4616718292236328,0.5554224014282226
0.4616718292236328,0.5554224014282226
0.4685829162597656,0.5536314010620117
0.4685829162597656,0.5536314010620117
0.4676050186157226,0.5585454940795899
0.4695642471313476,0.5585454940795899
0.4646747589111328,0.5510250091552734
0.4646747589111328,0.5510250091552734
0.4708259582519531,0.5590295791625977
0.4708259582519531,0.5590295791625977
0.4623613357543945,0.5560575485229492
0.4623613357543945,0.5560575485229492
0.4690687179565429,0.5548690795898438
0.4690687179565429,0.5548690795898438
0.4682659149169922,0.5595697402954102
0.4682659149169922,0.5595697402954102
0.4651697158813476,0.5523519515991211
0.4651697158813476,0.5523519515991211
0.4707956314086914,0.5583852767944336
0.4707956314086914,0.5583852767944336
0.4618143081665039,0.5549011230468750
0.4618143081665039,0.5549011230468750
0.4678424835205078,0.5519903182983398
0.4678424835205078,0.5519903182983398
0.4658311843872070,0.5556180953979492
0.4658311843872070,0.5556180953979492
0.4617799758911132,0.5454305648803711
0.4617799758911132,0.5454305648803711
0.4668376922607422,0.5509111404418945
0.4668376922607422,0.5509111404418945
0.4575256347656250,0.5467254638671875
0.4575256347656250,0.5467254638671875
0.4633890151977539,0.5446638107299805
0.4633890151977539,0.5446638107299805
0.4641843795776367,0.5428659439086914
0.4641843795776367,0.5428659439086914
0.4641843795776367,0.5441574096679688
0.4582323074340820,0.5448080062866211
0.4633918762207031,0.5448080062866211
0.4593366622924804,0.5400112152099609
0.4593366622924804,0.5400112152099609
0.4623865127563476,0.5457498550415039
0.4623865127563476,0.5457498550415039
0.4552270889282226,0.5386098861694336
0.4552270889282226,0.5386098861694336
0.4629758834838867,0.5412609100341796
0.4629758834838867,0.5412609100341796
0.4571176528930664,0.5429838180541992
0.4571176528930664,0.5429838180541992
0.4584486007690429,0.5385177612304687
0.4584486007690429,0.5385177612304687
0.4614200592041016,0.5444744110107421
0.4614200592041016,0.5444744110107421
0.4551750183105469,0.5376708984374999
0.4551750183105469,0.5376708984374999
0.4629272460937500,0.5414703369140624
0.4629272460937500,0.5414703369140624
0.4572309494018554,0.5436584472656250
0.4572309494018554,0.5436584472656250
0.4585842132568359,0.5393932342529296
0.4585842132568359,0.5393932342529296
0.4623172760009766,0.5454099655151367
0.4623172760009766,0.5454099655151367
0.4560304641723633,0.5395694732666015
0.4560304641723633,0.5395694732666015
0.4638753890991211,0.5434055328369141
0.4638753890991211,0.5434055328369141
0.4579462051391601,0.5453292846679687
0.4579462051391601,0.5453292846679687
0.4597291946411133,0.5406520843505859
0.4597291946411133,0.5406520843505859
0.4631515502929687,0.5474269866943359
0.4631515502929687,0.5474269866943359
0.4568435668945312,0.5411893844604492
0.4568435668945312,0.5411893844604492
0.4640979766845703,0.5443376541137696
0.4640979766845703,0.5443376541137696
0.4585584640502929,0.5458145141601562
0.4585584640502929,0.5458145141601562
0.4600187301635742,0.5415555953979492
0.4600187301635742,0.5415555953979492
0.4634971618652344,0.5479396820068360
0.4634971618652344,0.5479396820068360
0.4566375732421875,0.5412334442138672
0.4566375732421875,0.5412334442138672
0.4643754959106445,0.5442420959472656
0.4643754959106445,0.5442420959472656
0.4586534500122070,0.5465423583984375
0.4586534500122070,0.5465423583984375
0.4601114273071289,0.5420722961425781
0.4601114273071289,0.5420722961425781
0.4632854461669922,0.5481754302978515
0.4632854461669922,0.5481754302978515
0.4570775985717773,0.5414646148681640
0.4570775985717773,0.5414646148681640
0.4647554397583007,0.5452365875244141
0.4647554397583007,0.5452365875244141
0.4591632843017578,0.5471265792846679
0.4591632843017578,0.5471265792846679
0.4603191375732422,0.5428258895874023
0.4603191375732422,0.5428258895874023
0.4640476226806640,0.5487911224365234
0.4640476226806640,0.5487911224365234
0.4576269149780273,0.5428625106811523
0.4642450332641601,0.5428625106811523
0.4652738571166992,0.5464799880981445
0.4652738571166992,0.5464799880981445
0.4593326568603515,0.5482395172119140
0.4593326568603515,0.5482395172119140
0.4612112045288086,0.5437631607055664
0.4612112045288086,0.5437631607055664
0.4647079467773437,0.5504419326782226
0.4647079467773437,0.5504419326782226
0.4584245681762695,0.5441608428955078
0.4584245681762695,0.5441608428955078
0.4656875610351562,0.5476066589355468
0.4656875610351562,0.5476066589355468
0.4602876663208008,0.5493135452270508
0.4602876663208008,0.5493135452270508
0.4618743896484375,0.5454259872436523
0.4618743896484375,0.5454259872436523
0.4653568267822266,0.5519720077514648
0.4653568267822266,0.5519720077514648
0.4587026596069336,0.5454814910888671
0.4587026596069336,0.5454814910888671
0.4666528701782227,0.5485691070556641
0.4666528701782227,0.5485691070556641
0.4609657287597656,0.5509117126464843
0.4609657287597656,0.5509117126464843
0.4625959396362305,0.5467729568481445
0.4625959396362305,0.5467729568481445
0.4655817031860351,0.5529218673706054
0.4655817031860351,0.5529218673706054
0.4596221923828125,0.5462253570556640
0.4596221923828125,0.5462253570556640
0.4671546936035156,0.5501649856567382
0.4671546936035156,0.5501649856567382
0.4616529464721679,0.5523027420043946
0.4669189453125000,0.5523027420043946
0.4628007888793945,0.5478527069091796
0.4628007888793945,0.5478527069091796
0.4664972305297851,0.5538156509399413
0.4664972305297851,0.5538156509399413
0.4601800918579101,0.5478801727294922
0.4601800918579101,0.5478801727294922
0.4678956985473632,0.5513706207275391
0.4678956985473632,0.5513706207275391
0.4619785308837890,0.5533275604248047
0.4619785308837890,0.5533275604248047
0.4636940002441406,0.5487482070922851
0.4636940002441406,0.5487482070922851
0.4671009063720703,0.5553840637207031
0.4671009063720703,0.5553840637207031
0.4608621597290039,0.5491636276245117
0.4608621597290039,0.5491636276245117
0.4680719375610352,0.5522352218627929
0.4680719375610352,0.5522352218627929
0.4625473022460938,0.5536399841308594
0.4625473022460938,0.5536399841308594
0.4639492034912109,0.5492763519287109
0.4639492034912109,0.5492763519287109
0.4668817520141602,0.5545257568359375
0.4668817520141602,0.5545257568359375
0.4594476699829101,0.5465217590332031
0.4594476699829101,0.5465217590332031
0.4663095474243164,0.5479024887084961
0.4663095474243164,0.5479024887084961
0.4597251892089844,0.5483705520629882
0.4597251892089844,0.5483705520629882
0.4601732254028320,0.5424768447875976
0.4601732254028320,0.5424768447875976
0.4623991012573242,0.5468273162841797
0.4623991012573242,0.5468273162841797
0.4554845809936523,0.5386762619018555
0.4554845809936523,0.5386762619018555
0.4623533248901367,0.5413072586059570
0.4623533248901367,0.5413072586059570
0.4562038421630859,0.5422451019287109
0.4562038421630859,0.5422451019287109
0.4569648742675781,0.5370265960693359
0.4569648742675781,0.5370265960693359
0.4602596282958984,0.5423051834106445
0.4602596282958984,0.5423051834106445
0.4537410736083984,0.5357860565185547
0.4537410736083984,0.5357860565185547
0.4610052108764648,0.5387735366821289
0.4610052108764648,0.5387735366821289
0.4547561645507812,0.5400186538696289
0.4547561645507812,0.5400186538696289
0.4563457489013671,0.5352046966552734
0.4563457489013671,0.5352046966552734
0.4596473693847656,0.5416128158569335
0.4596473693847656,0.5416128158569335
0.4532913208007812,0.5349283218383789
0.4596839904785156,0.5349283218383789
0.4604862213134766,0.5383266448974610
0.4604862213134766,0.5383266448974610
0.4549896240234375,0.5399791717529296
0.4549896240234375,0.5399791717529296
0.4566444396972656,0.5362615585327148
0.4566444396972656,0.5362615585327148
0.4603483200073242,0.5428762435913086
0.4603483200073242,0.5428762435913086
0.4537908554077148,0.5364887237548828
0.4537908554077148,0.5364887237548828
0.4617113113403320,0.5397972106933594
0.4617113113403320,0.5397972106933594
0.4561786651611328,0.5421512603759765
0.4561786651611328,0.5421512603759765
0.4577156066894531,0.5381235122680664
0.4542320251464844,0.5381235122680664
0.4608335494995117,0.5443737030029296
0.4608335494995117,0.5443737030029296
0.4547830581665039,0.5374940872192383
0.4547830581665039,0.5374940872192383
0.4623355865478516,0.5413530349731445
0.4623355865478516,0.5413530349731445
0.4566038131713867,0.5431320190429687
0.4566038131713867,0.5431320190429687
0.4576709747314453,0.5385492324829101
0.4576709747314453,0.5385492324829101
0.4612438201904296,0.5444526672363281
0.4612438201904296,0.5444526672363281
0.4549283981323242,0.5382036209106446
0.4549283981323242,0.5382036209106446
0.4624849319458008,0.5415813446044921
0.4624849319458008,0.5415813446044921
0.4563903808593750,0.5431772232055664
0.4563903808593750,0.5431772232055664
0.4580829620361328,0.5385578155517577
0.4580829620361328,0.5385578155517577
0.4614841461181640,0.5451187133789063
0.4614841461181640,0.5451187133789063
0.4550960540771484,0.5387523651123046
0.4550960540771484,0.5387523651123046
0.4625587463378906,0.5421535491943359
0.4625587463378906,0.5421535491943359
0.4569568634033203,0.5436252593994141
0.4569568634033203,0.5436252593994141
0.4585229873657226,0.5398258209228516
0.4585229873657226,0.5398258209228516
0.4620065689086914,0.5462339401245117
0.4620065689086914,0.5462339401245117
0.4554645538330078,0.5395797729492188
0.4554645538330078,0.5395797729492188
0.4633409500122070,0.5429786682128906
0.4633409500122070,0.5429786682128906
0.4574752807617187,0.5451175689697265
0.4574752807617187,0.5451175689697265
0.4592044830322266,0.5412105560302735
0.4592044830322266,0.5412105560302735
0.4624334335327148,0.5475477218627930
0.4624334335327148,0.5475477218627930
0.4564332962036133,0.5407133102416992
0.4564332962036133,0.5407133102416992
0.4640424728393555,0.5447679519653320
0.4640424728393555,0.5447679519653320
0.4584337234497070,0.5467683792114257
0.4638124465942383,0.5467683792114257
0.4596462249755859,0.5424362182617187
0.4596462249755859,0.5424362182617187
0.4633363723754882,0.5484849929809570
0.4633363723754882,0.5484849929809570
0.4572298049926757,0.5424837112426758
0.4572298049926757,0.5424837112426758
0.4648429870605468,0.5462568283081054
0.4648429870605468,0.5462568283081054
0.4587312698364258,0.5479705810546874
0.4587312698364258,0.5479705810546874
0.4606538772583008,0.5434953689575195
0.4606538772583008,0.5434953689575195
0.4641466140747070,0.5502851486206054
0.4641466140747070,0.5502851486206054
0.4578243255615234,0.5437299728393554
0.4578243255615234,0.5437299728393554
0.4652812957763672,0.5474807739257812
0.4652812957763672,0.5474807739257812
0.4596656799316406,0.5489673614501953
0.4596656799316406,0.5489673614501953
0.4612861633300781,0.5451896667480468
0.4612861633300781,0.5451896667480468
0.4648521423339844,0.5517871856689452
0.4648521423339844,0.5517871856689452
0.4580944061279297,0.5449281692504883
0.4580944061279297,0.5449281692504883
0.4663169860839844,0.5482898712158203
0.4663169860839844,0.5482898712158203
0.4604135513305664,0.5507766723632812
0.4604135513305664,0.5507766723632812
0.4620197296142578,0.5465051651000976
0.4620197296142578,0.5465051651000976
0.4652400970458984,0.5529235839843750
0.4652400970458984,0.5529235839843750
0.4591747283935547,0.5459609985351562
0.4591747283935547,0.5459609985351562
0.4670207977294922,0.5502016067504882
0.4670207977294922,0.5502016067504882
0.4610795974731445,0.5518529891967773
0.4610795974731445,0.5518529891967773
0.4623041152954102,0.5471529006958008
0.4623041152954102,0.5471529006958008
0.4656778335571289,0.5525276184082031
0.4656778335571289,0.5525276184082031
0.4586688995361328,0.5449235916137695
0.4586688995361328,0.5449235916137695
0.4655210494995117,0.5471431732177734
0.4655210494995117,0.5471431732177734
0.4582437515258789,0.5467248916625976
0.4582437515258789,0.5467248916625976
0.4590047836303711,0.5400747299194336
0.4590047836303711,0.5400747299194336
0.4613920211791992,0.5451221466064453
0.4613920211791992,0.5451221466064453
0.4541084289550781,0.5369579315185546
0.4541084289550781,0.5369579315185546
0.4608060836791992,0.5390939712524414
0.4608060836791992,0.5390939712524414
0.4543647766113281,0.5391946792602539
0.4543647766113281,0.5391946792602539
0.4555772781372070,0.5345403671264648
0.4555772781372070,0.5345403671264648
0.4585796356201172,0.5401777267456055
0.4585796356201172,0.5401777267456055
0.4513853073120117,0.5325347900390625
0.4513853073120117,0.5325347900390625
0.4591798782348633,0.5353946685791016
0.4591798782348633,0.5353946685791016
0.4528238296508789,0.5369321823120117
0.4528238296508789,0.5369321823120117
0.4544197082519531,0.5324174880981445
0.4544197082519531,0.5324174880981445
0.4572578430175781,0.5384090423583984
0.4572578430175781,0.5384090423583984
0.4508766174316406,0.5309537887573242
0.4508766174316406,0.5309537887573242
0.4524971008300781,0.5306642532348632
0.4524971008300781,0.5305841445922851
0.4586688995361328,0.5375696182250976
0.4586688995361328,0.5375696182250976
0.4499044418334961,0.5349414825439452
0.4499044418334961,0.5349414825439452
0.4571348190307617,0.5339767456054687
0.4571348190307617,0.5339767456054687
0.4560247421264648,0.5398618698120117
0.4560247421264648,0.5398618698120117
0.4533216476440429,0.5314893722534180
0.4533216476440429,0.5314893722534180
0.4596965789794922,0.5394086837768555
0.4596965789794922,0.5394086837768555
0.4508995056152343,0.5368177413940429
0.4508995056152343,0.5368177413940429
0.4580869674682617,0.5363840103149414
0.4580869674682617,0.5363840103149414
0.4569688796997070,0.5408769607543945
0.4569688796997070,0.5408769607543945
0.4539648056030273,0.5327774047851562
0.4539648056030273,0.5327774047851562
0.4602790832519531,0.5404838562011719
0.4602790832519531,0.5404838562011719
0.4514402389526367,0.5383026123046875
0.4514402389526367,0.5383026123046875
0.4583833694458008,0.5364017486572266
0.4583833694458008,0.5364017486572266
0.4571926116943359,0.5411430358886719
0.4571926116943359,0.5411430358886719
0.4541999816894531,0.5331476211547851
0.4541999816894531,0.5331476211547851
0.4604021072387695,0.5413232803344726
0.4604021072387695,0.5413232803344726
0.4515867233276367,0.5380554199218750
0.4515867233276367,0.5380554199218750
0.4585149765014648,0.5367942810058594
0.4585149765014648,0.5367942810058594
0.4574237823486328,0.5417541503906250
0.4574237823486328,0.5417541503906250
0.4546411514282226,0.5344299316406250
0.4546411514282226,0.5344299316406250
0.4608501434326172,0.5415367126464844
0.4608501434326172,0.5415367126464844
0.4520393371582031,0.5389720916748046
0.4520393371582031,0.5389720916748046
0.4591472625732422,0.5379472732543945
0.4591472625732422,0.5379472732543945
0.4579519271850586,0.5435234069824219
0.4579519271850586,0.5435234069824219
0.4551979064941406,0.5350530624389648
0.4551979064941406,0.5350530624389648
0.4613765716552734,0.5428207397460937
0.4613765716552734,0.5428207397460937
0.4527826309204102,0.5402446746826172
0.4527826309204102,0.5402446746826172
0.4598939895629883,0.5400072097778320
0.4598939895629883,0.5400072097778320
0.4587942123413086,0.5441934585571289
0.4587942123413086,0.5441934585571289
0.4560504913330078,0.5365488052368164
0.4560504913330078,0.5365488052368164
0.4622611999511719,0.5443765640258789
0.4622611999511719,0.5443765640258789
0.4535625457763672,0.5423744201660156
0.4535625457763672,0.5423744201660156
0.4607133865356445,0.5409141540527344
0.4607133865356445,0.5409141540527344
0.4594860076904297,0.5459100723266601
0.4594860076904297,0.5459100723266601
0.4568790435791015,0.5381629943847656
0.4568790435791015,0.5381629943847656
0.4630760192871093,0.5465898513793945
0.4630760192871093,0.5465898513793945
0.4541770935058593,0.5433322906494140
0.4541770935058593,0.5433322906494140
0.4614635467529297,0.5424356460571289
0.4614635467529297,0.5424356460571289
0.4603460311889648,0.5473377227783203
0.4627567291259765,0.5473377227783203
0.4575868606567383,0.5401685714721679
0.4575868606567383,0.5401685714721679
0.4638015747070312,0.5473114013671875
0.4638015747070312,0.5473114013671875
0.4549987792968750,0.5445985794067383
0.4549987792968750,0.5445985794067383
0.4622434616088867,0.5437076568603515
0.4622434616088867,0.5437076568603515
0.4610366821289062,0.5490835189819335
0.4610366821289062,0.5490835189819335
0.4583227157592773,0.5409061431884765
0.4583227157592773,0.5409061431884765
0.4645534515380859,0.5486268997192383
0.4645534515380859,0.5486268997192383
0.4558599472045898,0.5461240768432617
0.4558599472045898,0.5461240768432617
0.4629730224609375,0.5457069396972656
0.4629730224609375,0.5457069396972656
0.4618789672851562,0.5501558303833007
0.4618789672851562,0.5501558303833007
0.4590579986572265,0.5423784255981445
0.4590579986572265,0.5423784255981445
0.4652996063232422,0.5502553939819336
0.4652996063232422,0.5502553939819336
0.4567371368408203,0.5481811523437500
0.4567371368408203,0.5481811523437500
0.4636796951293945,0.5465789794921875
0.4636796951293945,0.5465789794921875
0.4625324249267578,0.5512870788574219
0.4625324249267578,0.5512870788574219
0.4595283508300781,0.5429861068725585
0.4595283508300781,0.5429861068725585
0.4651977539062500,0.5504053115844726
0.4651977539062500,0.5504053115844726
0.4558444976806640,0.5456079483032227
0.4558444976806640,0.5456079483032227
0.4617977142333984,0.5427761077880859
0.4617977142333984,0.5427761077880859
0.4595964431762695,0.5456634521484375
0.4595964431762695,0.5456634521484375
0.4556430816650390,0.5363714218139648
0.4556430816650390,0.5363714218139648
0.4608072280883789,0.5417896270751953
0.4608072280883789,0.5417896270751953
0.4511770248413086,0.5374752044677734
0.4511770248413086,0.5374752044677734
0.4575296401977539,0.5353128433227539
0.4575296401977539,0.5353128433227539
0.4555961608886718,0.5397417068481445
0.4555961608886718,0.5397417068481445
0.4525045394897461,0.5303764343261719
0.4525045394897461,0.5303764343261719
0.4581836700439453,0.5374357223510742
0.4581836700439453,0.5374357223510742
0.4492000579833984,0.5341901779174805
0.4492000579833984,0.5341901779174805
0.4560213088989258,0.5332448959350585
0.4560213088989258,0.5332448959350585
0.4545833587646484,0.5370500564575195
0.4545833587646484,0.5370500564575195
0.4515300750732422,0.5287874221801757
0.4515300750732422,0.5287874221801757
0.4576183319091797,0.5362873077392578
0.4576183319091797,0.5362873077392578
0.4487594604492187,0.5340665817260742
0.4487594604492187,0.5340665817260742
0.4558668136596680,0.5325662612915039
0.4558668136596680,0.5325662612915039
0.4545490264892578,0.5374122619628906
0.4545490264892578,0.5374122619628906
0.4520221710205078,0.5297985076904297
0.4520221710205078,0.5297985076904297
0.4583930969238281,0.5382831573486327
0.4583930969238281,0.5382831573486327
0.4496812820434570,0.5352893829345703
0.4496812820434570,0.5352893829345703
0.4569053649902344,0.5345678329467773
0.4569053649902344,0.5345678329467773
0.4557775497436523,0.5395219802856445
0.4557775497436523,0.5395219802856445
0.4531648635864258,0.5324329376220703
0.4531648635864258,0.5324329376220703
0.4593950271606445,0.5396799087524414
0.4540718078613281,0.5396799087524414
0.4504726409912109,0.5369029998779297
0.4504726409912109,0.5369029998779297
0.4577224731445312,0.5358873367309570
0.4577224731445312,0.5358873367309570
0.4563709259033203,0.5411521911621093
0.4563709259033203,0.5411521911621093
0.4535928726196289,0.5325187683105469
0.4535928726196289,0.5325187683105469
0.4595855712890625,0.5402338027954101
0.4595855712890625,0.5402338027954101
0.4506940841674805,0.5372514724731445
0.4506940841674805,0.5372514724731445
0.4579324722290039,0.5367250442504883
0.4579324722290039,0.5367250442504883
0.4565958023071289,0.5408992767333984
0.4587718963623046,0.5408992767333984
0.4535923004150391,0.5328838348388671
0.4535923004150391,0.5328838348388671
0.4598373413085937,0.5406875610351562
0.4598373413085937,0.5406875610351562
0.4510946273803711,0.5382545471191406
0.4510946273803711,0.5382545471191406
0.4580915451049805,0.5368137359619141
0.4580915451049805,0.5368137359619141
0.4568618774414062,0.5417060852050781
0.4568618774414062,0.5417060852050781
0.4542446136474609,0.5338605880737305
0.4542446136474609,0.5338605880737305
0.4604009628295898,0.5422754287719727
0.4604009628295898,0.5422754287719727
0.4516794204711914,0.5388879776000977
0.4516794204711914,0.5388879776000977
0.4587369918823242,0.5380393981933593
0.4587369918823242,0.5380393981933593
0.4576927185058594,0.5429265975952148
0.4576927185058594,0.5429265975952148
0.4549015045166016,0.5357036590576172
0.4549015045166016,0.5357036590576172
0.4610464096069335,0.5430158615112305
0.4610464096069335,0.5430158615112305
0.4524393081665039,0.5403711318969726
0.4524393081665039,0.5403711318969726
0.4596479415893555,0.5394824981689453
0.4596479415893555,0.5394824981689453
0.4582735061645508,0.5449584960937500
0.4582735061645508,0.5449584960937500
0.4558462142944336,0.5367038726806640
0.4558462142944336,0.5367038726806640
0.4618457794189453,0.5445585250854492
0.4618457794189453,0.5445585250854492
0.4532220840454101,0.5417982101440429
0.4532220840454101,0.5417982101440429
0.4604673385620117,0.5415773391723633
0.4604673385620117,0.5415773391723633
0.4590808868408203,0.5459323883056640
0.4590808868408203,0.5459323883056640
0.4565792083740234,0.5381080627441406
0.4565792083740234,0.5381080627441406
0.4627229690551757,0.5458248138427734
0.4627229690551757,0.5458248138427734
0.4540946960449219,0.5437826156616211
0.4540946960449219,0.5437826156616211
0.4612249374389648,0.5422410964965820
0.4612249374389648,0.5422410964965820
0.4598304748535156,0.5471597671508789
0.4598304748535156,0.5471597671508789
0.4572681427001953,0.5394046783447265
0.4572681427001953,0.5394046783447265
0.4633810043334960,0.5477268218994140
0.4633810043334960,0.5477268218994140
0.4547103881835937,0.5443147659301758
0.4547103881835937,0.5443147659301758
0.4619110107421875,0.5435543060302734
0.4619110107421875,0.5435543060302734
0.4605834960937500,0.5484901428222656
0.4605834960937500,0.5484901428222656
0.4578712463378906,0.5412677764892578
0.4578712463378906,0.5412677764892578
0.4641620635986328,0.5485004425048828
0.4641620635986328,0.5485004425048828
0.4553718566894531,0.5457441329956054
0.4553718566894531,0.5457441329956054
0.4626749038696289,0.5449218750000000
0.4626749038696289,0.5449218750000000
0.4613897323608398,0.5504762649536132
0.4613897323608398,0.5504762649536132
0.4587306976318359,0.5420162200927734
0.4587306976318359,0.5420162200927734
0.4648406982421875,0.5496374130249023
0.4648406982421875,0.5496374130249023
0.4560052871704101,0.5466968536376953
0.4560052871704101,0.5466968536376953
0.4629461288452148,0.5458253860473633
0.4629461288452148,0.5458253860473633
0.4610189437866211,0.5489244461059570
0.4610189437866211,0.5489244461059570
0.4574346542358398,0.5394790649414062
0.4574346542358398,0.5394790649414062
0.4627504348754883,0.5455387115478515
0.4627504348754883,0.5455387115478515
0.4527276992797851,0.5412551879882812
0.4527276992797851,0.5412551879882812
0.4588954925537109,0.5379060745239258
0.4588954925537109,0.5379060745239258
0.4565431594848632,0.5410057067871094
0.4565431594848632,0.5410057067871094
0.4530538558959961,0.5316507339477539
0.4530538558959961,0.5316507339477539
0.4585149765014648,0.5389022827148438
0.4585149765014648,0.5389022827148438
0.4491588592529297,0.5344871520996094
0.4491588592529297,0.5344871520996094
0.4556041717529297,0.5327384948730468
0.4556041717529297,0.5327384948730468
0.4540884017944335,0.5368022918701172
0.4540884017944335,0.5368022918701172
0.4511232376098633,0.5287782669067382
0.4511232376098633,0.5287782669067382
0.4568973541259765,0.5356733322143554
0.4568973541259765,0.5356733322143554
0.4479234695434570,0.5323322296142577
0.4564807891845703,0.5323322296142577
0.4548934936523437,0.5310796737670899
0.4548934936523437,0.5310796737670899
0.4531986236572265,0.5361511230468750
0.4531986236572265,0.5361511230468750
0.4506019592285156,0.5273345947265625
0.4506019592285156,0.5273345947265625
0.4565517425537109,0.5351428985595703
0.4565517425537109,0.5351428985595703
0.4478645324707031,0.5323905944824219
0.4478645324707031,0.5323905944824219
0.4551578521728515,0.5322000503540039
0.4551578521728515,0.5322000503540039
0.4571084976196289,0.5340711593627929
0.4571084976196289,0.5340711593627929
0.4513423919677734,0.5351440429687500
0.4573562622070312,0.5351440429687500
0.4535791397094726,0.5317085266113281
0.4535791397094726,0.5317085266113281
0.4566518783569335,0.5386756896972656
0.4566518783569335,0.5386756896972656
0.4505641937255859,0.5314041137695312
0.4505641937255859,0.5314041137695312
0.4582254409790039,0.5352550506591797
0.4582254409790039,0.5352550506591797
0.4521949768066406,0.5370042800903320
0.4521949768066406,0.5370042800903320
0.4541656494140625,0.5330326080322265
0.4541656494140625,0.5330326080322265
0.4569025039672852,0.5395511627197266
0.4569025039672852,0.5395511627197266
0.4511129379272460,0.5316879272460937
0.4511129379272460,0.5316879272460937
0.4585229873657226,0.5363084793090820
0.4585229873657226,0.5363084793090820
0.4523786544799804,0.5374122619628906
0.4523786544799804,0.5374122619628906
0.4541198730468750,0.5332992553710937
0.4541198730468750,0.5332992553710937
0.4572057723999023,0.5394075393676757
0.4572057723999023,0.5394075393676757
0.4514499664306640,0.5325445175170899
0.4514499664306640,0.5325445175170899
0.4588645935058593,0.5369733810424805
0.4588645935058593,0.5369733810424805
0.4524141311645508,0.5381206512451172
0.4524141311645508,0.5381206512451172
0.4548969268798828,0.5336803436279297
0.4548969268798828,0.5336803436279297
0.4577808380126953,0.5408620834350586
0.4577808380126953,0.5408620834350586
0.4519889831542969,0.5337118148803711
0.4519889831542969,0.5337118148803711
0.4591655731201172,0.5379215240478515
0.4591655731201172,0.5379215240478515
0.4533496856689453,0.5388748168945312
0.4533496856689453,0.5388748168945312
0.4555166244506836,0.5354255676269531
0.4555166244506836,0.5354255676269531
0.4585315704345703,0.5423938751220703
0.4585315704345703,0.5423938751220703
0.4525817871093750,0.5349546432495117
0.4525817871093750,0.5349546432495117
0.4602470397949219,0.5390384674072265
0.4602470397949219,0.5390384674072265
0.4541650772094726,0.5410245895385742
0.4541650772094726,0.5410245895385742
0.4564132690429688,0.5370214462280273
0.4564132690429688,0.5370214462280273
0.4591455459594727,0.5437854766845703
0.4591455459594727,0.5437854766845703
0.4536460876464843,0.5362323760986328
0.4536460876464843,0.5362323760986328
0.4611104965209961,0.5410984039306640
0.4611104965209961,0.5410984039306640
0.4551069259643554,0.5425374984741210
0.4551069259643554,0.5425374984741210
0.4570987701416016,0.5385618209838867
0.4570987701416016,0.5385618209838867
0.4602933883666992,0.5450077056884766
0.4602933883666992,0.5450077056884766
0.4546514511108398,0.5382247924804687
0.4546514511108398,0.5382247924804687
0.4620271682739258,0.5427343368530273
0.4620271682739258,0.5427343368530273
0.4556459426879882,0.5439680099487304
0.4556459426879882,0.5439680099487304
0.4582059860229492,0.5396678924560546
0.4582059860229492,0.5396678924560546
0.4611459732055664,0.5468936920166015
0.4611459732055664,0.5468936920166015
0.4554594039916992,0.5398040771484375
0.4554594039916992,0.5398040771484375
0.4624402999877930,0.5440732955932617
0.4624402999877930,0.5440732955932617
0.4567005157470703,0.5448543548583984
0.4567005157470703,0.5448543548583984
0.4589715957641601,0.5414634704589844
0.4589715957641601,0.5414634704589844
0.4619527816772461,0.5483139038085937
0.4619527816772461,0.5483139038085937
0.4560281753540039,0.5409994125366211
0.4560281753540039,0.5409994125366211
0.4635520935058594,0.5450162887573242
0.4635520935058594,0.5450162887573242
0.4574810028076172,0.5468433380126952
0.4574810028076172,0.5468433380126952
0.4599042892456054,0.5431051254272461
0.4599042892456054,0.5431051254272461
0.4624551773071289,0.5497707366943360
0.4624551773071289,0.5497707366943360
0.4571273803710937,0.5418828964233399
0.4571273803710937,0.5418828964233399
0.4644647598266601,0.5470687866210937
0.4644647598266601,0.5470687866210937
0.4582305908203125,0.5480707168579101
0.4582305908203125,0.5480707168579101
0.4599386215209961,0.5435056686401367
0.4599386215209961,0.5435056686401367
0.4624746322631836,0.5487516403198242
0.4624746322631836,0.5487516403198242
0.4560327529907227,0.5402692794799805
0.4560327529907227,0.5402692794799805
0.4623367309570312,0.5429792404174805
0.4623367309570312,0.5429792404174805
0.4546537399291992,0.5418571472167969
0.4546537399291992,0.5418571472167969
0.4558925628662109,0.5354564666748046
0.4558925628662109,0.5354564666748046
0.4577934265136718,0.5409925460815429
0.4577934265136718,0.5409925460815429
0.4513641357421875,0.5321147918701171
0.4513641357421875,0.5321147918701171
0.4575393676757812,0.5353076934814452
0.4575393676757812,0.5353076934814452
0.4510225296020507,0.5349723815917968
0.4510225296020507,0.5349723815917968
0.4527963638305664,0.5305995941162109
0.4527963638305664,0.5305995941162109
0.4552213668823242,0.5368560791015625
0.4552213668823242,0.5368560791015625
0.4491176605224609,0.5285837173461914
0.4491176605224609,0.5285837173461914
0.4562267303466797,0.5321176528930663
0.4562267303466797,0.5321176528930663
0.4496898651123047,0.5331979751586914
0.4496898651123047,0.5331979751586914
0.4518070220947266,0.5289991378784179
0.4518070220947266,0.5289991378784179
0.4541439056396484,0.5352258682250977
0.4541439056396484,0.5352258682250977
0.4487417221069336,0.5271789550781250
0.4487417221069336,0.5271789550781250
0.4558164596557617,0.5320730209350586
0.4558164596557617,0.5320730209350586
0.4497173309326172,0.5333398818969727
0.4497173309326172,0.5333398818969727
0.4517063140869140,0.5292778015136719
0.4517063140869140,0.5292778015136719
0.4549169540405273,0.5359062194824219
0.4549169540405273,0.5359062194824219
0.4494792938232422,0.5290912628173828
0.4550834655761719,0.5290912628173828
0.4569253921508789,0.5338508605957031
0.4569253921508789,0.5338508605957031
0.4505590438842773,0.5350610733032226
0.4505590438842773,0.5350610733032226
0.4530309677124023,0.5308324813842773
0.4530309677124023,0.5308324813842773
0.4559686660766601,0.5381515502929687
0.4559686660766601,0.5381515502929687
0.4505390167236328,0.5309085845947266
0.4505390167236328,0.5309085845947266
0.4574295043945312,0.5353179931640625
0.4508285522460938,0.5353179931640625
0.4514848709106445,0.5358804702758789
0.4574420928955078,0.5358804702758789
0.4536060333251953,0.5323585510253906
0.4494764328002930,0.5323585510253906
0.4565311431884765,0.5391345977783203
0.4565311431884765,0.5391345977783203
0.4506763458251953,0.5312479019165038
0.4506763458251953,0.5312479019165038
0.4579719543457031,0.5355211257934570
0.4579719543457031,0.5355211257934570
0.4517675399780273,0.5369590759277344
0.4517675399780273,0.5369590759277344
0.4540008544921875,0.5329719543457031
0.4540008544921875,0.5329719543457031
0.4564990997314453,0.5394853591918946
0.4564990997314453,0.5394853591918946
0.4512599945068359,0.5315917968750000
0.4512599945068359,0.5315917968750000
0.4583627700805664,0.5367387771606446
0.4583627700805664,0.5367387771606446
0.4522447586059570,0.5377967834472656
0.4522447586059570,0.5377967834472656
0.4541501998901367,0.5336866378784180
0.4541501998901367,0.5336866378784180
0.4572046279907226,0.5402910232543945
0.4572046279907226,0.5402910232543945
0.4520553588867187,0.5332002639770508
0.4520553588867187,0.5332002639770508
0.4591890335083008,0.5381515502929687
0.4526201248168945,0.5390247344970703
0.4553049087524414,0.5348842620849609
0.4553049087524414,0.5348842620849609
0.4582054138183593,0.5422136306762695
0.4582054138183593,0.5422136306762695
0.4528512954711914,0.5349431991577148
0.4528512954711914,0.5349431991577148
0.4596851348876953,0.5397045135498046
0.4596851348876953,0.5397045135498046
0.4538784027099609,0.5402544021606445
0.4538784027099609,0.5402544021606445
0.4563337326049804,0.5370037078857421
0.4563337326049804,0.5370037078857421
0.4591970443725586,0.5441751480102539
0.4591970443725586,0.5441751480102539
0.4535854339599609,0.5364892959594726
0.4535854339599609,0.5364892959594726
0.4609548568725585,0.5409673690795899
0.4609548568725585,0.5409673690795899
0.4548511505126953,0.5424751281738281
0.4548511505126953,0.5424751281738281
0.4573637008666992,0.5388628005981445
0.4573637008666992,0.5388628005981445
0.4597721099853516,0.5456371307373047
0.4597721099853516,0.5456371307373047
0.4546920776367187,0.5377441406250000
0.4546920776367187,0.5377441406250000
0.4619613647460937,0.5431886672973633
0.4619613647460937,0.5431886672973633
0.4557781219482422,0.5443502426147461
0.4557781219482422,0.5443502426147461
0.4579198837280273,0.5403579711914063
0.4579198837280273,0.5403579711914063
0.4609554290771484,0.5467901229858398
0.4609554290771484,0.5467901229858398
0.4557300567626953,0.5398160934448242
0.4608850479125977,0.5398160934448242
0.4627870559692382,0.5447193145751953
0.4627870559692382,0.5447193145751953
0.4624671936035156,0.5456565856933594
0.4627424240112304,0.5456565856933594
0.4589435577392578,0.5413639068603515
0.4548276901245117,0.5413639068603515
0.4617301940917968,0.5487710952758789
0.4601303100585937,0.5487710952758789
0.4566644668579101,0.5414691925048828
0.4566644668579101,0.5414691925048828
0.4633684158325195,0.5462402343750000
0.4633684158325195,0.5462402343750000
0.4574792861938476,0.5467065811157227
0.4574792861938476,0.5467065811157227
0.4598728179931640,0.5435016632080077
0.4598728179931640,0.5435016632080077
0.4627784729003906,0.5504991531372070
0.4611070632934570,0.5504991531372070
0.4571760177612305,0.5429431915283203
0.4571760177612305,0.5429431915283203
0.4645174026489258,0.5474138259887695
0.4645174026489258,0.5474138259887695
0.4583456039428710,0.5491024017333984
0.4583456039428710,0.5491024017333984
0.4608724594116211,0.5451272964477539
0.4608724594116211,0.5451272964477539
0.4631000518798828,0.5514713287353515
0.4631000518798828,0.5514713287353515
0.4577562332153320,0.5427955627441406
0.4577562332153320,0.5427955627441406
0.4640756607055664,0.5470373153686523
0.4640756607055664,0.5470373153686523
0.4570220947265625,0.5461881637573242
0.4570220947265625,0.5461881637573242
0.4581184387207031,0.5402950286865235
0.4581184387207031,0.5402950286865235
0.4598613739013672,0.5447599411010742
0.4598613739013672,0.5447599411010742
0.4535579681396484,0.5359376907348633
0.4535579681396484,0.5359376907348633
0.4596141815185547,0.5394430160522461
0.4596141815185547,0.5394430160522461
0.4523580551147461,0.5387586593627930
0.4523580551147461,0.5387586593627930
0.4544076919555664,0.5334491729736328
0.4544076919555664,0.5334491729736328
0.4565443038940429,0.5399448394775390
0.4565443038940429,0.5399448394775390
0.4510305404663086,0.5315906524658203
0.4510305404663086,0.5315906524658203
0.4574232101440430,0.5360195159912109
0.4574232101440430,0.5360195159912109
0.4511278152465820,0.5358707427978515
0.4511278152465820,0.5358707427978515
0.4533348083496094,0.5321228027343750
0.4533348083496094,0.5321228027343750
0.4558050155639648,0.5387969970703125
0.4558050155639648,0.5387969970703125
0.4501956939697265,0.5306797027587891
0.4501956939697265,0.5306797027587891
0.4572441101074218,0.5350725173950195
0.4572441101074218,0.5350725173950195
0.4510150909423828,0.5362604141235351
0.4570993423461914,0.5362604141235351
0.4536397933959961,0.5326194763183594
0.4536397933959961,0.5326194763183594
0.4560979843139648,0.5393857955932617
0.4560979843139648,0.5393857955932617
0.4512508392333984,0.5314905166625976
0.4512508392333984,0.5314905166625976
0.4534280776977539,0.5321771621704101
0.4534280776977539,0.5321771621704101
0.4583684921264648,0.5400215148925781
0.4583684921264648,0.5400215148925781
0.4500818252563477,0.5364789962768555
0.4500818252563477,0.5364789962768555
0.4574518203735352,0.5366334915161133
0.4574518203735352,0.5366334915161133
0.4556161880493164,0.5417507171630859
0.4556161880493164,0.5417507171630859
0.4533765792846680,0.5333215713500976
0.4533765792846680,0.5333215713500976
0.4590665817260742,0.5413742065429688
0.4590665817260742,0.5413742065429688
0.4507884979248047,0.5375587463378906
0.4507884979248047,0.5375587463378906
0.4578792572021484,0.5379655838012695
0.4578792572021484,0.5379655838012695
0.4559234619140625,0.5418434143066406
0.4559234619140625,0.5418434143066406
0.4537742614746094,0.5337518692016602
0.4537742614746094,0.5337518692016602
0.4594625473022461,0.5418663024902344
0.4594625473022461,0.5418663024902344
0.4509979248046875,0.5384742736816406
0.4509979248046875,0.5384742736816406
0.4581384658813477,0.5379301071166992
0.4581384658813477,0.5379301071166992
0.4561975479125976,0.5423669815063477
0.4561975479125976,0.5423669815063477
0.4542217254638672,0.5345541000366211
0.4542217254638672,0.5345541000366211
0.4599145889282226,0.5433734893798828
0.4599145889282226,0.5433734893798828
0.4515592575073242,0.5388988494873047
0.4515592575073242,0.5388988494873047
0.4588336944580078,0.5390790939331055
0.4588336944580078,0.5390790939331055
0.4569940567016602,0.5436595916748047
0.4569940567016602,0.5436595916748047
0.4549255371093750,0.5363822937011719
0.4549255371093750,0.5363822937011719
0.4607397079467773,0.5440979003906250
0.4559000015258789,0.5440979003906250
0.4521852493286133,0.5403619766235351
0.4521852493286133,0.5403619766235351
0.4597503662109375,0.5406171798706054
0.4597503662109375,0.5406171798706054
0.4577224731445312,0.5456720352172851
0.4577224731445312,0.5456720352172851
0.4558113098144531,0.5374099731445312
0.4558113098144531,0.5374099731445312
0.4616477966308594,0.5457881927490235
0.4616477966308594,0.5457881927490235
0.4532695770263672,0.5418491363525391
0.4532695770263672,0.5418491363525391
0.4606533050537109,0.5428104400634766
0.4606533050537109,0.5428104400634766
0.4587375640869140,0.5466281890869140
0.4587375640869140,0.5466281890869140
0.4566558837890625,0.5392210006713867
0.4566558837890625,0.5392210006713867
0.4624597549438476,0.5473400115966797
0.4624597549438476,0.5473400115966797
0.4543613433837890,0.5442037582397461
0.4543613433837890,0.5442037582397461
0.4614789962768555,0.5439777374267578
0.4614789962768555,0.5439777374267578
0.4597669601440429,0.5483636856079102
0.4597669601440429,0.5483636856079102
0.4576721191406250,0.5409582138061523
0.4576721191406250,0.5409582138061523
0.4633792877197265,0.5495756149291992
0.4633792877197265,0.5495756149291992
0.4552825927734375,0.5451896667480468
0.4552825927734375,0.5451896667480468
0.4622646331787109,0.5453493118286132
0.4622646331787109,0.5453493118286132
0.4606819152832031,0.5498079299926758
0.4606819152832031,0.5498079299926758
0.4585567474365234,0.5428619384765625
0.4585567474365234,0.5428619384765625
0.4641431808471679,0.5503458023071289
0.4641431808471679,0.5503458023071289
0.4560539245605468,0.5465229034423827
0.4560539245605468,0.5465229034423827
0.4631286621093750,0.5468164443969726
0.4631286621093750,0.5468164443969726
0.4612770080566406,0.5517339706420898
0.4612770080566406,0.5517339706420898
0.4592891693115234,0.5437597274780274
0.4592891693115234,0.5437597274780274
0.4647909164428711,0.5517076492309571
0.4647909164428711,0.5517076492309571
0.4568498611450195,0.5479740142822266
0.4568498611450195,0.5479740142822266
0.4640985488891601,0.5489330291748047
0.4640985488891601,0.5489330291748047
0.4622114181518555,0.5528291702270508
0.4647817611694336,0.5528291702270508
0.4602516174316406,0.5453722000122070
0.4602516174316406,0.5453722000122070
0.4658809661865234,0.5534425735473633
0.4658809661865234,0.5534425735473633
0.4578094482421875,0.5500099182128906
0.4578094482421875,0.5500099182128906
0.4646221160888672,0.5493736267089844
0.4646221160888672,0.5493736267089844
0.4623476028442383,0.5528778076171875
0.4623476028442383,0.5528778076171875
0.4597818374633789,0.5441677093505859
0.4597818374633789,0.5441677093505859
0.4642799377441406,0.5510038375854492
0.4642799377441406,0.5510038375854492
0.4552099227905273,0.5446695327758789
0.4552099227905273,0.5446695327758789
0.4611368179321289,0.5430490493774414
0.4611368179321289,0.5430490493774414
0.4582489013671875,0.5456823348999024
0.4582489013671875,0.5456823348999024
0.4552276611328125,0.5372406005859375
0.4552276611328125,0.5372406005859375
0.4601068496704102,0.5432899475097656
0.4601068496704102,0.5432899475097656
0.4512027740478515,0.5382339477539062
0.4512027740478515,0.5382339477539062
0.4578134536743164,0.5376377105712891
0.4578134536743164,0.5376377105712891
0.4555006027221680,0.5417129516601562
0.4555006027221680,0.5417129516601562
0.4530767440795898,0.5330291748046875
0.4530767440795898,0.5330291748046875
0.4583301544189453,0.5403573989868163
0.4583301544189453,0.5403573989868163
0.4499113082885742,0.5357334136962890
0.4499113082885742,0.5357334136962890
0.4566850662231445,0.5362770080566406
0.4566850662231445,0.5362770080566406
0.4545186996459961,0.5395019531249999
0.4545186996459961,0.5395019531249999
0.4522739410400390,0.5317880630493164
0.4522739410400390,0.5317880630493164
0.4578804016113281,0.5396318435668945
0.4578804016113281,0.5396318435668945
0.4496944427490234,0.5360458374023437
0.4496944427490234,0.5360458374023437
0.4568521499633789,0.5358993530273437
0.4568521499633789,0.5358993530273437
0.4549060821533203,0.5402921676635742
0.4549060821533203,0.5402921676635742
0.4530126571655273,0.5329027175903320
0.4530126571655273,0.5329027175903320
0.4586265563964844,0.5416002273559570
0.4586265563964844,0.5416002273559570
0.4507524490356445,0.5370981216430664
0.4507524490356445,0.5370981216430664
0.4577917098999023,0.5377275466918945
0.4577917098999023,0.5377275466918945
0.4559469223022461,0.5421255111694335
0.4559469223022461,0.5421255111694335
0.4540151596069336,0.5353134155273437
0.4540151596069336,0.5353134155273437
0.4595569610595703,0.5426078796386719
0.4547458648681640,0.5426078796386719
0.4514099121093750,0.5384531021118164
0.4514099121093750,0.5384531021118164
0.4586208343505859,0.5388690948486328
0.4586208343505859,0.5388690948486328
0.4565259933471679,0.5435365676879883
0.4565259933471679,0.5435365676879883
0.4544918060302734,0.5353860855102539
0.4544918060302734,0.5353860855102539
0.4598419189453125,0.5431806564331054
0.4598419189453125,0.5431806564331054
0.4517223358154296,0.5388416290283203
0.4517223358154296,0.5388416290283203
0.4588359832763672,0.5399894714355469
0.4588359832763672,0.5399894714355469
0.4568195343017578,0.5434759140014648
0.4568195343017578,0.5434759140014648
0.4546960830688476,0.5360006332397461
0.4546960830688476,0.5360006332397461
0.4602579116821289,0.5440618515014648
0.4602579116821289,0.5440618515014648
0.4522356033325195,0.5403448104858398
0.4522356033325195,0.5403448104858398
0.4593801498413086,0.5403596878051757
0.4593801498413086,0.5403596878051757
0.4573024749755859,0.5447525024414063
0.4573024749755859,0.5447525024414063
0.4555177688598633,0.5373023986816406
0.4555177688598633,0.5373023986816406
0.4609788894653320,0.5457910537719727
0.4609788894653320,0.5457910537719727
0.4530761718750000,0.5411270141601562
0.4530761718750000,0.5411270141601562
0.4601371765136719,0.5418313980102539
0.4601371765136719,0.5418313980102539
0.4582191467285156,0.5460926055908203
0.4582191467285156,0.5460926055908203
0.4562845230102539,0.5394836425781250
0.4562845230102539,0.5394836425781250
0.4618572235107422,0.5470624923706054
0.4618572235107422,0.5470624923706054
0.4538360595703125,0.5427217483520508
0.4538360595703125,0.5427217483520508
0.4610338211059570,0.5435308456420899
0.4610338211059570,0.5435308456420899
0.4592319488525390,0.5483997344970702
0.4592319488525390,0.5483997344970702
0.4572847366333008,0.5406000137329101
0.4572847366333008,0.5406000137329101
0.4627647399902344,0.5487012863159180
0.4627647399902344,0.5487012863159180
0.4549249649047851,0.5444028854370117
0.4549249649047851,0.5444028854370117
0.4620088577270507,0.5457607269287109
0.4620088577270507,0.5457607269287109
0.4601737976074218,0.5495521545410156
0.4601737976074218,0.5495521545410156
0.4582866668701172,0.5423658370971679
0.4582866668701172,0.5423658370971679
0.4638124465942383,0.5503080368041992
0.4638124465942383,0.5503080368041992
0.4558433532714843,0.5466728210449219
0.4558433532714843,0.5466728210449219
0.4630090713500976,0.5469102859497070
0.4630090713500976,0.5469102859497070
0.4610824584960938,0.5512321472167968
0.4610824584960938,0.5512321472167968
0.4591999053955078,0.5438753128051758
0.4591999053955078,0.5438753128051758
0.4646770477294921,0.5524950027465820
0.4646770477294921,0.5524950027465820
0.4566730499267578,0.5475957870483398
0.4566730499267578,0.5475957870483398
0.4637517929077148,0.5484094619750977
0.4637517929077148,0.5484094619750977
0.4618165969848633,0.5525951385498047
0.4618165969848633,0.5525951385498047
0.4599632263183593,0.5460090637207031
0.4599632263183593,0.5460090637207031
0.4654558181762695,0.5534362792968750
0.4654558181762695,0.5534362792968750
0.4575330734252929,0.5491584777832031
0.4575330734252929,0.5491584777832031
0.4647748947143555,0.5499973297119141
0.4647748947143555,0.5499973297119141
0.4627819061279297,0.5547969818115234
0.4627819061279297,0.5547969818115234
0.4609102249145507,0.5471437454223632
0.4609102249145507,0.5471437454223632
0.4664485931396484,0.5551837921142578
0.4664485931396484,0.5551837921142578
0.4585315704345703,0.5508281707763671
0.4585315704345703,0.5508281707763671
0.4657201766967773,0.5522764205932617
0.4657201766967773,0.5522764205932617
0.4636676788330078,0.5559963226318360
0.4636676788330078,0.5559963226318360
0.4618040084838867,0.5485639572143555
0.4618040084838867,0.5485639572143555
0.4669864654541016,0.5561622619628906
0.4669864654541016,0.5561622619628906
0.4584159851074219,0.5511651992797851
0.4584159851074219,0.5511651992797851
0.4648612976074218,0.5499172210693359
0.4648612976074218,0.5499172210693359
0.4616420745849609,0.5521802902221680
0.4616420745849609,0.5521802902221680
0.4587358474731445,0.5431234359741210
0.4587358474731445,0.5431234359741210
0.4630302429199218,0.5496454238891602
0.4630302429199218,0.5496454238891602
0.4540260314941406,0.5429191589355469
0.4540260314941406,0.5429191589355469
0.4602865219116211,0.5422903060913086
0.4602865219116211,0.5422903060913086
0.4574340820312500,0.5451816558837891
0.4574340820312500,0.5451816558837891
0.4549066543579101,0.5375095367431640
0.4549066543579101,0.5375095367431640
0.4598625183105469,0.5440853118896484
0.4598625183105469,0.5440853118896484
0.4513366699218750,0.5388238906860351
0.4513366699218750,0.5388238906860351
0.4583261489868164,0.5389057159423828
0.4583261489868164,0.5389057159423828
0.4557878494262695,0.5430696487426757
0.4557878494262695,0.5430696487426757
0.4536506652832031,0.5347812652587890
0.4536506652832031,0.5347812652587890
0.4588457107543945,0.5423263549804688
0.4588457107543945,0.5423263549804688
0.4506311416625977,0.5374294281005859
0.4506311416625977,0.5374294281005859
0.4575748443603516,0.5386276245117188
0.4575748443603516,0.5386276245117188
0.4588033676147460,0.5405874252319336
0.4588033676147460,0.5405874252319336
0.4592193603515625,0.5399356842041015
0.4591352462768554,0.5399356842041015
0.4557249069213867,0.5372016906738281
0.4514677047729492,0.5372016906738281
0.4581676483154297,0.5441385269165039
0.4581676483154297,0.5441385269165039
0.4532741546630859,0.5359954833984375
0.4532741546630859,0.5359954833984375
0.4600616455078125,0.5418388366699218
0.4600616455078125,0.5418388366699218
0.4538280487060546,0.5423274993896484
0.4538280487060546,0.5423274993896484
0.4568298339843750,0.5391374588012695
0.4568298339843750,0.5391374588012695
0.4589429855346679,0.5457406997680664
0.4589429855346679,0.5457406997680664
0.4544992446899414,0.5371788024902343
0.4544992446899414,0.5371788024902343
0.4609148025512695,0.5438123703002929
0.4609148025512695,0.5438123703002929
0.4546068191528320,0.5436532974243163
0.4546068191528320,0.5436532974243163
0.4572212219238281,0.5399620056152343
0.4572212219238281,0.5399620056152343
0.4595575332641602,0.5461297988891601
0.4595575332641602,0.5461297988891601
0.4548385620117187,0.5382614135742188
0.4548385620117187,0.5382614135742188
0.4613828659057617,0.5444509506225585
0.4613828659057617,0.5444509506225585
0.4545564651489258,0.5440692901611328
0.4545564651489258,0.5440692901611328
0.4576932907104492,0.5401285171508788
0.4576932907104492,0.5401285171508788
0.4599843978881836,0.5473073959350586
0.4599843978881836,0.5473073959350586
0.4553649902343750,0.5391735076904297
0.4553649902343750,0.5391735076904297
0.4614189147949219,0.5453418731689453
0.4614189147949219,0.5453418731689453
0.4553718566894531,0.5445367813110351
0.4553718566894531,0.5445367813110351
0.4582288742065430,0.5417512893676758
0.4582288742065430,0.5417512893676758
0.4607053756713867,0.5485050201416015
0.4607053756713867,0.5485050201416015
0.4556734085083007,0.5402767181396484
0.4556734085083007,0.5402767181396484
0.4623813629150391,0.5461343765258789
0.4623813629150391,0.5461343765258789
0.4561122894287109,0.5466985702514648
0.4561122894287109,0.5466985702514648
0.4591781616210937,0.5433620452880860
0.4546812057495117,0.5433620452880860
0.4611860275268554,0.5499555587768554
0.4611860275268554,0.5499555587768554
0.4568510055541992,0.5414131164550781
0.4568510055541992,0.5414131164550781
0.4633415222167969,0.5483161926269531
0.4633415222167969,0.5483161926269531
0.4570541381835938,0.5481731414794921
0.4570541381835938,0.5481731414794921
0.4599666595458984,0.5449110031127929
0.4599666595458984,0.5449110031127929
0.4623859405517578,0.5511108398437500
0.4623859405517578,0.5511108398437500
0.4577322006225586,0.5435297012329101
0.4577322006225586,0.5435297012329101
0.4643468856811523,0.5501947402954102
0.4643468856811523,0.5501947402954102
0.4577671051025390,0.5497312545776367
0.4577671051025390,0.5497312545776367
0.4611219406127929,0.5460405349731445
0.4611219406127929,0.5460405349731445
0.4633483886718750,0.5533464431762695
0.4633483886718750,0.5533464431762695
0.4587518692016601,0.5451942443847656
0.4587518692016601,0.5451942443847656
0.4650278091430664,0.5516653060913086
0.4650278091430664,0.5516653060913086
0.4588119506835937,0.5508499145507812
0.4588119506835937,0.5508499145507812
0.4618663787841797,0.5480283737182617
0.4618663787841797,0.5480283737182617
0.4641494750976562,0.5549234390258789
0.4641494750976562,0.5549234390258789
0.4591918945312500,0.5465171813964843
0.4591918945312500,0.5465171813964843
0.4659524917602539,0.5524858474731446
0.4659524917602539,0.5524858474731446
0.4594196319580078,0.5526517868041992
0.4594196319580078,0.5526517868041992
0.4627212524414062,0.5493370056152344
0.4627212524414062,0.5493370056152344
0.4645626068115234,0.5559402465820312
0.4645626068115234,0.5559402465820312
0.4601909637451171,0.5471008300781249
0.4601909637451171,0.5471008300781249
0.4666603088378906,0.5543643951416015
0.4666603088378906,0.5543643951416015
0.4602510452270507,0.5540702819824218
0.4602510452270507,0.5540702819824218
0.4631212234497070,0.5506301879882812
0.4586980819702148,0.5506301879882812
0.4656028747558594,0.5568563461303710
0.4656028747558594,0.5568563461303710
0.4609897613525391,0.5490526199340821
0.4609897613525391,0.5490526199340821
0.4675975799560547,0.5557188034057617
0.4675975799560547,0.5557188034057617
0.4673355102539062,0.5580076217651367
0.4673355102539062,0.5580076217651367
0.4667226791381835,0.5546625137329101
0.4613880157470703,0.5546625137329101
0.4621438980102539,0.5497896194458007
0.4621438980102539,0.5497896194458007
0.4579284667968750,0.5506273269653320
0.4579284667968750,0.5506273269653320
0.4631704330444336,0.5517213821411132
0.4639921188354492,0.5517213821411132
0.4565649032592773,0.5474761962890625
0.4565649032592773,0.5474761962890625
0.4588256835937500,0.5429054260253906
0.4588256835937500,0.5429054260253906
0.4598373413085937,0.5480232238769531
0.4598373413085937,0.5480232238769531
0.4547590255737304,0.5383060455322265
0.4547590255737304,0.5383060455322265
0.4609428405761719,0.5447044372558594
0.4609428405761719,0.5447044372558594
0.4539997100830078,0.5434370040893555
0.4539997100830078,0.5434370040893555
0.4565042495727539,0.5395071029663085
0.4565042495727539,0.5395071029663085
0.4584714889526367,0.5449716567993164
0.4584714889526367,0.5449716567993164
0.4535882949829101,0.5365728378295899
0.4535882949829101,0.5365728378295899
0.4598150253295898,0.5429889678955078
0.4598150253295898,0.5429889678955078
0.4528507232666015,0.5419075012207031
0.4528507232666015,0.5419075012207031
0.4561014175415039,0.5379610061645508
0.4561014175415039,0.5379610061645508
0.4580715179443359,0.5449916839599609
0.4580715179443359,0.5449916839599609
0.4535694122314453,0.5364704132080078
0.4579359054565429,0.5364704132080078
0.4599300384521484,0.5432893753051757
0.4599300384521484,0.5432893753051757
0.4535299301147461,0.5424665451049805
0.4535299301147461,0.5424665451049805
0.4567646026611328,0.5398887634277344
0.4567646026611328,0.5398887634277344
0.4591661453247070,0.5467981338500977
0.4591661453247070,0.5467981338500977
0.4542160034179688,0.5383146286010742
0.4542160034179688,0.5383146286010742
0.4610240936279297,0.5445693969726563
0.4610240936279297,0.5445693969726563
0.4544866561889648,0.5444114685058593
0.4544866561889648,0.5444114685058593
0.4578231811523437,0.5414079666137696
0.4578231811523437,0.5414079666137696
0.4595632553100586,0.5477497100830078
0.4595632553100586,0.5477497100830078
0.4550525665283203,0.5386545181274414
0.4550525665283203,0.5386545181274414
0.4615201950073242,0.5459386825561523
0.4615201950073242,0.5459386825561523
0.4549112319946289,0.5452091217041015
0.4549112319946289,0.5452091217041015
0.4577808380126953,0.5417655944824219
0.4577808380126953,0.5417655944824219
0.4599460601806640,0.5476770401000977
0.4599460601806640,0.5476770401000977
0.4553026199340820,0.5397045135498046
0.4553026199340820,0.5397045135498046
0.4619195938110351,0.5464044570922851
0.4619195938110351,0.5464044570922851
0.4548168182373047,0.5456193923950196
0.4548168182373047,0.5456193923950196
0.4582963943481445,0.5419464111328125
0.4582963943481445,0.5419464111328125
0.4602785110473633,0.5489799499511718
0.4602785110473633,0.5489799499511718
0.4557838439941406,0.5406240463256836
0.4557838439941406,0.5406240463256836
0.4621061325073242,0.5472650527954102
0.4621061325073242,0.5472650527954102
0.4556224822998047,0.5461315155029297
0.4620586395263672,0.5461315155029297
0.4588949203491210,0.5435834884643554
0.4542720794677734,0.5435834884643554
0.4611053466796875,0.5502119064331055
0.4611053466796875,0.5502119064331055
0.4563692092895508,0.5416522979736328
0.4563692092895508,0.5416522979736328
0.4630514144897461,0.5480884552001953
0.4566770553588867,0.5480884552001953
0.4562948226928711,0.5479568481445313
0.4562948226928711,0.5479568481445313
0.4597949981689453,0.5451702117919922
0.4597949981689453,0.5451702117919922
0.4615116119384766,0.5514593124389648
0.4615116119384766,0.5514593124389648
0.4573047637939453,0.5425655364990234
0.4573047637939453,0.5425655364990234
0.4639778137207031,0.5500911712646485
0.4575141906738281,0.5500911712646485
0.4572286605834961,0.5494846343994141
0.4572286605834961,0.5494846343994141
0.4602642059326172,0.5463941574096679
0.4602642059326172,0.5463941574096679
0.4625410079956054,0.5523925781250000
0.4625410079956054,0.5523925781250000
0.4580863952636718,0.5445665359497071
0.4580863952636718,0.5445665359497071
0.4648349761962891,0.5517288208007812
0.4648349761962891,0.5517288208007812
0.4576749801635742,0.5508625030517578
0.4576749801635742,0.5508625030517578
0.4613050460815429,0.5473588943481446
0.4613050460815429,0.5473588943481446
0.4634124755859375,0.5544771194458008
0.4634124755859375,0.5544771194458008
0.4589435577392578,0.5460193634033202
0.4589435577392578,0.5460193634033202
0.4653636932373046,0.5529785156250000
0.4653636932373046,0.5529785156250000
0.4586534500122070,0.5516006469726562
0.4586534500122070,0.5516006469726562
0.4621089935302734,0.5493141174316406
0.4621089935302734,0.5493141174316406
0.4642026901245117,0.5559911727905273
0.4642026901245117,0.5559911727905273
0.4594768524169922,0.5472833633422851
0.4594768524169922,0.5472833633422851
0.4662963867187500,0.5537469863891601
0.4662963867187500,0.5537469863891601
0.4595243453979492,0.5537664413452148
0.4595243453979492,0.5537664413452148
0.4629055023193359,0.5505998611450195
0.4629055023193359,0.5505998611450195
0.4646604537963867,0.5570571899414062
0.4646604537963867,0.5570571899414062
0.4604084014892578,0.5480861663818359
0.4604084014892578,0.5480861663818359
0.4671712875366211,0.5557548522949218
0.4671712875366211,0.5557548522949218
0.4603654861450195,0.5552490234374999
0.4603654861450195,0.5552490234374999
0.4635572433471680,0.5520933151245117
0.4635572433471680,0.5520933151245117
0.4657962799072266,0.5581352233886718
0.4657962799072266,0.5581352233886718
0.4613925933837890,0.5502668380737304
0.4613925933837890,0.5502668380737304
0.4681480407714844,0.5573312759399414
0.4681480407714844,0.5573312759399414
0.4608249664306641,0.5563213348388671
0.4608249664306641,0.5563213348388671
0.4645105361938476,0.5525899887084961
0.4645105361938476,0.5525899887084961
0.4659027099609375,0.5588012695312500
0.4659027099609375,0.5588012695312500
0.4607025146484375,0.5490806579589843
0.4607025146484375,0.5490806579589843
0.4662734985351562,0.5543678283691406
0.4662734985351562,0.5543678283691406
0.4584383010864257,0.5510696411132813
0.4584383010864257,0.5510696411132813
0.4608724594116211,0.5469726562500000
0.4608724594116211,0.5469726562500000
0.4617530822753906,0.5517717361450195
0.4617530822753906,0.5517717361450195
0.4561368942260742,0.5416105270385742
0.4561368942260742,0.5416105270385742
0.4620517730712890,0.5467786788940430
0.4620517730712890,0.5467786788940430
0.4545312881469726,0.5454059600830078
0.4545312881469726,0.5454059600830078
0.4575204849243164,0.5416820526123046
0.4575204849243164,0.5416820526123046
0.4585613250732422,0.5471712112426758
0.4585613250732422,0.5471712112426758
0.4538772583007812,0.5372566223144531
0.4538772583007812,0.5372566223144531
0.4601182937622070,0.5443004608154297
0.4545787811279297,0.5385847091674805
0.4530755996704101,0.5429460525512695
0.4595821380615234,0.5429460525512695
0.4559932708740234,0.5394744873046875
0.4559932708740234,0.5394744873046875
0.4577573776245117,0.5450534820556641
0.4577573776245117,0.5450534820556641
0.4531368255615234,0.5366043090820313
0.4531368255615234,0.5366043090820313
0.4597234725952148,0.5437728881835937
0.4597234725952148,0.5437728881835937
0.4524856567382812,0.5425197601318359
0.4524856567382812,0.5425197601318359
0.4562662124633789,0.5391820907592774
0.4562662124633789,0.5391820907592774
0.4580698013305664,0.5462591171264648
0.4580698013305664,0.5462591171264648
0.4538869857788086,0.5378494262695312
0.4538869857788086,0.5378494262695312
0.4602567672729492,0.5451026916503906
0.4602567672729492,0.5451026916503906
0.4536432266235351,0.5437465667724609
0.4536432266235351,0.5437465667724609
0.4573768615722656,0.5415893554687500
0.4573768615722656,0.5415893554687500
0.4592519760131836,0.5481565475463867
0.4592519760131836,0.5481565475463867
0.4545570373535156,0.5394681930541992
0.4545570373535156,0.5394681930541992
0.4613748550415039,0.5459941864013672
0.4613748550415039,0.5459941864013672
0.4543407440185547,0.5455335617065430
0.4543407440185547,0.5455335617065430
0.4581058502197266,0.5426307678222656
0.4581058502197266,0.5426307678222656
0.4594253540039062,0.5488935470581054
0.4594253540039062,0.5488935470581054
0.4550502777099609,0.5395917892456055
0.4550502777099609,0.5395917892456055
0.4617301940917968,0.5472158432006836
0.4617301940917968,0.5472158432006836
0.4545690536499023,0.5461538314819335
0.4545690536499023,0.5461538314819335
0.4578643798828125,0.5428218841552734
0.4578643798828125,0.5428218841552734
0.4596055984497070,0.5494686126708984
0.4596055984497070,0.5494686126708984
0.4546342849731445,0.5397108078002929
0.4546342849731445,0.5397108078002929
0.4629226684570312,0.5484666824340820
0.4629226684570312,0.5484666824340820
0.4538377761840820,0.5467094421386719
0.4538377761840820,0.5467094421386719
0.4588994979858398,0.5428281784057617
0.4588994979858398,0.5428281784057617
0.4607437133789062,0.5514541625976562
0.4607437133789062,0.5514541625976562
0.4551544189453125,0.5409627914428711
0.4551544189453125,0.5409627914428711
0.4633913040161133,0.5496986389160156
0.4633913040161133,0.5496986389160156
0.4546863555908203,0.5476140975952148
0.4546863555908203,0.5476140975952148
0.4598396301269531,0.5450202941894531
0.4598396301269531,0.5450202941894531
0.4611705780029297,0.5520858764648438
0.4611705780029297,0.5520858764648438
0.4565986633300781,0.5433311462402344
0.4565986633300781,0.5433311462402344
0.4636814117431640,0.5501426696777344
0.4636814117431640,0.5501426696777344
0.4565454483032226,0.5499401092529297
0.4565454483032226,0.5499401092529297
0.4605171203613281,0.5472656250000000
0.4605171203613281,0.5472656250000000
0.4619041442871094,0.5537223815917969
0.4619041442871094,0.5537223815917969
0.4577785491943359,0.5445665359497071
0.4577785491943359,0.5445665359497071
0.4646398544311523,0.5524572372436524
0.4646398544311523,0.5524572372436524
0.4576269149780273,0.5515033721923828
0.4647365570068359,0.5515033721923828
0.4612335205078125,0.5487155914306641
0.4612335205078125,0.5487155914306641
0.4631223678588867,0.5548645019531250
0.4631223678588867,0.5548645019531250
0.4587982177734375,0.5467947006225585
0.4587982177734375,0.5467947006225585
0.4657030105590820,0.5544250488281249
0.4657030105590820,0.5544250488281249
0.4581647872924804,0.5531364440917969
0.4581647872924804,0.5531364440917969
0.4624008178710937,0.5498348236083984
0.4624008178710937,0.5498348236083984
0.4641294479370117,0.5570600509643554
0.4641294479370117,0.5570600509643554
0.4597606658935547,0.5484775543212891
0.4597606658935547,0.5484775543212891
0.4663078308105468,0.5557651519775391
0.4663078308105468,0.5557651519775391
0.4592782974243164,0.5539821624755860
0.4592782974243164,0.5539821624755860
0.4632751464843750,0.5519874572753906
0.4632751464843750,0.5519874572753906
0.4648595809936523,0.5586708068847656
0.4648595809936523,0.5586708068847656
0.4601697921752930,0.5497049331665039
0.4601697921752930,0.5497049331665039
0.4673212051391601,0.5564769744873047
0.4673212051391601,0.5564769744873047
0.4601119995117187,0.5560592651367188
0.4601119995117187,0.5560592651367188
0.4641105651855468,0.5534608840942382
0.4641105651855468,0.5534608840942382
0.4655319213867187,0.5599742889404297
0.4655319213867187,0.5599742889404297
0.4613548278808594,0.5507240295410156
0.4613548278808594,0.5507240295410156
0.4681921005249023,0.5587703704833984
0.4681921005249023,0.5587703704833984
0.4610635757446289,0.5578565597534180
0.4610635757446289,0.5578565597534180
0.4646232604980469,0.5549228668212890
0.4594539642333984,0.5549228668212890
0.4665367126464843,0.5608766555786132
0.4665367126464843,0.5608766555786132
0.4621685028076172,0.5526638031005859
0.4621685028076172,0.5526638031005859
0.4688684463500976,0.5596578598022460
0.4688684463500976,0.5596578598022460
0.4610229492187500,0.5577335357666016
0.4610229492187500,0.5577335357666016
0.4643411636352539,0.5532262802124023
0.4643411636352539,0.5532262802124023
0.4650077819824219,0.5587474822998046
0.4650077819824219,0.5587474822998046
0.4595541000366211,0.5482286453247071
0.4595541000366211,0.5482286453247071
0.4649185180664062,0.5535066604614257
0.4649185180664062,0.5535066604614257
0.4568904876708984,0.5499956130981445
0.4568904876708984,0.5499956130981445
0.4598087310791015,0.5463701248168945
0.4598087310791015,0.5463701248168945
0.4606761932373047,0.5514884948730469
0.4606761932373047,0.5514884948730469
0.4551990509033203,0.5414697647094726
0.4551990509033203,0.5414697647094726
0.4616065979003906,0.5473142623901367
0.4616065979003906,0.5473142623901367
0.4538864135742187,0.5461240768432617
0.4538864135742187,0.5461240768432617
0.4575822830200195,0.5427423477172851
0.4575822830200195,0.5427423477172851
0.4584028244018554,0.5484558105468750
0.4584028244018554,0.5484558105468750
0.4539201736450195,0.5386453628540039
0.4539201736450195,0.5386453628540039
0.4604564666748047,0.5462041854858398
0.4604564666748047,0.5462041854858398
0.4531734466552734,0.5446403503417968
0.4531734466552734,0.5446403503417968
0.4567125320434570,0.5417495727539062
0.4512107849121094,0.5417495727539062
0.4583662033081055,0.5475677490234375
0.4583662033081055,0.5475677490234375
0.4539493560791015,0.5394035339355469
0.4539493560791015,0.5394035339355469
0.4609777450561523,0.5469778060913085
0.4609777450561523,0.5469778060913085
0.4535064697265625,0.5458282470703125
0.4535064697265625,0.5458282470703125
0.4578077316284179,0.5427446365356445
0.4578077316284179,0.5427446365356445
0.4594264984130859,0.5499452590942383
0.4594264984130859,0.5499452590942383
0.4551984786987304,0.5413845062255859
0.4551984786987304,0.5413845062255859
0.4618595123291016,0.5488025665283203
0.4618595123291016,0.5488025665283203
0.4548402786254883,0.5471282958984375
0.4548402786254883,0.5471282958984375
0.4587558746337890,0.5450483322143554
0.4587558746337890,0.5450483322143554
0.4603334426879883,0.5515405654907226
0.4603334426879883,0.5515405654907226
0.4555297851562500,0.5423286437988281
0.4555297851562500,0.5423286437988281
0.4626348495483398,0.5491327285766602
0.4626348495483398,0.5491327285766602
0.4550800323486328,0.5481794357299804
0.4550800323486328,0.5481794357299804
0.4592142105102539,0.5455169677734375
0.4592142105102539,0.5455169677734375
0.4602882385253906,0.5517608642578125
0.4602882385253906,0.5517608642578125
0.4558639526367188,0.5421489715576172
0.4558639526367188,0.5421489715576172
0.4628271102905273,0.5500968933105469
0.4628271102905273,0.5500968933105469
0.4553564071655273,0.5487447738647461
0.4553564071655273,0.5487447738647461
0.4590654373168945,0.5459627151489258
0.4590654373168945,0.5459627151489258
0.4608060836791992,0.5518243789672851
0.4608060836791992,0.5518243789672851
0.4564115524291992,0.5435194015502930
0.4564115524291992,0.5435194015502930
0.4634227752685547,0.5509809494018555
0.4634227752685547,0.5509809494018555
0.4557271957397461,0.5496459960937500
0.4557271957397461,0.5496459960937500
0.4599889755249023,0.5465875625610351
0.4599889755249023,0.5465875625610351
0.4613822937011718,0.5536909103393555
0.4613822937011718,0.5536909103393555
0.4571125030517578,0.5449155807495117
0.4571125030517578,0.5449155807495117
0.4637695312500000,0.5522552490234375
0.4637695312500000,0.5522552490234375
0.4566644668579101,0.5505243301391601
0.4566644668579101,0.5505243301391601
0.4608575820922851,0.5485364913940429
0.4553913116455078,0.5485364913940429
0.4623733520507812,0.5551408767700196
0.4623733520507812,0.5551408767700196
0.4577693939208984,0.5462636947631836
0.4577693939208984,0.5462636947631836
0.4648595809936523,0.5532434463500976
0.4648595809936523,0.5532434463500976
0.4575616836547851,0.5526866912841797
0.4575616836547851,0.5526866912841797
0.4617565155029297,0.5503887176513672
0.4617565155029297,0.5503887176513672
0.4629936218261719,0.5566543579101563
0.4629936218261719,0.5566543579101563
0.4590316772460937,0.5474189758300781
0.4590316772460937,0.5474189758300781
0.4658500671386718,0.5555019378662109
0.4658500671386718,0.5555019378662109
0.4585813522338867,0.5542854309082031
0.4585813522338867,0.5542854309082031
0.4624437332153320,0.5518060684204101
0.4624437332153320,0.5518060684204101
0.4639720916748047,0.5575006484985351
0.4639720916748047,0.5575006484985351
0.4599191665649414,0.5494869232177734
0.4599191665649414,0.5494869232177734
0.4667181015014648,0.5569742202758788
0.4667181015014648,0.5569742202758788
0.4590242385864258,0.5554813385009766
0.4590242385864258,0.5554813385009766
0.4633420944213867,0.5524068832397461
0.4633420944213867,0.5524068832397461
0.4647439956665039,0.5594232559204101
0.4647439956665039,0.5594232559204101
0.4605657577514648,0.5507669448852539
0.4605657577514648,0.5507669448852539
0.4670888900756835,0.5580991744995117
0.4670888900756835,0.5580991744995117
0.4599094390869141,0.5561588287353515
0.4599094390869141,0.5561588287353515
0.4641700744628906,0.5543552398681640
0.4641700744628906,0.5543552398681640
0.4656137466430664,0.5609230041503906
0.4656137466430664,0.5609230041503906
0.4610778808593750,0.5520772933959961
0.4610778808593750,0.5520772933959961
0.4681451797485351,0.5589191436767578
0.4681451797485351,0.5589191436767578
0.4608936309814453,0.5582674026489257
0.4608936309814453,0.5582674026489257
0.4650712966918945,0.5559328079223632
0.4650712966918945,0.5559328079223632
0.4662059783935547,0.5621732711791992
0.4662059783935547,0.5621732711791992
0.4621376037597656,0.5529945373535156
0.4621376037597656,0.5529945373535156
0.4689754486083984,0.5608983993530273
0.4689754486083984,0.5608983993530273
0.4614194869995117,0.5594804763793945
0.4614194869995117,0.5594804763793945
0.4650180816650391,0.5561079025268555
0.4592113494873047,0.5561079025268555
0.4658620834350586,0.5605682373046875
0.4658620834350586,0.5605682373046875
0.4606859207153320,0.5508270263671875
0.4606859207153320,0.5508270263671875
0.4664211273193359,0.5564895629882812
0.4664211273193359,0.5564895629882812
0.4575479507446289,0.5529315948486327
0.4575479507446289,0.5529315948486327
0.4607488632202148,0.5481147766113281
0.4607488632202148,0.5481147766113281
0.4609622955322266,0.5533224105834961
0.4609622955322266,0.5533224105834961
0.4559532165527344,0.5434518814086914
0.4559532165527344,0.5434518814086914
0.4562330245971680,0.5430187225341797
0.4562330245971680,0.5430187225341797
0.4562330245971680,0.5433912277221680
0.4605445861816406,0.5499544143676758
0.4561677932739258,0.5499544143676758
0.4517377853393554,0.5436899185180664
0.4517377853393554,0.5436899185180664
0.4592594146728515,0.5445871353149414
0.4592594146728515,0.5445871353149414
0.4556928634643554,0.5471414566040039
0.4556928634643554,0.5471414566040039
0.4546279907226562,0.5408123016357421
0.4546279907226562,0.5408123016357421
0.4590402603149414,0.5484495162963867
0.4590402603149414,0.5484495162963867
0.4506008148193359,0.5412998199462891
0.4506008148193359,0.5412998199462891
0.4584548950195312,0.5433048248291016
0.4584548950195312,0.5433048248291016
0.4551361083984375,0.5462356567382812
0.4551361083984375,0.5462356567382812
0.4542629241943359,0.5408855438232422
0.4542629241943359,0.5408855438232422
0.4588760375976562,0.5479150772094726
0.4588760375976562,0.5479150772094726
0.4507415771484375,0.5418502807617187
0.4507415771484375,0.5418502807617187
0.4588869094848633,0.5442117691040039
0.4588869094848633,0.5442117691040039
0.4557312011718750,0.5480031967163086
0.4550411224365234,0.5418949127197266
0.4599294662475586,0.5495510101318359
0.4599294662475586,0.5495510101318359
0.4518636703491211,0.5434764862060547
0.4518636703491211,0.5434764862060547
0.4599220275878906,0.5463655471801757
0.4599220275878906,0.5463655471801757
0.4567068099975586,0.5489736557006836
0.4607551574707031,0.5489736557006836
0.4558759689331054,0.5430564880371094
0.4544609069824219,0.5430564880371094
0.4606000900268554,0.5505105972290039
0.4606000900268554,0.5505105972290039
0.4521989822387695,0.5447244644165039
0.4590099334716797,0.5447244644165039
0.4542640686035156,0.5461973190307617
0.4542640686035156,0.5461973190307617
0.4568075180053711,0.5493038177490234
0.4568075180053711,0.5493038177490234
0.4560224533081054,0.5433340072631836
0.4560224533081054,0.5433340072631836
0.4607442855834961,0.5513093948364257
0.4607442855834961,0.5513093948364257
0.4523780822753906,0.5445545196533202
0.4523780822753906,0.5445545196533202
0.4604164123535156,0.5466945648193359
0.4604164123535156,0.5466945648193359
0.4569774627685547,0.5498971939086914
0.4569774627685547,0.5498971939086914
0.4563995361328125,0.5446952819824219
0.4563995361328125,0.5446952819824219
0.4611001968383789,0.5515783309936523
0.4611001968383789,0.5515783309936523
0.4530006408691406,0.5455604553222656
0.4530006408691406,0.5455604553222656
0.4610710144042969,0.5478761672973632
0.4610710144042969,0.5478761672973632
0.4577098846435547,0.5516510009765625
0.4577098846435547,0.5516510009765625
0.4571451187133789,0.5455335617065430
0.4571451187133789,0.5455335617065430
0.4618846893310546,0.5531106948852539
0.4618846893310546,0.5531106948852539
0.4538749694824218,0.5469612121582031
0.4538749694824218,0.5469612121582031
0.4618623733520508,0.5500024795532227
0.4618623733520508,0.5500024795532227
0.4586380004882812,0.5526500701904297
0.4586380004882812,0.5526500701904297
0.4580801010131836,0.5469869613647461
0.4580801010131836,0.5469869613647461
0.4627115249633789,0.5546648025512695
0.4627115249633789,0.5546648025512695
0.4546691894531250,0.5491613388061524
0.4546691894531250,0.5491613388061524
0.4628459930419921,0.5510484695434570
0.4628459930419921,0.5510484695434570
0.4594465255737304,0.5540834426879883
0.4594465255737304,0.5540834426879883
0.4589441299438476,0.5485490798950196
0.4589441299438476,0.5485490798950196
0.4636831283569336,0.5568895339965820
0.4636831283569336,0.5568895339965820
0.4555561065673828,0.5501586914062500
0.4555561065673828,0.5501586914062500
0.4637191772460937,0.5526815414428711
0.4637191772460937,0.5526815414428711
0.4603591918945312,0.5557399749755859
0.4603591918945312,0.5557399749755859
0.4598464965820312,0.5507343292236327
0.4585081100463867,0.5507343292236327
0.4646661758422851,0.5576974868774414
0.4646661758422851,0.5576974868774414
0.4562976837158203,0.5516195297241211
0.4562976837158203,0.5516195297241211
0.4645826339721679,0.5539941787719727
0.4645826339721679,0.5539941787719727
0.4611001968383789,0.5575819015502930
0.4611001968383789,0.5575819015502930
0.4606063842773437,0.5515571594238281
0.4606063842773437,0.5515571594238281
0.4653814315795898,0.5590198516845702
0.4653814315795898,0.5590198516845702
0.4572074890136719,0.5528949737548828
0.4572074890136719,0.5528949737548828
0.4652858734130859,0.5558795928955078
0.4652858734130859,0.5558795928955078
0.4618806838989258,0.5585266113281250
0.4618806838989258,0.5585266113281250
0.4613605499267578,0.5530357360839844
0.4613605499267578,0.5530357360839844
0.4662157058715820,0.5605636596679687
0.4662157058715820,0.5605636596679687
0.4580966949462890,0.5549474716186523
0.4580966949462890,0.5549474716186523
0.4662460327148437,0.5571327209472656
0.4662460327148437,0.5571327209472656
0.4628866195678711,0.5603433609008789
0.4628866195678711,0.5603433609008789
0.4624368667602539,0.5546819686889648
0.4609296798706055,0.5546819686889648
0.4671014785766601,0.5627740859985352
0.4671014785766601,0.5627740859985352
0.4589601516723633,0.5559711456298828
0.4589601516723633,0.5559711456298828
0.4668067932128906,0.5581283569335938
0.4668067932128906,0.5581283569335938
0.4629461288452148,0.5603273391723632
0.4629461288452148,0.5603273391723632
0.4617645263671875,0.5539146423339844
0.4617645263671875,0.5539146423339844
0.4653619766235351,0.5589660644531250
0.4653619766235351,0.5589660644531250
0.4559543609619141,0.5507268905639648
0.4559543609619141,0.5507268905639648
0.4629970550537109,0.5512086868286132
0.4629970550537109,0.5512086868286132
0.4581310272216796,0.5528520584106446
0.4581310272216796,0.5528520584106446
0.4566175460815429,0.5452428817749023
0.4566175460815429,0.5452428817749023
0.4604610443115234,0.5511714935302734
0.4604610443115234,0.5511714935302734
0.4514390945434570,0.5435743331909180
0.4514390945434570,0.5435743331909180
0.4591112136840820,0.5456159591674804
0.4591112136840820,0.5456159591674804
0.4548053741455078,0.5472690582275390
0.4548053741455078,0.5472690582275390
0.4540117263793945,0.5408494949340820
0.4540117263793945,0.5408494949340820
0.4583438873291015,0.5477062225341797
0.4583438873291015,0.5477062225341797
0.4495857238769531,0.5412374496459961
0.4495857238769531,0.5412374496459961
0.4576595306396484,0.5427663803100585
0.4576595306396484,0.5427663803100585
0.4534715652465820,0.5451787948608399
0.4534715652465820,0.5451787948608399
0.4529949188232422,0.5394081115722656
0.4529949188232422,0.5394081115722656
0.4575628280639648,0.5470996856689453
0.4575628280639648,0.5470996856689453
0.4493396759033203,0.5402727127075195
0.4493396759033203,0.5402727127075195
0.4575141906738281,0.5427732467651367
0.4575141906738281,0.5427732467651367
0.4539224624633789,0.5457292556762695
0.4539224624633789,0.5457292556762695
0.4535264968872070,0.5410846710205078
0.4535264968872070,0.5410846710205078
0.4582952499389648,0.5478893280029297
0.4582952499389648,0.5478893280029297
0.4502981185913086,0.5417718887329102
0.4502981185913086,0.5417718887329102
0.4585229873657226,0.5444818496704101
0.4585229873657226,0.5444818496704101
0.4548557281494141,0.5479139328002930
0.4548557281494141,0.5479139328002930
0.4545444488525390,0.5421735763549804
0.4545444488525390,0.5421735763549804
0.4592033386230469,0.5494153976440429
0.4592033386230469,0.5494153976440429
0.4511209487915039,0.5429489135742187
0.4511209487915039,0.5429489135742187
0.4590803146362304,0.5459518432617188
0.4590803146362304,0.5459518432617188
0.4553358078002929,0.5482149124145508
0.4553358078002929,0.5482149124145508
0.4548585891723633,0.5427263259887695
0.4548585891723633,0.5427263259887695
0.4594511032104492,0.5497203826904297
0.4594511032104492,0.5497203826904297
0.4513360977172851,0.5440446853637695
0.4513360977172851,0.5440446853637695
0.4593881607055664,0.5458900451660156
0.4593881607055664,0.5458900451660156
0.4554988861083984,0.5487213134765625
0.4554988861083984,0.5487213134765625
0.4552087783813477,0.5433483123779297
0.4552087783813477,0.5433483123779297
0.4598133087158203,0.5511297225952149
0.4598133087158203,0.5511297225952149
0.4518476486206054,0.5443485260009765
0.4518476486206054,0.5443485260009765
0.4597560882568359,0.5468193054199219
0.4597560882568359,0.5468193054199219
0.4562044143676758,0.5497747421264648
0.4562044143676758,0.5497747421264648
0.4559165954589843,0.5451879501342773
0.4559165954589843,0.5451879501342773
0.4605400085449218,0.5518083572387695
0.4605400085449218,0.5518083572387695
0.4525823593139648,0.5457550048828125
0.4525823593139648,0.5457550048828125
0.4607328414916992,0.5483539581298827
0.4607328414916992,0.5483539581298827
0.4569974899291992,0.5519073486328124
0.4569974899291992,0.5519073486328124
0.4568813323974609,0.5462333679199218
0.4568813323974609,0.5462333679199218
0.4614440917968750,0.5534723281860351
0.4614440917968750,0.5534723281860351
0.4601182937622070,0.5472370147705078
0.4601182937622070,0.5539020538330078
0.4617748260498047,0.5493707656860352
0.4617748260498047,0.5505500793457031
0.4628871917724609,0.5531450271606445
0.4578586578369140,0.5476764678955078
0.4626022338867187,0.5538299560546874
0.4626022338867187,0.5552804946899413
0.4630937576293945,0.5496471405029296
0.4630937576293945,0.5496471405029296
0.4627704620361328,0.5519605636596679
0.4627704620361328,0.5519605636596679
0.4589149475097656,0.5549760818481445
0.4589149475097656,0.5549760818481445
0.4588994979858398,0.5497718811035156
0.4588994979858398,0.5497718811035156
0.4637271881103515,0.5576797485351562
0.4637271881103515,0.5576797485351562
0.4556076049804687,0.5509546279907226
0.4556076049804687,0.5509546279907226
0.4639509201049805,0.5536371231079101
0.4639509201049805,0.5536371231079101
0.4598917007446289,0.5565387725830078
0.4598917007446289,0.5565387725830078
0.4599494934082031,0.5519788742065429
0.4599494934082031,0.5519788742065429
0.4645385742187500,0.5587285995483399
0.4645385742187500,0.5587285995483399
0.4564756393432617,0.5525470733642578
0.4564756393432617,0.5525470733642578
0.4647508621215820,0.5551506042480469
0.4647508621215820,0.5551506042480469
0.4607751846313476,0.5586112976074219
0.4607751846313476,0.5586112976074219
0.4607831954956054,0.5529132843017578
0.4607831954956054,0.5529132843017578
0.4653894424438476,0.5601917266845703
0.4653894424438476,0.5601917266845703
0.4571743011474609,0.5536514282226562
0.4571743011474609,0.5536514282226562
0.4658374786376953,0.5573312759399414
0.4658374786376953,0.5573312759399414
0.4614870071411132,0.5596229553222656
0.4614870071411132,0.5596229553222656
0.4615613937377929,0.5541973114013672
0.4615613937377929,0.5541973114013672
0.4665424346923828,0.5621309280395508
0.4665424346923828,0.5621309280395508
0.4580835342407226,0.5559362411499024
0.4580835342407226,0.5559362411499024
0.4668960571289062,0.5584671020507812
0.4668960571289062,0.5584671020507812
0.4624603271484375,0.5614362716674804
0.4624603271484375,0.5614362716674804
0.4626903533935547,0.5559505462646485
0.4626903533935547,0.5559505462646485
0.4672805786132812,0.5639602661132812
0.4672805786132812,0.5639602661132812
0.4587381362915039,0.5563150405883789
0.4587381362915039,0.5563150405883789
0.4666030883789062,0.5581398010253906
0.4666030883789062,0.5581398010253906
0.4614566802978515,0.5593751907348633
0.4614566802978515,0.5593751907348633
0.4569288253784179,0.5565410614013672
0.4569288253784179,0.5548290252685547
0.4609949111938476,0.5505146026611328
0.4609949111938476,0.5505146026611328
0.4604541778564453,0.5543626785278321
0.4604541778564453,0.5543626785278321
0.4553071975708007,0.5445053100585937
0.4553071975708007,0.5445053100585937
0.4617136001586914,0.5509820938110351
0.4617136001586914,0.5509820938110351
0.4523025512695312,0.5478281021118164
0.4523025512695312,0.5478281021118164
0.4574380874633789,0.5440315246582031
0.4574380874633789,0.5440315246582031
0.4573728561401367,0.5502182006835937
0.4573728561401367,0.5502182006835937
0.4529794692993164,0.5408901214599610
0.4529794692993164,0.5408901214599610
0.4595014572143554,0.5477783203125000
0.4595014572143554,0.5477783203125000
0.4511054992675781,0.5448835372924804
0.4511054992675781,0.5448835372924804
0.4564195632934570,0.5429901123046875
0.4564195632934570,0.5429901123046875
0.4566873550415039,0.5488946914672851
0.4566873550415039,0.5488946914672851
0.4521783828735351,0.5400043487548828
0.4521783828735351,0.5400043487548828
0.4594648361206055,0.5470630645751953
0.4594648361206055,0.5470630645751953
0.4511255264282226,0.5458614349365234
0.4511255264282226,0.5458614349365234
0.4570650100708007,0.5440801620483399
0.4570650100708007,0.5440801620483399
0.4572841644287109,0.5502285003662110
0.4572841644287109,0.5502285003662110
0.4534280776977539,0.5411579132080078
0.4534280776977539,0.5411579132080078
0.4607397079467773,0.5496969223022461
0.4607397079467773,0.5496969223022461
0.4525440216064453,0.5479190826416015
0.4525440216064453,0.5479190826416015
0.4579742431640625,0.5458236694335937
0.4579742431640625,0.5458236694335937
0.4584932327270508,0.5513940811157226
0.4584932327270508,0.5513940811157226
0.4544900894165039,0.5435005187988281
0.4544900894165039,0.5435005187988281
0.4615350723266601,0.5511045455932617
0.4615350723266601,0.5511045455932617
0.4528913497924805,0.5489639282226563
0.4528913497924805,0.5489639282226563
0.4587032318115234,0.5461269378662109
0.4587032318115234,0.5461269378662109
0.4588571548461914,0.5525293350219727
0.4588571548461914,0.5525293350219727
0.4548820495605468,0.5439720153808594
0.4548820495605468,0.5439720153808594
0.4613565444946289,0.5511383056640625
0.4613565444946289,0.5511383056640625
0.4532798767089843,0.5485937118530273
0.4532798767089843,0.5485937118530273
0.4587593078613281,0.5470996856689453
0.4587593078613281,0.5470996856689453
0.4590213775634766,0.5530586242675781
0.4590213775634766,0.5530586242675781
0.4548728942871094,0.5443662643432617
0.4548728942871094,0.5443662643432617
0.4618595123291016,0.5512407302856445
0.4618595123291016,0.5512407302856445
0.4537982940673828,0.5499200820922852
0.4537982940673828,0.5499200820922852
0.4594156265258789,0.5480089187622070
0.4594156265258789,0.5480089187622070
0.4592628479003906,0.5538408279418945
0.4592628479003906,0.5538408279418945
0.4557729721069336,0.5450019836425781
0.4557729721069336,0.5450019836425781
0.4626125335693359,0.5531587600708008
0.4626125335693359,0.5531587600708008
0.4545576095581054,0.5515245437622071
0.4545576095581054,0.5515245437622071
0.4599191665649414,0.5493312835693359
0.4599191665649414,0.5493312835693359
0.4604146957397461,0.5547655105590820
0.4604146957397461,0.5547655105590820
0.4566295623779297,0.5471403121948242
0.4566295623779297,0.5471403121948242
0.4635715484619141,0.5547872543334961
0.4635715484619141,0.5547872543334961
0.4553432464599609,0.5529521942138672
0.4553432464599609,0.5529521942138672
0.4610933303833007,0.5503011703491211
0.4610933303833007,0.5503011703491211
0.4613473892211914,0.5570629119873046
0.4613473892211914,0.5570629119873046
0.4576240539550781,0.5489713668823242
0.4576240539550781,0.5489713668823242
0.4643102645874023,0.5564495086669922
0.4643102645874023,0.5564495086669922
0.4562902450561523,0.5539106369018555
0.4647027969360351,0.5539106369018555
0.4621616363525390,0.5526477813720703
0.4621616363525390,0.5526477813720703
0.4624740600585937,0.5590456008911132
0.4624740600585937,0.5590456008911132
0.4582757949829102,0.5503005981445312
0.4582757949829102,0.5503005981445312
0.4655845642089844,0.5575012207031250
0.4655845642089844,0.5575012207031250
0.4572195053100586,0.5561559677124023
0.4572195053100586,0.5561559677124023
0.4631950378417968,0.5544582366943359
0.4631950378417968,0.5544582366943359
0.4630044937133789,0.5602952957153320
0.4630044937133789,0.5602952957153320
0.4592960357666016,0.5510862350463867
0.4592960357666016,0.5510862350463867
0.4664154052734375,0.5595205307006835
0.4664154052734375,0.5595205307006835
0.4580308914184570,0.5575738906860351
0.4580308914184570,0.5575738906860351
0.4636550903320312,0.5553874969482422
0.4636550903320312,0.5553874969482422
0.4638902664184570,0.5608989715576171
0.4638902664184570,0.5608989715576171
0.4599958419799804,0.5530448913574219
0.4599958419799804,0.5530448913574219
0.4672502517700195,0.5609424591064452
0.4672502517700195,0.5609424591064452
0.4585298538208007,0.5588390350341796
0.4585298538208007,0.5588390350341796
0.4646472930908203,0.5561943054199219
0.4646472930908203,0.5561943054199219
0.4647617340087891,0.5631397247314452
0.4647617340087891,0.5631397247314452
0.4609056472778320,0.5546167373657226
0.4609056472778320,0.5546167373657226
0.4678516387939453,0.5622505187988281
0.4678516387939453,0.5622505187988281
0.4594654083251953,0.5596687316894531
0.4594654083251953,0.5596687316894531
0.4656126022338867,0.5584161758422851
0.4591890335083008,0.5584161758422851
0.4656663894653320,0.5646795272827149
0.4656663894653320,0.5646795272827149
0.4612615585327148,0.5554527282714844
0.4612615585327148,0.5554527282714844
0.4681800842285156,0.5616279602050781
0.4681800842285156,0.5616279602050781
0.4587833404541015,0.5588951110839844
0.4587833404541015,0.5588951110839844
0.4638010025024414,0.5550796508789062
0.4638010025024414,0.5550796508789062
0.4622817993164062,0.5590164184570312
0.4622817993164062,0.5590164184570312
0.4573219299316406,0.5478939056396485
0.4573219299316406,0.5478939056396485
0.4634696960449218,0.5544765472412109
0.4634696960449218,0.5544765472412109
0.4536838531494141,0.5508207321166992
0.4536838531494141,0.5508207321166992
0.4587913513183594,0.5471517562866210
0.4587913513183594,0.5471517562866210
0.4581007003784179,0.5514055252075195
0.4581007003784179,0.5514055252075195
0.4534698486328125,0.5424299240112305
0.4534698486328125,0.5424299240112305
0.4603494644165039,0.5494102478027344
0.4603494644165039,0.5494102478027344
0.4506980895996093,0.5463609695434570
0.4506980895996093,0.5463609695434570
0.4569305419921875,0.5430690765380859
0.4569305419921875,0.5430690765380859
0.4564332962036133,0.5492723464965820
0.4564332962036133,0.5492723464965820
0.4521926879882812,0.5401903152465820
0.4521926879882812,0.5401903152465820
0.4590047836303711,0.5476100921630859
0.4590047836303711,0.5476100921630859
0.4501167297363281,0.5445035934448242
0.4501167297363281,0.5445035934448242
0.4565328598022461,0.5429460525512695
0.4565328598022461,0.5429460525512695
0.4563119888305664,0.5491916656494140
0.4563119888305664,0.5491916656494140
0.4520982742309570,0.5403688430786132
0.4520982742309570,0.5403688430786132
0.4597949981689453,0.5478012084960937
0.4597949981689453,0.5478012084960937
0.4509309768676757,0.5463426589965820
0.4509309768676757,0.5463426589965820
0.4575050354003906,0.5446117401123046
0.4575050354003906,0.5446117401123046
0.4571142196655273,0.5506782531738281
0.4571142196655273,0.5506782531738281
0.4533559799194335,0.5415046691894531
0.4533559799194335,0.5415046691894531
0.4607540130615234,0.5500871658325195
0.4607540130615234,0.5500871658325195
0.4520050048828125,0.5478698730468750
0.4520050048828125,0.5478698730468750
0.4581447601318359,0.5457635879516601
0.4581447601318359,0.5457635879516601
0.4579135894775390,0.5512332916259766
0.4579135894775390,0.5512332916259766
0.4539596557617187,0.5431314468383789
0.4539596557617187,0.5431314468383789
0.4612661361694336,0.5509849548339844
0.4612661361694336,0.5509849548339844
0.4518453598022460,0.5483585357666015
0.4518453598022460,0.5483585357666015
0.4585750579833984,0.5455541610717773
0.4585750579833984,0.5455541610717773
0.4582283020019531,0.5521379470825195
0.4582283020019531,0.5521379470825195
0.4542938232421875,0.5434484481811523
0.4542938232421875,0.5434484481811523
0.4612569808959961,0.5512189865112305
0.4612569808959961,0.5512189865112305
0.4524393081665039,0.5482503890991210
0.4524393081665039,0.5482503890991210
0.4588994979858398,0.5468713760375976
0.4588994979858398,0.5468713760375976
0.4587713241577148,0.5532222747802734
0.4587713241577148,0.5532222747802734
0.4544815063476562,0.5442758560180664
0.4544815063476562,0.5442758560180664
0.4620483398437500,0.5516710281372070
0.4620483398437500,0.5516710281372070
0.4532730102539062,0.5501409530639648
0.4532730102539062,0.5501409530639648
0.4598733901977539,0.5483373641967774
0.4598733901977539,0.5483373641967774
0.4592548370361328,0.5543958663940429
0.4592548370361328,0.5543958663940429
0.4555366516113281,0.5451890945434570
0.4555366516113281,0.5451890945434570
0.4629438400268555,0.5539146423339844
0.4629438400268555,0.5539146423339844
0.4541015625000000,0.5518672943115234
0.4541015625000000,0.5518672943115234
0.4605154037475586,0.5499120712280273
0.4539281845092773,0.5499120712280273
0.4604490280151367,0.5555528640747071
0.4604490280151367,0.5555528640747071
0.4567171096801758,0.5475156784057617
0.4567171096801758,0.5475156784057617
0.4640699386596679,0.5556421279907227
0.4640699386596679,0.5556421279907227
0.4548826217651367,0.5533578872680663
0.4548826217651367,0.5533578872680663
0.4617685317993164,0.5509449005126953
0.4617685317993164,0.5509449005126953
0.4615510940551757,0.5579481124877930
0.4615510940551757,0.5579481124877930
0.4577728271484375,0.5495899200439452
0.4577728271484375,0.5495899200439452
0.4648452758789062,0.5573919296264648
0.4648452758789062,0.5573919296264648
0.4560991287231445,0.5544828414916992
0.4560991287231445,0.5544828414916992
0.4627744674682617,0.5533864974975585
0.4627744674682617,0.5533864974975585
0.4625530242919922,0.5596847534179688
0.4625530242919922,0.5596847534179688
0.4585401535034179,0.5510353088378906
0.4585401535034179,0.5510353088378906
0.4659513473510742,0.5584293365478515
0.4659513473510742,0.5584293365478515
0.4570690155029297,0.5568208694458008
0.4570690155029297,0.5568208694458008
0.4638999938964843,0.5551649093627929
0.4638999938964843,0.5551649093627929
0.4631315231323242,0.5611112594604492
0.4631315231323242,0.5611112594604492
0.4596284866333007,0.5518386840820312
0.4596284866333007,0.5518386840820312
0.4668205261230469,0.5603708267211914
0.4668205261230469,0.5603708267211914
0.4579467773437500,0.5582885742187500
0.4579467773437500,0.5582885742187500
0.4644235610961914,0.5564208984375000
0.4644235610961914,0.5564208984375000
0.4642089843750000,0.5618585586547852
0.4658918380737305,0.5618585586547852
0.4604141235351562,0.5539999008178711
0.4604141235351562,0.5539999008178711
0.4678264617919922,0.5621847152709961
0.4678264617919922,0.5621847152709961
0.4585063934326172,0.5598346710205078
0.4585063934326172,0.5598346710205078
0.4655485153198242,0.5575550079345702
0.4655485153198242,0.5575550079345702
0.4652269363403320,0.5643796920776367
0.4652269363403320,0.5643796920776367
0.4616964340209961,0.5559253692626953
0.4616964340209961,0.5559253692626953
0.4636631011962891,0.5584985733032226
0.4605463027954101,0.5584985733032226
0.4681377410888672,0.5655715942382812
0.4651559829711914,0.5655715942382812
0.4601251602172851,0.5588642120361328
0.4601251602172851,0.5588642120361328
0.4680576324462891,0.5607959747314453
0.4680576324462891,0.5607959747314453
0.4617856979370117,0.5615392684936523
0.4617856979370117,0.5615392684936523
0.4616884231567382,0.5544507980346679
0.4616884231567382,0.5544507980346679
0.4646152496337890,0.5599439620971679
0.4646152496337890,0.5599439620971679
0.4555177688598633,0.5505168914794921
0.4555177688598633,0.5505168914794921
0.4626131057739258,0.5519325256347656
0.4626131057739258,0.5519325256347656
0.4563686370849609,0.5526271820068359
0.4563686370849609,0.5526271820068359
0.4564624786376953,0.5466270446777344
0.4564624786376953,0.5466270446777344
0.4599351882934570,0.5520132064819335
0.4599351882934570,0.5520132064819335
0.4516141891479492,0.5441596984863281
0.4516141891479492,0.5441596984863281
0.4595054626464843,0.5466304779052734
0.4595054626464843,0.5466304779052734
0.4536420822143554,0.5487854003906250
0.4536420822143554,0.5487854003906250
0.4543424606323242,0.5425758361816406
0.4543424606323242,0.5425758361816406
0.4581150054931640,0.5489976882934570
0.4581150054931640,0.5489976882934570
0.4502185821533203,0.5416963577270507
0.4502185821533203,0.5416963577270507
0.4585046768188477,0.5452646255493164
0.4585046768188477,0.5452646255493164
0.4528312683105469,0.5467964172363281
0.4528312683105469,0.5467964172363281
0.4539688110351562,0.5416437149047851
0.4539688110351562,0.5416437149047851
0.4581115722656250,0.5487819671630859
0.4581115722656250,0.5487819671630859
0.4504531860351562,0.5425655364990234
0.4504531860351562,0.5425655364990234
0.4589675903320312,0.5455341339111328
0.4589675903320312,0.5455341339111328
0.4535196304321289,0.5480718612670898
0.4535196304321289,0.5480718612670898
0.4549758911132812,0.5433568954467773
0.4517000198364258,0.5433568954467773
0.4592777252197265,0.5510313034057617
0.4592777252197265,0.5510313034057617
0.4516679763793945,0.5438512802124024
0.4516679763793945,0.5438512802124024
0.4601194381713867,0.5474138259887695
0.4601194381713867,0.5474138259887695
0.4546297073364258,0.5497684478759766
0.4546297073364258,0.5497684478759766
0.4557826995849609,0.5453424453735352
0.4557826995849609,0.5453424453735352
0.4600118637084961,0.5517923355102539
0.4600118637084961,0.5517923355102539
0.4522830963134765,0.5448057174682617
0.4522830963134765,0.5448057174682617
0.4607368469238281,0.5482543945312500
0.4607368469238281,0.5482543945312500
0.4549261093139648,0.5507892608642578
0.4549261093139648,0.5507892608642578
0.4561632156372070,0.5451324462890624
0.4561632156372070,0.5451324462890624
0.4601491928100586,0.5522495269775390
0.4601491928100586,0.5522495269775390
0.4524942398071289,0.5451175689697265
0.4524942398071289,0.5451175689697265
0.4609188079833984,0.5490617752075195
0.4609188079833984,0.5490617752075195
0.4552219390869141,0.5509134292602539
0.4552219390869141,0.5509134292602539
0.4564756393432617,0.5457939147949219
0.4564756393432617,0.5457939147949219
0.4606143951416015,0.5528915405273437
0.4606143951416015,0.5528915405273437
0.4529846191406250,0.5465246200561523
0.4529846191406250,0.5465246200561523
0.4614446640014648,0.5495607376098632
0.4614446640014648,0.5495607376098632
0.4558805465698242,0.5519365310668946
0.4558805465698242,0.5519365310668946
0.4572418212890625,0.5470899581909180
0.4572418212890625,0.5470899581909180
0.4612924575805664,0.5547414779663086
0.4612924575805664,0.5547414779663086
0.4539138793945312,0.5474515914916992
0.4539138793945312,0.5474515914916992
0.4622995376586914,0.5511720657348632
0.4622995376586914,0.5511720657348632
0.4567760467529297,0.5535209655761718
0.4567760467529297,0.5535209655761718
0.4582729339599609,0.5493295669555663
0.4582729339599609,0.5493295669555663
0.4623910903930664,0.5559516906738281
0.4623910903930664,0.5559516906738281
0.4550594329833984,0.5493198394775390
0.4624082565307617,0.5493198394775390
0.4634645462036133,0.5529962539672851
0.4634645462036133,0.5529962539672851
0.4579170227050781,0.5559511184692383
0.4579170227050781,0.5559511184692383
0.4594047546386719,0.5507223129272460
0.4594047546386719,0.5507223129272460
0.4633438110351562,0.5579996109008789
0.4633438110351562,0.5579996109008789
0.4561655044555664,0.5513156890869141
0.4561655044555664,0.5513156890869141
0.4645557403564453,0.5555076599121094
0.4645557403564453,0.5555076599121094
0.4590620040893554,0.5574880599975586
0.4590620040893554,0.5574880599975586
0.4605451583862304,0.5527667999267578
0.4605451583862304,0.5527667999267578
0.4646467208862304,0.5598878860473633
0.4646467208862304,0.5598878860473633
0.4572933197021484,0.5536714553833008
0.4572933197021484,0.5536714553833008
0.4657642364501953,0.5568420410156250
0.4657642364501953,0.5568420410156250
0.4599952697753906,0.5590290069580078
0.4599952697753906,0.5590290069580078
0.4615230560302734,0.5543077468872070
0.4615230560302734,0.5543077468872070
0.4655239105224609,0.5618831634521484
0.4655239105224609,0.5618831634521484
0.4581584930419922,0.5545904159545898
0.4581584930419922,0.5545904159545898
0.4665761947631836,0.5582353591918945
0.4665761947631836,0.5582353591918945
0.4607597351074219,0.5605945587158203
0.4607597351074219,0.5605945587158203
0.4623081207275390,0.5563402175903320
0.4623081207275390,0.5563402175903320
0.4663541793823242,0.5629245758056640
0.4663541793823242,0.5629245758056640
0.4589555740356445,0.5562108993530274
0.4589555740356445,0.5562108993530274
0.4674854278564453,0.5598026275634765
0.4674854278564453,0.5598026275634765
0.4618085861206054,0.5627958297729492
0.4618085861206054,0.5627958297729492
0.4633323669433593,0.5575275421142578
0.4633323669433593,0.5575275421142578
0.4673206329345703,0.5647716522216797
0.4673206329345703,0.5647716522216797
0.4600496292114258,0.5579750061035156
0.4600496292114258,0.5579750061035156
0.4686098098754883,0.5622310638427734
0.4686098098754883,0.5622310638427734
0.4627298355102539,0.5640031814575195
0.4627298355102539,0.5640031814575195
0.4641935348510742,0.5589981079101562
0.4641935348510742,0.5589981079101562
0.4680164337158203,0.5656929016113281
0.4680164337158203,0.5656929016113281
0.4602367401123046,0.5582639694213867
0.4602367401123046,0.5582639694213867
0.4675741195678711,0.5597494125366210
0.4675741195678711,0.5597494125366210
0.4605525970458984,0.5600303649902344
0.4605525970458984,0.5600303649902344
0.4609262466430664,0.5530900955200195
0.4609262466430664,0.5530900955200195
0.4634828567504883,0.5585552215576172
0.4634828567504883,0.5585552215576172
0.4551446914672851,0.5490863800048827
0.4551446914672851,0.5490863800048827
0.4623367309570312,0.5511011123657227
0.4623367309570312,0.5511011123657227
0.4556985855102539,0.5518918991088867
0.4556985855102539,0.5518918991088867
0.4566112518310547,0.5465641021728516
0.4566112518310547,0.5465641021728516
0.4597795486450195,0.5520298004150390
0.4597795486450195,0.5520298004150390
0.4521348953247070,0.5442792892456054
0.4521348953247070,0.5442792892456054
0.4601400375366211,0.5473320007324218
0.4601400375366211,0.5473320007324218
0.4538412094116211,0.5493684768676758
0.4538412094116211,0.5493684768676758
0.4553117752075195,0.5436161041259765
0.4553117752075195,0.5436161041259765
0.4588479995727539,0.5503160476684570
0.4588479995727539,0.5503160476684570
0.4515758514404297,0.5430736541748047
0.4515758514404297,0.5430736541748047
0.4597383499145508,0.5471826553344726
0.4597383499145508,0.5471826553344726
0.4537845611572265,0.5486600875854492
0.4537845611572265,0.5486600875854492
0.4554977416992188,0.5439777374267578
0.4554977416992188,0.5439777374267578
0.4593194961547851,0.5511034011840820
0.4593194961547851,0.5511034011840820
0.4522430419921875,0.5448148727416992
0.4522430419921875,0.5448148727416992
0.4608198165893554,0.5481822967529296
0.4608198165893554,0.5481822967529296
0.4547080993652344,0.5502296447753906
0.4547080993652344,0.5502296447753906
0.4566272735595703,0.5458436965942383
0.4566272735595703,0.5458436965942383
0.4603425979614257,0.5532617568969727
0.4603425979614257,0.5532617568969727
0.4532690048217773,0.5458499908447265
0.4532690048217773,0.5458499908447265
0.4616277694702148,0.5496374130249023
0.4616277694702148,0.5496374130249023
0.4555526733398437,0.5514816284179688
0.4555526733398437,0.5514816284179688
0.4572189331054687,0.5472398757934570
0.4572189331054687,0.5472398757934570
0.4607414245605468,0.5534557342529297
0.4607414245605468,0.5534557342529297
0.4535951614379883,0.5463397979736327
0.4535951614379883,0.5463397979736327
0.4618291854858398,0.5498353958129882
0.4618291854858398,0.5498353958129882
0.4557003021240234,0.5521825790405274
0.4557003021240234,0.5521825790405274
0.4573528289794921,0.5469211578369141
0.4573528289794921,0.5469211578369141
0.4609027862548828,0.5537641525268554
0.4609027862548828,0.5537641525268554
0.4538932800292969,0.5467432022094726
0.4538932800292969,0.5467432022094726
0.4620185852050781,0.5509483337402343
0.4620185852050781,0.5509483337402343
0.4559835433959961,0.5524097442626953
0.4559835433959961,0.5524097442626953
0.4577653884887695,0.5477296829223632
0.4577653884887695,0.5477296829223632
0.4614206314086914,0.5547929763793945
0.4614206314086914,0.5547929763793945
0.4544528961181640,0.5480907440185546
0.4544528961181640,0.5480907440185546
0.4627756118774414,0.5516813278198242
0.4627756118774414,0.5516813278198242
0.4566839218139648,0.5536897659301757
0.4566839218139648,0.5536897659301757
0.4585350036621094,0.5490354537963867
0.4585350036621094,0.5490354537963867
0.4624059677124023,0.5567453384399413
0.4624059677124023,0.5567453384399413
0.4552825927734375,0.5492305755615234
0.4621187210083008,0.5492305755615234
0.4636716842651367,0.5531862258911132
0.4636716842651367,0.5531862258911132
0.4576372146606445,0.5552507400512695
0.4576372146606445,0.5552507400512695
0.4596101760864257,0.5513145446777343
0.4596101760864257,0.5513145446777343
0.4632368087768555,0.5580499649047851
0.4632368087768555,0.5580499649047851
0.4563285827636718,0.5508441925048828
0.4563285827636718,0.5508441925048828
0.4647336959838867,0.5550069808959961
0.4647336959838867,0.5550069808959961
0.4586654663085937,0.5576065063476562
0.4586654663085937,0.5576065063476562
0.4606904983520508,0.5526203155517578
0.4606904983520508,0.5526203155517578
0.4642765045166015,0.5598197937011719
0.4642765045166015,0.5598197937011719
0.4574598312377929,0.5527273178100586
0.4574598312377929,0.5527273178100586
0.4657894134521484,0.5573827743530273
0.4657894134521484,0.5573827743530273
0.4596908569335937,0.5588573455810547
0.4596908569335937,0.5588573455810547
0.4617628097534179,0.5544256210327149
0.4617628097534179,0.5544256210327149
0.4652601242065429,0.5615581512451172
0.4652601242065429,0.5615581512451172
0.4585132598876953,0.5549085617065429
0.4585132598876953,0.5549085617065429
0.4668869018554687,0.5584493637084961
0.4668869018554687,0.5584493637084961
0.4605148315429687,0.5603439331054687
0.4605148315429687,0.5603439331054687
0.4626697540283203,0.5558784484863281
0.4626697540283203,0.5558784484863281
0.4661647796630859,0.5635019302368164
0.4661647796630859,0.5635019302368164
0.4593109130859375,0.5558498382568359
0.4593109130859375,0.5558498382568359
0.4676731109619141,0.5599439620971679
0.4676731109619141,0.5599439620971679
0.4614131927490234,0.5618156433105469
0.4614131927490234,0.5618156433105469
0.4679952621459961,0.5602237701416015
0.4670282363891601,0.5602237701416015
0.4660818099975585,0.5592172622680663
0.4660818099975585,0.5592172622680663
0.4652297973632812,0.5639053344726562
0.4652297973632812,0.5639053344726562
0.4624305725097656,0.5564294815063476
0.4624305725097656,0.5564294815063476
0.4691516876220703,0.5649547576904297
0.4691516876220703,0.5649547576904297
0.4596971511840820,0.5619947433471679
0.4596971511840820,0.5619947433471679
0.4674242019653320,0.5603319168090820
0.4674242019653320,0.5603319168090820
0.4661098480224609,0.5662015914916992
0.4661098480224609,0.5662015914916992
0.4630107879638672,0.5571727752685547
0.4630107879638672,0.5571727752685547
0.4686401367187500,0.5640249252319336
0.4686401367187500,0.5640249252319336
0.4586374282836914,0.5586187362670898
0.4586374282836914,0.5586187362670898
0.4647657394409179,0.5561239242553710
0.4647657394409179,0.5561239242553710
0.4621828079223633,0.5591611862182617
0.4639663696289062,0.5591611862182617
0.4578454971313476,0.5484695434570312
0.4585824966430664,0.5484695434570312
0.4632774353027344,0.5539987564086913
0.4573116302490234,0.5539987564086913
0.4531951904296875,0.5501890182495117
0.4617479324340820,0.5501890182495117
0.4598670959472656,0.5477783203125000
0.4530961990356445,0.5477783203125000
0.4574306488037109,0.5515331268310547
0.4574306488037109,0.5515331268310547
0.4542474746704102,0.5414274215698242
0.4542474746704102,0.5414274215698242
0.4602916717529297,0.5495344161987304
0.4602916717529297,0.5495344161987304
0.4506757736206055,0.5460165023803710
0.4506757736206055,0.5460165023803710
0.4575634002685547,0.5440790176391601
0.4575634002685547,0.5440790176391601
0.4560791015625000,0.5480524063110351
0.4585813522338867,0.5480524063110351
0.4528982162475585,0.5397233963012695
0.4528982162475585,0.5397233963012695
0.4593858718872070,0.5478635787963867
0.4593858718872070,0.5478635787963867
0.4497465133666992,0.5444538116455078
0.4497465133666992,0.5444538116455078
0.4573728561401367,0.5426445007324219
0.4573728561401367,0.5426445007324219
0.4559246063232422,0.5485937118530273
0.4586671829223632,0.5485937118530273
0.4532518386840820,0.5401840209960938
0.4532518386840820,0.5401840209960938
0.4596010208129883,0.5486240386962891
0.4596010208129883,0.5486240386962891
0.4505693435668945,0.5450031280517578
0.4505693435668945,0.5450031280517578
0.4582036972045898,0.5448486328125000
0.4582036972045898,0.5448486328125000
0.4570564270019531,0.5502548217773438
0.4570564270019531,0.5502548217773438
0.4539876937866211,0.5416128158569335
0.4539876937866211,0.5416128158569335
0.4606910705566406,0.5494955062866210
0.4606910705566406,0.5494955062866210
0.4514940261840820,0.5470996856689453
0.4514940261840820,0.5470996856689453
0.4592073440551758,0.5462350845336914
0.4592073440551758,0.5462350845336914
0.4572795867919922,0.5510965347290039
0.4572795867919922,0.5510965347290039
0.4546972274780273,0.5416608810424804
0.4546972274780273,0.5416608810424804
0.4611928939819336,0.5506456375122070
0.4611928939819336,0.5506456375122070
0.4518150329589843,0.5474624633789062
0.4518150329589843,0.5474624633789062
0.4591129302978516,0.5462293624877930
0.4591129302978516,0.5462293624877930
0.4576772689819336,0.5504888534545899
0.4576772689819336,0.5504888534545899
0.4548849105834961,0.5426759719848633
0.4548849105834961,0.5426759719848633
0.4614154815673828,0.5511028289794921
0.4614154815673828,0.5511028289794921
0.4518888473510742,0.5477548599243164
0.4518888473510742,0.5477548599243164
0.4596330642700195,0.5460874557495117
0.4596330642700195,0.5460874557495117
0.4580738067626953,0.5518959045410156
0.4580738067626953,0.5518959045410156
0.4554227828979492,0.5435995101928711
0.4554227828979492,0.5435995101928711
0.4616352081298828,0.5518232345581054
0.4616352081298828,0.5518232345581054
0.4526006698608398,0.5481302261352539
0.4526006698608398,0.5481302261352539
0.4602727890014648,0.5480003356933594
0.4602727890014648,0.5480003356933594
0.4588233947753906,0.5532920837402343
0.4588233947753906,0.5532920837402343
0.4559543609619141,0.5448669433593750
0.4559543609619141,0.5448669433593750
0.4626268386840820,0.5525888442993164
0.4626268386840820,0.5525888442993164
0.4534154891967773,0.5502765655517577
0.4534154891967773,0.5502765655517577
0.4612318038940429,0.5495887756347656
0.4612318038940429,0.5495887756347656
0.4595506668090820,0.5547969818115234
0.4595506668090820,0.5547969818115234
0.4570026397705078,0.5457784652709960
0.4570026397705078,0.5457784652709960
0.4635927200317382,0.5550962448120117
0.4635927200317382,0.5550962448120117
0.4545146942138671,0.5521757125854492
0.4545146942138671,0.5521757125854492
0.4621067047119141,0.5514324188232421
0.4621067047119141,0.5514324188232421
0.4606996536254883,0.5559883117675781
0.4606996536254883,0.5559883117675781
0.4582357406616211,0.5483345031738281
0.4582357406616211,0.5483345031738281
0.4646244049072266,0.5569490432739258
0.4646244049072266,0.5569490432739258
0.4554885864257812,0.5537801742553711
0.4554885864257812,0.5537801742553711
0.4631526947021484,0.5525796890258788
0.4631526947021484,0.5525796890258788
0.4617193222045898,0.5583950042724609
0.4617193222045898,0.5583950042724609
0.4592857360839844,0.5504739761352538
0.4592857360839844,0.5504739761352538
0.4653350830078125,0.5584333419799804
0.4653350830078125,0.5584333419799804
0.4566610336303711,0.5548341751098632
0.4566610336303711,0.5548341751098632
0.4640567779541016,0.5547632217407227
0.4640567779541016,0.5547632217407227
0.4626199722290039,0.5597900390625000
0.4626199722290039,0.5597900390625000
0.4598854064941406,0.5515748977661132
0.4598854064941406,0.5515748977661132
0.4662923812866211,0.5591491699218750
0.4610755920410156,0.5591491699218750
0.4576034545898438,0.5571458816528320
0.4664096832275391,0.5571458816528320
0.4649259567260742,0.5565067291259765
0.4589973449707031,0.5565067291259765
0.4633575439453125,0.5612560272216797
0.4633575439453125,0.5612560272216797
0.4609937667846680,0.5528085708618163
0.4609937667846680,0.5528085708618163
0.4672542572021484,0.5616680145263672
0.4672542572021484,0.5616680145263672
0.4663078308105468,0.5635225296020507
0.4604301452636719,0.5565055847167969
0.4604301452636719,0.5565055847167969
0.4681308746337891,0.5609046936035156
0.4681308746337891,0.5609046936035156
0.4620809555053711,0.5629457473754883
0.4620809555053711,0.5629457473754883
0.4642919540405273,0.5583795547485352
0.4642919540405273,0.5583795547485352
0.4673818588256836,0.5651887893676758
0.4673818588256836,0.5651887893676758
0.4612821578979492,0.5574182510375977
0.4612821578979492,0.5574182510375977
0.4682344436645507,0.5613773345947265
0.4682344436645507,0.5613773345947265
0.4611534118652343,0.5605304718017577
0.4611534118652343,0.5605304718017577
0.4621999740600586,0.5542900085449218
0.4621999740600586,0.5542900085449218
0.4638410568237304,0.5588579177856445
0.4638410568237304,0.5588579177856445
0.4567565917968750,0.5499029159545898
0.4567565917968750,0.5499029159545898
0.4629735946655273,0.5517797470092773
0.4629735946655273,0.5517797470092773
0.4558725357055664,0.5513191223144531
0.4558725357055664,0.5513191223144531
0.4571897506713867,0.5458683013916016
0.4571897506713867,0.5458683013916016
0.4594276428222656,0.5518764495849610
0.4594276428222656,0.5518764495849610
0.4531539916992187,0.5430879592895508
0.4531539916992187,0.5430879592895508
0.4600187301635742,0.5468032836914062
0.4600187301635742,0.5468032836914062
0.4535551071166992,0.5474081039428711
0.4535551071166992,0.5474081039428711
0.4553558349609375,0.5432956695556640
0.4553558349609375,0.5432956695556640
0.4580520629882812,0.5492837905883788
0.4580520629882812,0.5492837905883788
0.4521343231201171,0.5415224075317383
0.4521343231201171,0.5415224075317383
0.4593990325927734,0.5456319808959961
0.4593990325927734,0.5456319808959961
0.4531768798828125,0.5472507476806641
0.4531768798828125,0.5472507476806641
0.4554153442382812,0.5426811218261719
0.4554153442382812,0.5426811218261719
0.4582860946655273,0.5496826171875000
0.4582860946655273,0.5496826171875000
0.4529039382934570,0.5424156188964844
0.4529039382934570,0.5424156188964844
0.4603271484375000,0.5476003646850586
0.4603271484375000,0.5476003646850586
0.4541776657104492,0.5486497879028320
0.4541776657104492,0.5486497879028320
0.4565832138061523,0.5448846817016602
0.4565832138061523,0.5448846817016602
0.4595369338989257,0.5518981933593750
0.4595369338989257,0.5518981933593750
0.4541244506835938,0.5450351715087890
0.4541244506835938,0.5450351715087890
0.4614034652709961,0.5490869522094727
0.4614034652709961,0.5490869522094727
0.4551527023315429,0.5501329421997070
0.4551527023315429,0.5501329421997070
0.4574907302856445,0.5459690093994141
0.4574907302856445,0.5459690093994141
0.4602676391601562,0.5533229827880859
0.4602676391601562,0.5533229827880859
0.4543516159057617,0.5451330184936524
0.4543516159057617,0.5451330184936524
0.4617473602294921,0.5496128082275390
0.4617473602294921,0.5496128082275390
0.4552980422973633,0.5506301879882812
0.4552980422973633,0.5506301879882812
0.4576463699340820,0.5467557907104492
0.4576463699340820,0.5467557907104492
0.4604730606079102,0.5533916473388671
0.4604730606079102,0.5533916473388671
0.4543979644775391,0.5452966690063477
0.4543979644775391,0.5452966690063477
0.4621490478515625,0.5501518249511719
0.4621490478515625,0.5501518249511719
0.4554370880126953,0.5515766143798828
0.4554370880126953,0.5515766143798828
0.4580171585083008,0.5468948364257812
0.4580171585083008,0.5468948364257812
0.4608896255493164,0.5541263580322265
0.4608896255493164,0.5541263580322265
0.4550090789794922,0.5464227676391601
0.4550090789794922,0.5464227676391601
0.4626228332519531,0.5517997741699219
0.4626228332519531,0.5517997741699219
0.4562799453735351,0.5523616790771484
0.4562799453735351,0.5523616790771484
0.4587118148803710,0.5482360839843750
0.4587118148803710,0.5482360839843750
0.4617227554321289,0.5557170867919922
0.4602882385253906,0.5557170867919922
0.4558084487915039,0.5481554031372070
0.4558084487915039,0.5481554031372070
0.4637306213378906,0.5529642105102539
0.4637306213378906,0.5529642105102539
0.4569625854492188,0.5541692733764648
0.4569625854492188,0.5541692733764648
0.4597068786621094,0.5496923446655273
0.4597068786621094,0.5496923446655273
0.4628763198852539,0.5579996109008789
0.4628763198852539,0.5579996109008789
0.4566650390625000,0.5492963790893555
0.4566650390625000,0.5492963790893555
0.4645797729492187,0.5548004150390625
0.4645797729492187,0.5548004150390625
0.4579170227050781,0.5558000564575195
0.4579170227050781,0.5558000564575195
0.4606670379638672,0.5519800186157227
0.4606670379638672,0.5519800186157227
0.4638536453247070,0.5594118118286132
0.4638536453247070,0.5594118118286132
0.4576681137084961,0.5509769439697265
0.4576681137084961,0.5509769439697265
0.4657979965209961,0.5565399169921875
0.4657979965209961,0.5565399169921875
0.4588720321655273,0.5580934524536133
0.4588720321655273,0.5580934524536133
0.4617885589599609,0.5531890869140624
0.4617885589599609,0.5531890869140624
0.4647960662841797,0.5611930847167969
0.4647960662841797,0.5611930847167969
0.4587106704711914,0.5525562286376953
0.4587106704711914,0.5525562286376953
0.4668308258056640,0.5587205886840820
0.4668308258056640,0.5587205886840820
0.4595289230346680,0.5591680526733398
0.4595289230346680,0.5591680526733398
0.4625965118408203,0.5545223236083984
0.4572206497192383,0.5545223236083984
0.4656904220581055,0.5626888275146484
0.4644533157348633,0.5626888275146484
0.4590539932250977,0.5539787292480468
0.4590539932250977,0.5539787292480468
0.4678470611572265,0.5596343994140625
0.4678470611572265,0.5596343994140625
0.4601154327392578,0.5603782653808593
0.4601154327392578,0.5603782653808593
0.4633346557617187,0.5555231094360351
0.4633346557617187,0.5555231094360351
0.4664772033691406,0.5646446228027343
0.4664772033691406,0.5646446228027343
0.4599906921386718,0.5549526214599609
0.4599906921386718,0.5549526214599609
0.4686721801757812,0.5611885070800781
0.4686721801757812,0.5611885070800781
0.4611019134521484,0.5619621276855469
0.4611019134521484,0.5619621276855469
0.4642210006713867,0.5577089309692382
0.4642210006713867,0.5577089309692382
0.4674688339233398,0.5657684326171875
0.4674688339233398,0.5657684326171875
0.4607563018798828,0.5561851501464844
0.4607563018798828,0.5561851501464844
0.4694984436035156,0.5623935699462891
0.4694984436035156,0.5623935699462891
0.4615018844604492,0.5631294250488281
0.4615018844604492,0.5631294250488281
0.4641763687133789,0.5568351745605469
0.4641763687133789,0.5568351745605469
0.4663124084472656,0.5635185241699219
0.4663124084472656,0.5635185241699219
0.4592056274414062,0.5524623870849609
0.4592056274414062,0.5524623870849609
0.4656812667846679,0.5565273284912109
0.4656812667846679,0.5565273284912109
0.4575159072875976,0.5545206069946289
0.4575159072875976,0.5545206069946289
0.4591066360473632,0.5483493804931641
0.4591066360473632,0.5483493804931641
0.4608192443847656,0.5538728713989257
0.4608192443847656,0.5538728713989257
0.4544122695922851,0.5446638107299805
0.4544122695922851,0.5446638107299805
0.4609159469604492,0.5481428146362305
0.4609159469604492,0.5481428146362305
0.4538618087768554,0.5478355407714843
0.4538618087768554,0.5478355407714843
0.4558908462524414,0.5427497863769531
0.4558908462524414,0.5427497863769531
0.4581418991088867,0.5493593215942383
0.4581418991088867,0.5493593215942383
0.4523345947265625,0.5401514053344726
0.4523345947265625,0.5401514053344726
0.4588777542114257,0.5445865631103516
0.4588777542114257,0.5445865631103516
0.4522293090820312,0.5447044372558594
0.4522293090820312,0.5447044372558594
0.4546125411987305,0.5407785415649414
