REDsignal,IRsignal
0.6421262741088867,0.5511068344116211
0.6421262741088867,0.5511068344116211
0.6462398529052734,0.5571395874023437
0.6462398529052734,0.5571395874023437
0.6344203948974609,0.5477296829223632
0.6344203948974609,0.5477296829223632
0.6425125122070312,0.5499057769775391
0.6425125122070312,0.5499057769775391
0.6365638732910156,0.5523284912109375
0.6365638732910156,0.5523284912109375
0.6353336334228515,0.5424837112426758
0.6353336334228515,0.5424837112426758
0.6410316467285156,0.5521883010864258
0.6410316467285156,0.5521883010864258
0.6304767608642577,0.5433654785156250
0.6304767608642577,0.5433654785156250
0.6394397735595703,0.5468547821044921
0.6394397735595703,0.5468547821044921
0.6348129272460937,0.5501415252685546
0.6348129272460937,0.5501415252685546
0.6345417022705078,0.5433649063110352
0.6345417022705078,0.5433649063110352
0.6414001464843749,0.5535249710083008
0.6414001464843749,0.5535249710083008
0.6315977096557617,0.5459415435791015
0.6315977096557617,0.5459415435791015
0.6416130065917969,0.5498949050903320
0.6416130065917969,0.5498949050903320
0.6379606246948242,0.5560838699340820
0.6379606246948242,0.5560838699340820
0.6388177871704102,0.5496276855468750
0.6388177871704102,0.5496276855468750
0.6462112426757812,0.5606569290161133
0.6462112426757812,0.5606569290161133
0.6370948791503906,0.5531415939331055
0.6370948791503906,0.5531415939331055
0.6476486206054687,0.5593099594116211
0.6476486206054687,0.5593099594116211
0.6442743301391601,0.5653633117675781
0.6442743301391601,0.5653633117675781
0.6451709747314452,0.5587308883666992
0.6451709747314452,0.5587308883666992
0.6527584075927734,0.5688365936279297
0.6527584075927734,0.5688365936279297
0.6434057235717773,0.5628381729125976
0.6434057235717773,0.5628381729125976
0.6538913726806640,0.5678552627563477
0.6538913726806640,0.5678552627563477
0.6502487182617187,0.5731653213500977
0.6502487182617187,0.5731653213500977
0.6506967544555664,0.5655200958251952
0.6506967544555664,0.5655200958251952
0.6581159591674804,0.5775152206420898
0.6581159591674804,0.5775152206420898
0.6489658355712891,0.5705560684204102
0.6489658355712891,0.5705560684204102
0.6591196060180664,0.5752630233764648
0.6591196060180664,0.5752630233764648
0.6555816650390625,0.5798675537109375
0.6631147384643554,0.5798675537109375
0.6560943603515624,0.5739955902099609
0.6560943603515624,0.5739955902099609
0.6636234283447265,0.5850860595703125
0.6636234283447265,0.5850860595703125
0.6542163848876953,0.5780570983886718
0.6542163848876953,0.5780570983886718
0.6644296646118164,0.5819458007812500
0.6644296646118164,0.5819458007812500
0.6610353469848632,0.5883733749389648
0.6610353469848632,0.5883733749389648
0.6614873886108398,0.5815607070922851
0.6614873886108398,0.5815607070922851
0.6688568115234375,0.5924131393432617
0.6688568115234375,0.5924131393432617
0.6594165802001953,0.5842449188232421
0.6594165802001953,0.5842449188232421
0.6694845199584961,0.5899961471557617
0.6694845199584961,0.5899961471557617
0.6661468505859375,0.5954086303710937
0.6661468505859375,0.5954086303710937
0.6662132263183593,0.5880237579345703
0.6662132263183593,0.5880237579345703
0.6735540390014648,0.5979137420654297
0.6735540390014648,0.5979137420654297
0.6638912200927735,0.5916051864624023
0.6638912200927735,0.5916051864624023
0.6740295410156250,0.5961954116821289
0.6740295410156250,0.5961954116821289
0.6702140808105469,0.6011650085449218
0.6702140808105469,0.6011650085449218
0.6700710296630860,0.5925756454467773
0.6700710296630860,0.5925756454467773
0.6774908065795898,0.6043584823608398
0.6774908065795898,0.6043584823608398
0.6679166793823242,0.5967967987060546
0.6679166793823242,0.5967967987060546
0.6776435852050781,0.6008228302001953
0.6710832595825195,0.6008228302001953
0.6732187271118164,0.6039590835571289
0.6732187271118164,0.6039590835571289
0.6715793609619141,0.5950269699096680
0.6715793609619141,0.5950269699096680
0.6756837844848632,0.6005144119262695
0.6756837844848632,0.6005144119262695
0.6601066589355469,0.5848606109619140
0.6601066589355469,0.5848606109619140
0.6638608932495117,0.5804637908935547
0.6638608932495117,0.5804637908935547
0.6552389144897460,0.5799917221069336
0.6552389144897460,0.5799917221069336
0.6506183624267577,0.5664579391479492
0.6506183624267577,0.5664579391479492
0.6536802291870117,0.5719419479370117
0.6536802291870117,0.5719419479370117
0.6403999328613281,0.5589168548583984
0.6403999328613281,0.5589168548583984
0.6469894409179687,0.5598472595214844
0.6469894409179687,0.5598472595214844
0.6405767440795899,0.5616434097290038
0.6405767440795899,0.5616434097290038
0.6378879547119141,0.5506301879882812
0.6378879547119141,0.5506301879882812
0.6429365158081054,0.5576700210571289
0.6429365158081054,0.5576700210571289
0.6314815521240235,0.5485851287841796
0.6314815521240235,0.5485851287841796
0.6397459030151367,0.5507268905639648
0.6397459030151367,0.5507268905639648
0.6346916198730469,0.5542339324951172
0.6346916198730469,0.5542339324951172
0.6334682464599609,0.5444217681884765
0.6334682464599609,0.5444217681884765
0.6398952484130859,0.5550939559936523
0.6398952484130859,0.5550939559936523
0.6299039840698242,0.5471420288085938
0.6299039840698242,0.5471420288085938
0.6390890121459961,0.5507806777954102
0.6390890121459961,0.5507806777954102
0.6355384826660156,0.5551797866821289
0.6427230834960938,0.5551797866821289
0.6353479385375976,0.5487911224365234
0.6353479385375976,0.5487911224365234
0.6431001663208008,0.5597923278808593
0.6431001663208008,0.5597923278808593
0.6337326049804687,0.5528577804565430
0.6337326049804687,0.5528577804565430
0.6438383102416992,0.5565868377685547
0.6438383102416992,0.5565868377685547
0.6406797409057617,0.5635768890380859
0.6406797409057617,0.5635768890380859
0.6410934448242187,0.5567378997802734
0.6410934448242187,0.5567378997802734
0.6486894607543945,0.5677425384521484
0.6486894607543945,0.5677425384521484
0.6397270202636719,0.5602237701416015
0.6397270202636719,0.5602237701416015
0.6496158599853515,0.5655916213989257
0.6496158599853515,0.5655916213989257
0.6467439651489257,0.5715557098388672
0.6467439651489257,0.5715557098388672
0.6465711593627930,0.5642274856567383
0.6465711593627930,0.5642274856567383
0.6543405532836913,0.5742439270019531
0.6543405532836913,0.5742439270019531
0.6449678421020507,0.5681739807128906
0.6449678421020507,0.5681739807128906
0.6547245025634766,0.5723676681518555
0.6547245025634766,0.5723676681518555
0.6512495040893554,0.5776891708374023
0.6512495040893554,0.5776891708374023
0.6508953094482421,0.5690099716186523
0.6508953094482421,0.5690099716186523
0.6582904815673828,0.5806972503662109
0.6582904815673828,0.5806972503662109
0.6488439559936523,0.5737009048461914
0.6488439559936523,0.5737009048461914
0.6583866119384766,0.5776411056518554
0.6583866119384766,0.5776411056518554
0.6550289154052734,0.5822198867797851
0.6623050689697265,0.5822198867797851
0.6545814514160156,0.5754804611206055
0.6545814514160156,0.5754804611206055
0.6620996475219726,0.5861635208129883
0.6620996475219726,0.5861635208129883
0.6523962020874023,0.5786985397338867
0.6523962020874023,0.5786985397338867
0.6618553161621094,0.5816270828247070
0.6618553161621094,0.5816270828247070
0.6584100723266602,0.5878784179687500
0.6584100723266602,0.5878784179687500
0.6580049514770507,0.5798315048217774
0.6580049514770507,0.5798315048217774
0.6651477813720703,0.5904447555541992
0.6641859054565430,0.5904447555541992
0.6602571487426757,0.5820665359497070
0.6635936737060547,0.5820665359497070
0.6650608062744140,0.5867242813110352
0.6650608062744140,0.5867242813110352
0.6616298675537109,0.5923101425170898
0.6616298675537109,0.5923101425170898
0.6610227584838867,0.5839811325073242
0.6610227584838867,0.5839811325073242
0.6683320999145508,0.5938367843627930
0.6683320999145508,0.5938367843627930
0.6587848663330078,0.5875545501708984
0.6587848663330078,0.5875545501708984
0.6682416915893554,0.5910902023315430
0.6682416915893554,0.5910902023315430
0.6642688751220703,0.5955774307250976
0.6642688751220703,0.5955774307250976
0.6620326995849609,0.5840572357177735
0.6620326995849609,0.5840572357177735
0.6667127609252930,0.5918901443481445
0.6667127609252930,0.5918901443481445
0.6536418914794921,0.5798772811889649
0.6536418914794921,0.5798772811889649
0.6589748382568359,0.5775564193725585
0.6589748382568359,0.5775564193725585
0.6512929916381835,0.5764263153076171
0.6512929916381835,0.5764263153076171
0.6463205337524414,0.5634984970092773
0.6463205337524414,0.5634984970092773
0.6497766494750976,0.5689332962036132
0.6497766494750976,0.5689332962036132
0.6365999221801758,0.5569061279296875
0.6365999221801758,0.5569061279296875
0.6428157806396484,0.5553480148315429
0.6428157806396484,0.5553480148315429
0.6365129470825195,0.5581426620483398
0.6365129470825195,0.5581426620483398
0.6333417892456055,0.5468307495117187
0.6333417892456055,0.5468307495117187
0.6384841918945312,0.5544136047363281
0.6384841918945312,0.5544136047363281
0.6269147872924804,0.5438066482543945
0.6269147872924804,0.5438066482543945
0.6346647262573242,0.5459575653076172
0.6346647262573242,0.5459575653076172
0.6299520492553711,0.5499921798706054
0.6363161087036132,0.5499921798706054
0.6280546188354492,0.5402275085449219
0.6280546188354492,0.5402275085449219
0.6345851898193359,0.5489891052246093
0.6345851898193359,0.5489891052246093
0.6243913650512695,0.5417947769165039
0.6243913650512695,0.5417947769165039
0.6333938598632812,0.5449018478393555
0.6333938598632812,0.5449018478393555
0.6298439025878906,0.5503377914428711
0.6298439025878906,0.5503377914428711
0.6289558410644531,0.5411418914794922
0.6289558410644531,0.5411418914794922
0.6364854812622071,0.5527702331542969
0.6364854812622071,0.5527702331542969
0.6269783020019531,0.5456617355346679
0.6269783020019531,0.5456617355346679
0.6364133834838867,0.5492460250854492
0.6364133834838867,0.5492460250854492
0.6333189010620117,0.5545028686523438
0.6333189010620117,0.5545028686523438
0.6327873229980469,0.5474372863769531
0.6327873229980469,0.5474372863769531
0.6406751632690429,0.5586032867431641
0.6406751632690429,0.5586032867431641
0.6312664031982421,0.5516206741333007
0.6312664031982421,0.5516206741333007
0.6408943176269531,0.5547105789184570
0.6408943176269531,0.5547105789184570
0.6381820678710938,0.5622293472290039
0.6381820678710938,0.5622293472290039
0.6380287170410156,0.5546075820922851
0.6380287170410156,0.5546075820922851
0.6460733413696289,0.5660099029541016
0.6460733413696289,0.5660099029541016
0.6370954513549805,0.5587131500244140
0.6370954513549805,0.5587131500244140
0.6468761444091796,0.5637090682983398
0.6468761444091796,0.5637090682983398
0.6441965103149414,0.5703935623168945
0.6441965103149414,0.5703935623168945
0.6438943862915039,0.5622934341430664
0.6438943862915039,0.5622934341430664
0.6515853881835937,0.5727224349975586
0.6515853881835937,0.5727224349975586
0.6426183700561523,0.5669803619384766
0.6426183700561523,0.5669803619384766
0.6519269943237305,0.5705812454223632
0.6519269943237305,0.5705812454223632
0.6489927291870117,0.5765069961547852
0.6489927291870117,0.5765069961547852
0.6480297088623047,0.5673419952392578
0.6480297088623047,0.5673419952392578
0.6554580688476562,0.5788078308105469
0.6554580688476562,0.5788078308105469
0.6461688995361328,0.5719453811645507
0.6461688995361328,0.5719453811645507
0.6551879882812500,0.5749671936035156
0.6551879882812500,0.5749671936035156
0.6519750595092774,0.5800111770629882
0.6519750595092774,0.5800111770629882
0.6509021759033203,0.5724020004272461
0.6509021759033203,0.5724020004272461
0.6585931777954102,0.5830678939819336
0.6585931777954102,0.5830678939819336
0.6492765426635742,0.5763330459594727
0.6492765426635742,0.5763330459594727
0.6586114883422851,0.5791706085205078
0.6586114883422851,0.5791706085205078
0.6559112548828124,0.5864679336547851
0.6559112548828124,0.5864679336547851
0.6555816650390625,0.5789777755737304
0.6555816650390625,0.5789777755737304
0.6636795043945313,0.5903932571411132
0.6636795043945313,0.5903932571411132
0.6550037384033203,0.5836996078491211
0.6550037384033203,0.5836996078491211
0.6649400711059570,0.5888534545898437
0.6649400711059570,0.5888534545898437
0.6628458023071289,0.5959482192993164
0.6628458023071289,0.5959482192993164
0.6625522613525391,0.5885484695434570
0.6625522613525391,0.5885484695434570
0.6706970214843749,0.5990552902221680
0.6706970214843749,0.5990552902221680
0.6614215850830077,0.5927564620971679
0.6614215850830077,0.5927564620971679
0.6685203552246094,0.5925235748291016
0.6685203552246094,0.5925235748291016
0.6612304687500000,0.5923233032226562
0.6612304687500000,0.5923233032226562
0.6550500869750976,0.5756961822509765
0.6550500869750976,0.5756961822509765
0.6573177337646484,0.5803762435913086
0.6573177337646484,0.5803762435913086
0.6434314727783202,0.5670799255371094
0.6434314727783202,0.5670799255371094
0.6481098175048828,0.5644998550415039
0.6481098175048828,0.5644998550415039
0.6413818359375000,0.5643035888671875
0.6413818359375000,0.5643035888671875
0.6370433807373047,0.5520847320556640
0.6370433807373047,0.5520847320556640
0.6415077209472656,0.5588476181030273
0.6415077209472656,0.5588476181030273
0.6294879913330078,0.5481691360473633
0.6362119674682617,0.5472610473632812
0.6362119674682617,0.5472610473632812
0.6310821533203125,0.5513700485229492
0.6310821533203125,0.5513700485229492
0.6283882141113281,0.5405204772949218
0.6283882141113281,0.5405204772949218
0.6342304229736327,0.5489845275878906
0.6342304229736327,0.5489845275878906
0.6236234664916992,0.5397256851196289
0.6236234664916992,0.5397256851196289
0.6315959930419922,0.5422405242919922
0.6315959930419922,0.5422405242919922
0.6277805328369140,0.5472444534301758
0.6277805328369140,0.5472444534301758
0.6261772155761719,0.5377876281738281
0.6261772155761719,0.5377876281738281
0.6333395004272461,0.5473382949829101
0.6333395004272461,0.5473382949829101
0.6239490509033203,0.5411911010742188
0.6239490509033203,0.5411911010742188
0.6332307815551758,0.5444738388061523
0.6332307815551758,0.5444738388061523
0.6303531646728515,0.5508470535278320
0.6303531646728515,0.5508470535278320
0.6296625137329102,0.5419155120849609
0.6296625137329102,0.5419155120849609
0.6377323150634765,0.5541629791259766
0.6377323150634765,0.5541629791259766
0.6290657043457031,0.5484111785888671
0.6290657043457031,0.5484111785888671
0.6387668609619140,0.5521436691284179
0.6387668609619140,0.5521436691284179
0.6363418579101562,0.5582937240600586
0.6363418579101562,0.5582937240600586
0.6359910964965820,0.5514839172363281
0.6359910964965820,0.5514839172363281
0.6444259643554687,0.5629337310791015
0.6444259643554687,0.5629337310791015
0.6355218887329102,0.5570583343505859
0.6355218887329102,0.5570583343505859
0.6451938629150390,0.5598838806152343
0.6451938629150390,0.5598838806152343
0.6425462722778320,0.5675651550292968
0.6425462722778320,0.5675651550292968
0.6420318603515625,0.5595376968383788
0.6420318603515625,0.5595376968383788
0.6499082565307617,0.5704708099365234
0.6499082565307617,0.5704708099365234
0.6408382415771484,0.5633153915405273
0.6408382415771484,0.5633153915405273
0.6502326965332031,0.5673625946044921
0.6502326965332031,0.5673625946044921
0.6474288940429688,0.5740018844604492
0.6474288940429688,0.5740018844604492
0.6464910507202148,0.5653964996337890
0.6464910507202148,0.5653964996337890
0.6543823242187500,0.5755290985107422
0.6543823242187500,0.5755290985107422
0.6452058792114258,0.5701435089111327
0.6452058792114258,0.5701435089111327
0.6547742843627929,0.5736986160278320
0.6547742843627929,0.5736986160278320
0.6522731781005859,0.5803270339965820
0.6522731781005859,0.5803270339965820
0.6513925552368164,0.5711929321289062
0.6513925552368164,0.5711929321289062
0.6593708038330078,0.5833980560302734
0.6593708038330078,0.5833980560302734
0.6507076263427735,0.5774660110473633
0.6507076263427735,0.5774660110473633
0.6602085113525390,0.5810142517089844
0.6602085113525390,0.5810142517089844
0.6577749252319336,0.5873863220214843
0.6577749252319336,0.5873863220214843
0.6572370529174805,0.5803625106811523
0.6572370529174805,0.5803625106811523
0.6657400131225586,0.5919342041015625
0.6657400131225586,0.5919342041015625
0.6567644119262696,0.5858688354492188
0.6567644119262696,0.5858688354492188
0.6659711837768555,0.5882051467895507
0.6659711837768555,0.5882051467895507
0.6634855270385742,0.5957794189453125
0.6634855270385742,0.5957794189453125
0.6625802993774413,0.5873176574707031
0.6625802993774413,0.5873176574707031
0.6703405380249023,0.5978948593139648
0.6703405380249023,0.5978948593139648
0.6606113433837890,0.5897890090942383
0.6606113433837890,0.5897890090942383
0.6681146621704102,0.5911228179931640
0.6681146621704102,0.5911228179931640
0.6623640060424805,0.5930122375488281
0.6623640060424805,0.5930122375488281
0.6568628311157226,0.5779455184936523
0.6568628311157226,0.5779455184936523
0.6597295761108398,0.5809473037719727
0.6597295761108398,0.5809473037719727
0.6454959869384765,0.5685018539428711
0.6481985092163086,0.5685018539428711
0.6496129989624023,0.5643321990966796
0.6496129989624023,0.5643321990966796
0.6422000885009765,0.5639568328857422
0.6422000885009765,0.5639568328857422
0.6365255355834961,0.5484443664550781
0.6365255355834961,0.5484443664550781
0.6403570175170898,0.5545440673828125
0.6403570175170898,0.5545440673828125
0.6278085708618164,0.5437007904052734
0.6278085708618164,0.5437007904052734
0.6335203170776367,0.5417421340942382
0.6335203170776367,0.5417421340942382
0.6280689239501953,0.5435646057128906
0.6280689239501953,0.5435646057128906
0.6242677688598632,0.5324438095092773
0.6242677688598632,0.5324438095092773
0.6299697875976562,0.5399528503417969
0.6299697875976562,0.5399528503417969
0.6188884735107422,0.5310430526733398
0.6188884735107422,0.5310430526733398
0.6259546279907227,0.5304073333740235
0.6259546279907227,0.5304073333740235
0.6214611053466796,0.5356063842773438
0.6214611053466796,0.5356063842773438
0.6190670013427734,0.5254137039184570
0.6190670013427734,0.5254137039184570
0.6256914138793945,0.5344499588012696
0.6256914138793945,0.5344499588012696
0.6157253265380859,0.5264242172241210
0.6157253265380859,0.5264242172241210
0.6240652084350585,0.5292137145996093
0.6240652084350585,0.5292137145996093
0.6210479736328125,0.5353025436401367
0.6210479736328125,0.5353025436401367
0.6196912765502930,0.5265003204345703
0.6196912765502930,0.5265003204345703
0.6275974273681640,0.5366443634033203
0.6275974273681640,0.5366443634033203
0.6187597274780273,0.5316896438598633
0.6187597274780273,0.5316896438598633
0.6282028198242188,0.5349260330200195
0.6282028198242188,0.5349260330200195
0.6258590698242187,0.5416837692260742
0.6258590698242187,0.5416837692260742
0.6248542785644531,0.5325696945190429
0.6248542785644531,0.5325696945190429
0.6330047607421875,0.5446386337280273
0.6320657730102539,0.5446386337280273
0.6297832489013672,0.5391820907592774
0.6328096389770508,0.5391820907592774
0.6337034225463867,0.5421318054199219
0.6337034225463867,0.5421318054199219
0.6313791275024414,0.5481903076171875
0.6313791275024414,0.5481903076171875
0.6303789138793945,0.5407825469970703
0.6303789138793945,0.5407825469970703
0.6385740280151367,0.5520515441894531
0.6385740280151367,0.5520515441894531
0.6295978546142578,0.5461561203002929
0.6295978546142578,0.5461561203002929
0.6389356613159179,0.5481571197509766
0.6389356613159179,0.5481571197509766
0.6363773345947266,0.5556467056274413
0.6363773345947266,0.5556467056274413
0.6351722717285156,0.5470132827758789
0.6351722717285156,0.5470132827758789
0.6430801391601563,0.5577009201049804
0.6430801391601563,0.5577009201049804
0.6338882446289062,0.5509122848510742
0.6338882446289062,0.5509122848510742
0.6428386688232421,0.5540931701660156
0.6428386688232421,0.5540931701660156
0.6403203964233398,0.5605882644653321
0.6403203964233398,0.5605882644653321
0.6386678695678710,0.5513053894042969
0.6386678695678710,0.5513053894042969
0.6463308334350586,0.5609149932861328
0.6463308334350586,0.5609149932861328
0.6369380950927734,0.5555196762084961
0.6369380950927734,0.5555196762084961
0.6459348678588867,0.5576866149902343
0.6459348678588867,0.5576866149902343
0.6427625656127930,0.5636415481567383
0.6427625656127930,0.5636415481567383
0.6410356521606445,0.5533750534057617
0.6410356521606445,0.5533750534057617
0.6483610153198242,0.5643127441406249
0.6483610153198242,0.5643127441406249
0.6389041900634765,0.5577924728393554
0.6389041900634765,0.5577924728393554
0.6472263336181641,0.5594244003295898
0.6472263336181641,0.5594244003295898
0.6441301345825196,0.5645856857299805
0.6441301345825196,0.5645856857299805
0.6423048019409180,0.5558607101440429
0.6423048019409180,0.5558607101440429
0.6498361587524414,0.5658599853515625
0.6498361587524414,0.5658599853515625
0.6400325775146484,0.5591440200805664
0.6400325775146484,0.5591440200805664
0.6486459732055664,0.5600051879882812
0.6486459732055664,0.5600051879882812
0.6453489303588867,0.5665403366088867
0.6453489303588867,0.5665403366088867
0.6430595397949218,0.5563201904296875
0.6389596939086913,0.5563201904296875
0.6493577957153320,0.5643573760986328
0.6493577957153320,0.5643573760986328
0.6377574920654296,0.5537057876586914
0.6377574920654296,0.5537057876586914
0.6432460784912110,0.5516773223876953
0.6432460784912110,0.5516773223876953
0.6366926193237304,0.5523307800292968
0.6366926193237304,0.5523307800292968
0.6311485290527343,0.5373682022094727
0.6311485290527343,0.5373682022094727
0.6352100372314453,0.5420356750488281
0.6352100372314453,0.5420356750488281
0.6226490020751952,0.5319906234741211
0.6226490020751952,0.5319906234741211
0.6284185409545898,0.5297933578491211
0.6284185409545898,0.5297933578491211
0.6227737426757812,0.5318246841430664
0.6227737426757812,0.5318246841430664
0.6180284500122070,0.5181158065795898
0.6180284500122070,0.5181158065795898
0.6234363555908203,0.5262084960937500
0.6234363555908203,0.5262084960937500
0.6120019912719726,0.5172849655151367
0.6120019912719726,0.5172849655151367
0.6189210891723632,0.5167911529541015
0.6189210891723632,0.5167911529541015
0.6144058227539062,0.5199531555175781
0.6144058227539062,0.5199531555175781
0.6113588333129882,0.5098011016845703
0.6113588333129882,0.5098011016845703
0.6179718017578125,0.5187910079956054
0.6179718017578125,0.5187910079956054
0.6076967239379882,0.5114284515380859
0.6076967239379882,0.5114284515380859
0.6158174514770508,0.5118822097778321
0.6158174514770508,0.5118822097778321
0.6126171112060547,0.5184150695800781
0.6126171112060547,0.5184150695800781
0.6108358383178710,0.5089925765991211
0.6108358383178710,0.5089925765991211
0.6184541702270507,0.5191978454589844
0.6184541702270507,0.5191978454589844
0.6093790054321289,0.5127159118652344
0.6093790054321289,0.5127159118652344
0.6185211181640625,0.5163259506225586
0.6185211181640625,0.5163259506225586
0.6166826248168945,0.5239133834838867
0.6166826248168945,0.5239133834838867
0.6158271789550781,0.5157714843750000
0.6158271789550781,0.5157714843750000
0.6244491577148438,0.5266010284423828
0.6244491577148438,0.5266010284423828
0.6161802291870117,0.5229520797729492
0.6161802291870117,0.5229520797729492
0.6259489059448242,0.5263641357421874
0.6259489059448242,0.5263641357421874
0.6242425918579101,0.5339807510375977
0.6242425918579101,0.5339807510375977
0.6233585357666015,0.5253427505493163
0.6233585357666015,0.5253427505493163
0.6322059631347656,0.5379364013671875
0.6322059631347656,0.5379364013671875
0.6240182876586914,0.5336860656738281
0.6240182876586914,0.5336860656738281
0.6337457656860351,0.5367679595947266
0.6337457656860351,0.5367679595947266
0.6320217132568359,0.5435983657836914
0.6320217132568359,0.5435983657836914
0.6314226150512695,0.5368400573730469
0.6314226150512695,0.5368400573730469
0.6403575897216797,0.5487813949584961
0.6403575897216797,0.5487813949584961
0.6323701858520507,0.5445310592651367
0.6323701858520507,0.5445310592651367
0.6420152664184570,0.5471534729003906
0.6420152664184570,0.5471534729003906
0.6405647277832031,0.5560358047485351
0.6405647277832031,0.5560358047485351
0.6402185440063476,0.5487859725952148
0.6402185440063476,0.5487859725952148
0.6489789962768554,0.5604143142700195
0.6489789962768554,0.5604143142700195
0.6407226562500000,0.5551420211791992
0.6407226562500000,0.5551420211791992
0.6501789093017578,0.5591806411743164
0.6501789093017578,0.5591806411743164
0.6482877731323242,0.5664979934692382
0.6482877731323242,0.5664979934692382
0.6472995758056640,0.5581684112548828
0.6472995758056640,0.5581684112548828
0.6555484771728516,0.5686809539794921
0.6555484771728516,0.5686809539794921
0.6467033386230469,0.5646383285522460
0.6467033386230469,0.5646383285522460
0.6562168121337890,0.5676881790161132
0.6562168121337890,0.5676881790161132
0.6543359756469727,0.5747566223144531
0.6543359756469727,0.5747566223144531
0.6531023025512696,0.5657455444335937
0.6531023025512696,0.5657455444335937
0.6616361618041992,0.5780296325683594
0.6616361618041992,0.5780296325683594
0.6532361984252929,0.5734256744384766
0.6532361984252929,0.5734256744384766
0.6627737045288086,0.5762117385864257
0.6627737045288086,0.5762117385864257
0.6607406616210937,0.5828973770141601
0.6607406616210937,0.5828973770141601
0.6597707748413085,0.5757465362548828
0.6597707748413085,0.5757465362548828
0.6684923171997070,0.5877021789550781
0.6684923171997070,0.5877021789550781
0.6598623275756835,0.5827033996582031
0.6598623275756835,0.5827033996582031
0.6689712524414062,0.5844474792480469
0.6689712524414062,0.5844474792480469
0.6660770416259766,0.5908143997192382
0.6660770416259766,0.5908143997192382
0.6617374420166016,0.5766557693481446
0.6617374420166016,0.5766557693481446
0.6644903182983398,0.5793708801269531
0.6644903182983398,0.5793708801269531
0.6494384765625000,0.5647327423095703
0.6494384765625000,0.5647327423095703
0.6527355194091796,0.5597723007202148
0.6527355194091796,0.5597723007202148
0.6454347610473633,0.5596687316894531
0.6454347610473633,0.5596687316894531
0.6397779464721679,0.5446987152099609
0.6397779464721679,0.5446987152099609
0.6443544387817383,0.5496780395507812
0.6443544387817383,0.5496780395507812
0.6320388793945312,0.5404993057250976
0.6361444473266601,0.5404993057250976
0.6382827758789062,0.5385864257812499
0.6382827758789062,0.5385864257812499
0.6333658218383789,0.5415973663330078
0.6333658218383789,0.5415973663330078
0.6292608261108398,0.5284521102905273
0.6292608261108398,0.5284521102905273
0.6353004455566406,0.5371084213256836
0.6353004455566406,0.5371084213256836
0.6241785049438476,0.5290964126586913
0.6241785049438476,0.5290964126586913
0.6316148757934570,0.5288217544555663
0.6316148757934570,0.5288217544555663
0.6275379180908203,0.5326309204101562
0.6275379180908203,0.5326309204101562
0.6248113632202148,0.5225595474243164
0.6248113632202148,0.5225595474243164
0.6319902420043945,0.5321096420288086
0.6319902420043945,0.5321096420288086
0.6221992492675781,0.5258239746093750
0.6221992492675781,0.5258239746093750
0.6307456970214843,0.5265678405761719
0.6307456970214843,0.5265678405761719
0.6281318664550781,0.5340208053588867
0.6281318664550781,0.5340208053588867
0.6266424179077148,0.5253301620483398
0.6266424179077148,0.5253301620483398
0.6349679946899414,0.5361677169799804
0.6349679946899414,0.5361677169799804
0.6259637832641601,0.5304439544677734
0.6259637832641601,0.5304439544677734
0.6352008819580078,0.5339447021484375
0.6352008819580078,0.5339447021484375
0.6333972930908203,0.5413227081298828
0.6333972930908203,0.5413227081298828
0.6321990966796874,0.5327733993530274
0.6321990966796874,0.5327733993530274
0.6405927658081054,0.5433162689208985
0.6405927658081054,0.5433162689208985
0.6319313049316406,0.5391866683959960
0.6319313049316406,0.5391866683959960
0.6411197662353515,0.5418016433715820
0.6411197662353515,0.5418016433715820
0.6388315200805664,0.5483871459960937
0.6388315200805664,0.5483871459960937
0.6371194839477539,0.5387060165405273
0.6371194839477539,0.5387060165405273
0.6452167510986327,0.5500705718994140
0.6452167510986327,0.5500705718994140
0.6360111236572266,0.5445436477661133
0.6360111236572266,0.5445436477661133
0.6446411132812500,0.5460868835449219
0.6446411132812500,0.5460868835449219
0.6419769287109375,0.5514667510986327
0.6419769287109375,0.5514667510986327
0.6399810791015624,0.5429300308227539
0.6399810791015624,0.5429300308227539
0.6477865219116211,0.5532829284667968
0.6477865219116211,0.5532829284667968
0.6383646011352538,0.5473405838012695
0.6383646011352538,0.5473405838012695
0.6468755722045898,0.5478687286376953
0.6468755722045898,0.5478687286376953
0.6441055297851562,0.5550704956054687
0.6441055297851562,0.5550704956054687
0.6423511505126953,0.5458185195922851
0.6423511505126953,0.5458185195922851
0.6501708984375000,0.5561576843261719
0.6501708984375000,0.5561576843261719
0.6409400939941406,0.5498382568359375
0.6463851928710938,0.5498382568359375
0.6495935440063476,0.5526071548461914
0.6495935440063476,0.5526071548461914
0.6473419189453125,0.5594038009643555
0.6473419189453125,0.5594038009643555
0.6456739425659179,0.5503543853759766
0.6456739425659179,0.5503543853759766
0.6537237167358398,0.5602500915527343
0.6537237167358398,0.5602500915527343
0.6447927474975585,0.5560947418212890
0.6447927474975585,0.5560947418212890
0.6539508819580078,0.5583778381347656
0.6539508819580078,0.5583778381347656
0.6519092559814453,0.5654737472534179
0.6519092559814453,0.5654737472534179
0.6503545761108398,0.5560386657714843
0.6503545761108398,0.5560386657714843
0.6585754394531250,0.5678644180297852
0.6585754394531250,0.5678644180297852
0.6499048233032226,0.5631048202514648
0.6499048233032226,0.5631048202514648
0.6587305068969727,0.5647075653076171
0.6587305068969727,0.5647075653076171
0.6553001403808594,0.5689229965209961
0.6553001403808594,0.5689229965209961
0.6513336181640624,0.5571046829223633
0.6513336181640624,0.5571046829223633
0.6563203811645507,0.5628078460693359
0.6563203811645507,0.5628078460693359
0.6433765411376953,0.5519170761108398
0.6433765411376953,0.5519170761108398
0.6481527328491211,0.5473428726196289
0.6481527328491211,0.5473428726196289
0.6420112609863281,0.5492975234985351
0.6420112609863281,0.5492975234985351
0.6367635726928711,0.5350542068481445
0.6367635726928711,0.5350542068481445
0.6414407730102539,0.5404512405395507
0.6353713989257812,0.5322698593139649
0.6289272308349609,0.5296136856079101
0.6329921722412110,0.5296136856079101
0.6346727371215820,0.5279903411865234
0.6346727371215820,0.5279903411865234
0.6296173095703125,0.5307712554931641
0.6296173095703125,0.5307712554931641
0.6252239227294921,0.5180408477783203
0.6252239227294921,0.5180408477783203
0.6309368133544921,0.5248592376708984
0.6309368133544921,0.5248592376708984
0.6195070266723632,0.5173456192016601
0.6195070266723632,0.5173456192016601
0.6266881942749023,0.5168151855468750
0.6266881942749023,0.5168151855468750
0.6227216720581055,0.5212606430053711
0.6227216720581055,0.5212606430053711
0.6194755554199218,0.5094617843627930
0.6194755554199218,0.5094617843627930
0.6263998031616210,0.5195045471191406
0.6263998031616210,0.5195045471191406
0.6163787841796875,0.5131988525390625
0.6163787841796875,0.5131988525390625
0.6247730255126953,0.5143661499023438
0.6247730255126953,0.5143661499023438
0.6220052719116210,0.5200538635253906
0.6220052719116210,0.5200538635253906
0.6201324462890625,0.5115903854370117
0.6201324462890625,0.5115903854370117
0.6284917831420899,0.5225978851318359
0.6284917831420899,0.5225978851318359
0.6193988800048827,0.5173582077026367
0.6193988800048827,0.5173582077026367
0.6283773422241211,0.5186851501464843
0.6283773422241211,0.5186851501464843
0.6261720657348633,0.5264585494995117
0.6261720657348633,0.5264585494995117
0.6245813369750977,0.5174835205078124
0.6245813369750977,0.5174835205078124
0.6330173492431640,0.5283891677856445
0.6330173492431640,0.5283891677856445
0.6238151550292969,0.5225303649902343
0.6238151550292969,0.5225303649902343
0.6329269409179688,0.5252300262451172
0.6329269409179688,0.5252300262451172
0.6305700302124023,0.5322870254516602
0.6305700302124023,0.5322870254516602
0.6287097930908203,0.5226556777954101
0.6287097930908203,0.5226556777954101
0.6365381240844726,0.5323499679565430
0.6365381240844726,0.5323499679565430
0.6271453857421875,0.5276247024536133
0.6271453857421875,0.5276247024536133
0.6359109878540039,0.5289573669433594
0.6359109878540039,0.5289573669433594
0.6329996109008789,0.5350101470947265
0.6329996109008789,0.5350101470947265
0.6305797576904296,0.5243997573852539
0.6305797576904296,0.5243997573852539
0.6384761810302734,0.5354215621948242
0.6384761810302734,0.5354215621948242
0.6289060592651367,0.5297367095947265
0.6343626022338867,0.5297367095947265
0.6376167297363281,0.5309709548950196
0.6376167297363281,0.5309709548950196
0.6350818634033203,0.5370838165283203
0.6350818634033203,0.5370838165283203
0.6333990097045898,0.5290117263793945
0.6333990097045898,0.5290117263793945
0.6419528961181641,0.5400741577148437
0.6419528961181641,0.5400741577148437
0.6329813003540039,0.5352109909057617
0.6329813003540039,0.5352109909057617
0.6420753479003906,0.5365327835083008
0.6420753479003906,0.5365327835083008
0.6399478912353516,0.5445276260375976
0.6399478912353516,0.5445276260375976
0.6383640289306640,0.5357631683349610
0.6383640289306640,0.5357631683349610
0.6471176147460938,0.5469388961791992
0.6471176147460938,0.5469388961791992
0.6380138397216797,0.5413049697875977
0.6380138397216797,0.5413049697875977
0.6471817016601562,0.5443107604980468
0.6471817016601562,0.5443107604980468
0.6452419281005859,0.5515880584716797
0.6452419281005859,0.5515880584716797
0.6437479019165039,0.5428070068359375
0.6437479019165039,0.5428070068359375
0.6521604537963867,0.5530906677246094
0.6521604537963867,0.5530906677246094
0.6435688018798827,0.5495143890380859
0.6435688018798827,0.5495143890380859
0.6529689788818359,0.5524120330810547
0.6529689788818359,0.5524120330810547
0.6512260437011719,0.5598707199096680
0.6512260437011719,0.5598707199096680
0.6499099731445312,0.5509094238281250
0.6499099731445312,0.5509094238281250
0.6587854385375976,0.5632799148559570
0.6587854385375976,0.5632799148559570
0.6499465942382813,0.5585277557373046
0.6499465942382813,0.5585277557373046
0.6586509704589844,0.5596538543701172
0.6586509704589844,0.5596538543701172
0.6551170349121094,0.5640140533447265
0.6551170349121094,0.5640140533447265
0.6515401840209961,0.5532560348510742
0.6515401840209961,0.5532560348510742
0.6576890945434570,0.5604675292968749
0.6576890945434570,0.5604675292968749
0.6454977035522461,0.5507549285888672
0.6454977035522461,0.5507549285888672
0.6509176254272461,0.5466894149780274
0.6509176254272461,0.5466894149780274
0.6453157424926758,0.5495109558105469
0.6453157424926758,0.5495109558105469
0.6405761718749999,0.5359851837158203
0.6405761718749999,0.5359851837158203
0.6460727691650391,0.5426216125488281
0.6460727691650391,0.5426216125488281
0.6342887878417969,0.5332689285278320
0.6342887878417969,0.5332689285278320
0.6410825729370117,0.5329364776611328
0.6410825729370117,0.5329364776611328
0.6369976043701172,0.5372938156127930
0.6369976043701172,0.5372938156127930
0.6337429046630859,0.5258943557739257
0.6337429046630859,0.5258943557739257
0.6405384063720703,0.5340270996093750
0.6405384063720703,0.5340270996093750
0.6303972244262696,0.5283863067626953
0.6303972244262696,0.5283863067626953
0.6386953353881836,0.5292068481445312
0.6386953353881836,0.5292068481445312
0.6357496261596679,0.5353437423706054
0.6357496261596679,0.5353437423706054
0.6334888458251953,0.5251098632812500
0.6334888458251953,0.5251098632812500
0.6416456222534179,0.5366054534912109
0.6416456222534179,0.5366054534912109
0.6327054977416992,0.5318275451660156
0.6327054977416992,0.5318275451660156
0.6418292999267577,0.5337804794311524
0.6418292999267577,0.5337804794311524
0.6396726608276367,0.5403093338012696
0.6396726608276367,0.5403093338012696
0.6382421493530274,0.5326280593872070
0.6382421493530274,0.5326280593872070
0.6470088958740234,0.5440086364746094
0.6470088958740234,0.5440086364746094
0.6382198333740234,0.5394104003906249
0.6382198333740234,0.5394104003906249
0.6474266052246094,0.5411098480224609
0.6474266052246094,0.5411098480224609
0.6453369140624999,0.5492345809936523
0.6453369140624999,0.5492345809936523
0.6440002441406250,0.5405714035034179
0.6440002441406250,0.5405714035034179
0.6525484085083008,0.5516372680664062
0.6525484085083008,0.5516372680664062
0.6434177398681641,0.5460554122924804
0.6434177398681641,0.5460554122924804
0.6527738571166992,0.5490875244140625
0.6527738571166992,0.5490875244140625
0.6507648468017578,0.5565891265869141
0.6507648468017578,0.5565891265869141
0.6493446350097656,0.5477806091308594
0.6462587356567383,0.5477806091308594
0.6578676223754882,0.5583972930908203
0.6578676223754882,0.5583972930908203
0.6492519378662109,0.5547981262207031
0.6492519378662109,0.5547981262207031
0.6586824417114258,0.5575046539306641
0.6586824417114258,0.5575046539306641
0.6566814422607422,0.5648969650268555
0.6566814422607422,0.5648969650268555
0.6547090530395507,0.5549520492553711
0.6547090530395507,0.5549520492553711
0.6628383636474610,0.5661409378051757
0.6628383636474610,0.5661409378051757
0.6534513473510742,0.5606334686279296
0.6534513473510742,0.5606334686279296
0.6621414184570312,0.5622013092041015
0.6621414184570312,0.5622013092041015
0.6594789505004882,0.5682214736938477
0.6594789505004882,0.5682214736938477
0.6576536178588867,0.5598455429077148
0.6576536178588867,0.5598455429077148
0.6661216735839843,0.5706338882446289
0.6661216735839843,0.5706338882446289
0.6566579818725585,0.5648918151855469
0.6566579818725585,0.5648918151855469
0.6652456283569336,0.5655939102172851
0.6652456283569336,0.5655939102172851
0.6625659942626952,0.5731344223022461
0.6625659942626952,0.5731344223022461
0.6606319427490234,0.5636598587036132
0.6606319427490234,0.5636598587036132
0.6689231872558593,0.5743469238281250
0.6689231872558593,0.5743469238281250
0.6595499038696289,0.5684726715087890
0.6595499038696289,0.5684726715087890
0.6688213348388672,0.5716936111450195
0.6688213348388672,0.5716936111450195
0.6667917251586913,0.5791305541992188
0.6667917251586913,0.5791305541992188
0.6651300430297852,0.5699855804443359
0.6651300430297852,0.5699855804443359
0.6734756469726563,0.5802772521972656
0.6734756469726563,0.5802772521972656
0.6643209457397461,0.5762746810913085
0.6643209457397461,0.5762746810913085
0.6736238479614257,0.5783117294311523
0.6736238479614257,0.5783117294311523
0.6709911346435546,0.5844411849975586
0.6709911346435546,0.5844411849975586
0.6673959732055664,0.5713010787963867
0.6673959732055664,0.5713010787963867
0.6725664138793945,0.5780164718627929
0.6725664138793945,0.5780164718627929
0.6587585449218750,0.5661088943481445
0.6587585449218750,0.5661088943481445
0.6628412246704102,0.5602632522583008
0.6628412246704102,0.5602632522583008
0.6555816650390625,0.5595136642456054
0.6555816650390625,0.5595136642456054
0.6494001388549805,0.5450397491455078
0.6442897796630859,0.5450397491455078
0.6543279647827148,0.5507160186767578
0.6508838653564453,0.5507160186767578
0.6418041229248047,0.5409753799438476
0.6488096237182617,0.5409753799438476
0.6477441787719727,0.5379495620727539
0.6477441787719727,0.5379495620727539
0.6428747177124023,0.5420511245727538
0.6428747177124023,0.5420511245727538
0.6388109207153320,0.5296880722045898
0.6388109207153320,0.5296880722045898
0.6451847076416015,0.5376102447509765
0.6451847076416015,0.5376102447509765
0.6339740753173828,0.5290403366088867
0.6339740753173828,0.5290403366088867
0.6413423538208007,0.5296005249023438
0.6413423538208007,0.5296005249023438
0.6377941131591797,0.5347074508666992
0.6377941131591797,0.5347074508666992
0.6348546981811524,0.5238567352294922
0.6348546981811524,0.5238567352294922
0.6421262741088867,0.5327236175537109
0.6421262741088867,0.5327236175537109
0.6318820953369141,0.5273071289062500
0.6318820953369141,0.5273071289062500
0.6402740478515625,0.5282707214355469
0.6402740478515625,0.5282707214355469
0.6373987197875977,0.5343120574951171
0.6373987197875977,0.5343120574951171
0.6349805831909180,0.5239242553710938
0.6349805831909180,0.5239242553710938
0.6430189132690429,0.5353403091430664
0.6430189132690429,0.5353403091430664
0.6339054107666016,0.5301904678344727
0.6339054107666016,0.5301904678344727
0.6428730010986328,0.5319705963134765
0.6428730010986328,0.5319705963134765
0.6404027938842773,0.5382848739624023
0.6404027938842773,0.5382848739624023
0.6387147903442383,0.5302345275878906
0.6387147903442383,0.5302345275878906
0.6474460601806641,0.5415281295776367
0.6474460601806641,0.5415281295776367
0.6386444091796875,0.5369258880615234
0.6386444091796875,0.5369258880615234
0.6479249954223633,0.5385789871215820
0.6479249954223633,0.5385789871215820
0.6461854934692383,0.5472702026367188
0.6461854934692383,0.5472702026367188
0.6450977325439453,0.5390830993652344
0.6450977325439453,0.5390830993652344
0.6541774749755859,0.5510044097900391
0.6541774749755859,0.5510044097900391
0.6455062866210938,0.5461652755737304
0.6455062866210938,0.5461652755737304
0.6551536560058594,0.5500076293945312
0.6551536560058594,0.5500076293945312
0.6538307189941406,0.5582971572875977
0.6538307189941406,0.5582971572875977
0.6526599884033203,0.5501117706298828
0.6526599884033203,0.5501117706298828
0.6617168426513672,0.5614728927612305
0.6617168426513672,0.5614728927612305
0.6533088684082031,0.5583028793334961
0.6533088684082031,0.5583028793334961
0.6632371902465820,0.5612674713134765
0.6632371902465820,0.5612674713134765
0.6616687774658203,0.5694374084472656
0.6616687774658203,0.5694374084472656
0.6604310989379882,0.5605859756469727
0.6604310989379882,0.5605859756469727
0.6654012680053710,0.5683982849121093
0.6654012680053710,0.5683982849121093
0.6654012680053710,0.5668138504028321
0.6697643280029296,0.5773252487182617
0.6726247787475585,0.5773252487182617
0.6632749557495117,0.5697647094726562
0.6632749557495117,0.5697647094726562
0.6735254287719726,0.5770866394042968
0.6735254287719726,0.5770866394042968
0.6661949157714844,0.5793897628784179
0.6661949157714844,0.5793897628784179
0.6711479187011719,0.5746393203735352
0.6711479187011719,0.5746393203735352
0.6750549316406250,0.5848302841186523
0.6750549316406250,0.5848302841186523
0.6680505752563476,0.5764080047607422
0.6680505752563476,0.5764080047607422
0.6777557373046875,0.5834987640380859
0.6777557373046875,0.5834987640380859
0.6697202682495117,0.5839622497558593
0.6697202682495117,0.5839622497558593
0.6742464065551758,0.5790155410766601
0.6742464065551758,0.5790155410766601
0.6775903701782227,0.5885381698608398
0.6775903701782227,0.5885381698608398
0.6706707000732421,0.5804792404174804
0.6706707000732421,0.5804792404174804
0.6803272247314452,0.5867506027221679
0.6803272247314452,0.5867506027221679
0.6720794677734375,0.5871133804321289
0.6720794677734375,0.5871133804321289
0.6756986618041992,0.5808963775634766
0.6756986618041992,0.5808963775634766
0.6772693634033203,0.5871946334838867
0.6772693634033203,0.5871946334838867
0.6664976119995117,0.5722360610961914
0.6664976119995117,0.5722360610961914
0.6715490341186523,0.5723207473754882
0.6715490341186523,0.5723207473754882
0.6590526580810546,0.5664693832397460
0.6590526580810546,0.5664693832397460
0.6592866897583007,0.5557725906372070
0.6592866897583007,0.5557725906372070
0.6586612701416016,0.5590850830078125
0.6586612701416016,0.5590850830078125
0.6479970932006835,0.5449327468872071
0.6479970932006835,0.5449327468872071
0.6540716171264648,0.5467157363891602
0.6540716171264648,0.5467157363891602
0.6431562423706054,0.5437803268432617
0.6431562423706054,0.5437803268432617
0.6452791213989257,0.5350873947143554
0.6452791213989257,0.5350873947143554
0.6466066360473632,0.5418691635131836
0.6466066360473632,0.5418691635131836
0.6378850936889648,0.5307867050170898
0.6378850936889648,0.5307867050170898
0.6462615966796875,0.5360212326049805
0.6462615966796875,0.5360212326049805
0.6370880126953125,0.5351572036743164
0.6370880126953125,0.5351572036743164
0.6408182144165039,0.5293378829956055
0.6408182144165039,0.5293378829956055
0.6437845230102539,0.5382951736450196
0.6437845230102539,0.5382951736450196
0.6366147994995117,0.5295564651489257
0.6366147994995117,0.5295564651489257
0.6459468841552735,0.5358175277709961
0.6459468841552735,0.5358175277709961
0.6378753662109374,0.5364858627319335
0.6378753662109374,0.5364858627319335
0.6423191070556641,0.5315408706665039
0.6423191070556641,0.5315408706665039
0.6460206985473632,0.5416774749755859
0.6485572814941406,0.5416774749755859
0.6389041900634765,0.5327030181884765
0.6389041900634765,0.5327030181884765
0.6484416961669922,0.5392496109008789
0.6484416961669922,0.5392496109008789
0.6402065277099609,0.5399820327758789
0.6402065277099609,0.5399820327758789
0.6448579788208008,0.5357311248779296
0.6448579788208008,0.5357311248779296
0.6486648559570313,0.5453784942626952
0.6486648559570313,0.5453784942626952
0.6419145584106445,0.5370477676391602
0.6419145584106445,0.5370477676391602
0.6516265869140625,0.5440160751342773
0.6516265869140625,0.5440160751342773
0.6440717697143554,0.5459753036499023
0.6440717697143554,0.5459753036499023
0.6489692687988281,0.5411396026611328
0.6489692687988281,0.5411396026611328
0.6527338027954102,0.5513334274291992
0.6527338027954102,0.5513334274291992
0.6460596084594726,0.5433568954467773
0.6460596084594726,0.5433568954467773
0.6562608718872071,0.5511646270751953
0.6562608718872071,0.5511646270751953
0.6487810134887695,0.5524171829223633
0.6487810134887695,0.5524171829223633
0.6538822174072265,0.5482984542846679
0.6538822174072265,0.5482984542846679
0.6577217102050781,0.5586261749267578
0.6577217102050781,0.5586261749267578
0.6515642166137695,0.5512985229492188
0.6515642166137695,0.5512985229492188
0.6615886688232422,0.5581953048706054
0.6615886688232422,0.5581953048706054
0.6540418624877929,0.5594850540161133
0.6540418624877929,0.5594850540161133
0.6585388183593750,0.5550750732421875
0.6585388183593750,0.5550750732421875
0.6623210906982422,0.5652969360351562
0.6623210906982422,0.5652969360351562
0.6554924011230469,0.5565118789672852
0.6554924011230469,0.5565118789672852
0.6650808334350585,0.5630361557006835
0.6650808334350585,0.5630361557006835
0.6567626953125000,0.5636867523193360
0.6567626953125000,0.5636867523193360
0.6615188598632812,0.5596578598022460
0.6615188598632812,0.5596578598022460
0.6650848388671875,0.5689435958862304
0.6650848388671875,0.5689435958862304
0.6581331253051758,0.5605058670043945
0.6581331253051758,0.5605058670043945
0.6678451538085938,0.5673374176025391
0.6678451538085938,0.5673374176025391
0.6601615905761719,0.5688617706298827
0.6601615905761719,0.5688617706298827
0.6650287628173828,0.5642412185668945
0.6650287628173828,0.5642412185668945
0.6689592361450195,0.5744899749755860
0.6716737747192383,0.5744899749755860
0.6622793197631835,0.5662370681762695
0.6640445709228515,0.5662370681762695
0.6724067687988281,0.5742107391357422
0.6681123733520508,0.5742107391357422
0.6649251937866211,0.5754055023193360
0.6649251937866211,0.5754055023193360
0.6699245452880859,0.5715728759765625
0.6699245452880859,0.5715728759765625
0.6740043640136718,0.5823583602905273
0.6740043640136718,0.5823583602905273
0.6678428649902344,0.5746370315551758
0.6678428649902344,0.5746370315551758
0.6772813796997070,0.5806297302246094
0.6772813796997070,0.5806297302246094
0.6681404113769531,0.5795883178710938
0.6681404113769531,0.5795883178710938
0.6704069137573242,0.5713291168212891
0.6704069137573242,0.5713291168212891
0.6712961196899414,0.5774642944335937
0.6712961196899414,0.5774642944335937
0.6613208770751953,0.5639797210693359
0.6613208770751953,0.5639797210693359
0.6678302764892577,0.5660762786865234
0.6678302764892577,0.5660762786865234
0.6560726165771484,0.5618682861328125
0.6560726165771484,0.5618682861328125
0.6574790954589843,0.5522901535034179
0.6574790954589843,0.5522901535034179
0.6576976776123047,0.5567327499389648
0.6576976776123047,0.5567327499389648
0.6476749420166016,0.5438226699829102
0.6476749420166016,0.5438226699829102
0.6543605804443359,0.5465108871459960
0.6543605804443359,0.5465108871459960
0.6441049575805664,0.5446443557739258
0.6441049575805664,0.5446443557739258
0.6468103408813476,0.5369745254516601
0.6468103408813476,0.5369745254516601
0.6489400863647461,0.5447238922119141
0.6489400863647461,0.5447238922119141
0.6407678604125976,0.5346324920654296
0.6407678604125976,0.5346324920654296
0.6497646331787109,0.5408060073852539
0.6497646331787109,0.5408060073852539
0.6411392211914062,0.5404626846313476
0.6411392211914062,0.5404626846313476
0.6453626632690429,0.5352087020874023
0.6453626632690429,0.5352087020874023
0.6485813140869140,0.5446168899536132
0.6485813140869140,0.5446168899536132
0.6417783737182617,0.5364772796630859
0.6417783737182617,0.5364772796630859
0.6515687942504883,0.5432487487792969
0.6515687942504883,0.5432487487792969
0.6436620712280273,0.5444995880126953
0.6436620712280273,0.5444995880126953
0.6485034942626953,0.5403642654418945
0.6485034942626953,0.5403642654418945
0.6526308059692383,0.5512607574462890
0.6526308059692383,0.5512607574462890
0.6462684631347656,0.5428928375244141
0.6462684631347656,0.5428928375244141
0.6564147949218749,0.5503669738769531
0.6564147949218749,0.5503669738769531
0.6485692977905273,0.5516836166381835
0.6485692977905273,0.5516836166381835
0.6538095474243164,0.5481554031372070
0.6538095474243164,0.5481554031372070
0.6577875137329101,0.5581598281860352
0.6577875137329101,0.5581598281860352
0.6512414932250976,0.5499521255493164
0.6512414932250976,0.5499521255493164
0.6610410690307617,0.5571521759033203
0.6610410690307617,0.5571521759033203
0.6532773971557617,0.5586336135864257
0.6532773971557617,0.5586336135864257
0.6581033706665039,0.5538030624389648
0.6581033706665039,0.5538030624389648
0.6618181228637695,0.5638881683349609
0.6618181228637695,0.5638881683349609
0.6550271987915038,0.5554269790649414
0.6550271987915038,0.5554269790649414
0.6650836944580077,0.5631225585937499
0.6650836944580077,0.5631225585937499
0.6571077346801758,0.5637456893920898
0.6571077346801758,0.5637456893920898
0.6618787765502929,0.5591640472412109
0.6618787765502929,0.5591640472412109
0.6652885437011719,0.5690603256225586
0.6652885437011719,0.5690603256225586
0.6586584091186524,0.5610111236572265
0.6586584091186524,0.5610111236572265
0.6682113647460938,0.5674312591552734
0.6682113647460938,0.5674312591552734
0.6599802017211914,0.5677305221557617
0.6599802017211914,0.5677305221557617
0.6641201019287110,0.5624988555908202
0.6641201019287110,0.5624988555908202
0.6677106857299805,0.5727876663208008
0.6677106857299805,0.5727876663208008
0.6607578277587890,0.5636976242065429
0.6626089096069335,0.5636976242065429
0.6704807281494141,0.5707111358642578
0.6704807281494141,0.5707111358642578
0.6623170852661132,0.5715665817260742
0.6623170852661132,0.5715665817260742
0.6672134399414062,0.5672836303710938
0.6672134399414062,0.5672836303710938
0.6708389282226562,0.5769138336181641
0.6708389282226562,0.5769138336181641
0.6639455795288086,0.5683147430419921
0.6639455795288086,0.5683147430419921
0.6735551834106445,0.5749694824218750
0.6735551834106445,0.5749694824218750
0.6655597686767578,0.5759531021118164
0.6655597686767578,0.5759531021118164
0.6700521469116211,0.5706642150878906
0.6700521469116211,0.5706642150878906
0.6732593536376953,0.5800340652465820
0.6732593536376953,0.5800340652465820
0.6656455993652344,0.5704696655273437
0.6656455993652344,0.5704696655273437
0.6741205215454101,0.5753894805908203
0.6741205215454101,0.5753894805908203
0.6635358810424804,0.5718481063842773
0.6635358810424804,0.5718481063842773
0.6646453857421875,0.5616926193237305
0.6646453857421875,0.5616926193237305
0.6637853622436524,0.5651893615722656
0.6637853622436524,0.5651893615722656
0.6527235031127929,0.5506845474243164
0.6527235031127929,0.5506845474243164
0.6579917907714844,0.5508590698242187
0.6579917907714844,0.5508590698242187
0.6459892272949218,0.5458528518676757
0.6459892272949218,0.5458528518676757
0.6467628479003906,0.5358879089355468
0.6467628479003906,0.5358879089355468
0.6471502304077148,0.5413375854492187
0.6471502304077148,0.5413375854492187
0.6372980117797852,0.5282953262329101
0.6372980117797852,0.5282953262329101
0.6441827774047851,0.5313508987426757
0.6410459518432617,0.5286363601684571
0.6364557266235351,0.5216571807861328
0.6364557266235351,0.5216571807861328
0.6381946563720703,0.5284921646118164
0.6381946563720703,0.5284921646118164
0.6296413421630859,0.5176866531372070
0.6296413421630859,0.5176866531372070
0.6375846862792969,0.5226888656616211
0.6375846862792969,0.5226888656616211
0.6287057876586913,0.5223283767700195
0.6366811752319336,0.5223283767700195
0.6323621749877929,0.5161714553833008
0.6323621749877929,0.5161714553833008
0.6352151870727539,0.5251533508300781
0.6352151870727539,0.5251533508300781
0.6276975631713867,0.5158241271972656
0.6276975631713867,0.5158241271972656
0.6374164581298828,0.5231397628784179
0.6374164581298828,0.5231397628784179
0.6294633865356445,0.5239225387573242
0.6294633865356445,0.5239225387573242
0.6295875549316406,0.5193168640136718
0.6295875549316406,0.5212045669555664
0.6295875549316406,0.5212045669555664
0.6389104843139648,0.5245862960815429
0.6389104843139648,0.5245862960815429
0.6370353698730469,0.5323179244995117
0.6370353698730469,0.5323179244995117
0.6357931137084961,0.5237062454223632
0.6357931137084961,0.5237062454223632
0.6443950653076171,0.5346307754516602
0.6443950653076171,0.5346307754516602
0.6355138778686523,0.5305503845214844
0.6355138778686523,0.5305503845214844
0.6451669692993164,0.5332414627075195
0.6451669692993164,0.5332414627075195
0.6430109024047851,0.5406515121459960
0.6430109024047851,0.5406515121459960
0.6413623809814453,0.5310836791992187
0.6413623809814453,0.5310836791992187
0.6499139785766601,0.5431377410888671
0.6499139785766601,0.5431377410888671
0.6406127929687500,0.5379724502563477
0.6406127929687500,0.5379724502563477
0.6498613357543945,0.5399505615234375
0.6498613357543945,0.5399505615234375
0.6470409393310547,0.5460897445678711
0.6470409393310547,0.5460897445678711
0.6453895568847656,0.5376165390014648
0.6453895568847656,0.5376165390014648
0.6537574768066406,0.5484077453613281
0.6537574768066406,0.5484077453613281
0.6441352844238281,0.5424053192138671
0.6441352844238281,0.5424053192138671
0.6528127670288085,0.5434759140014648
0.6528127670288085,0.5434759140014648
0.6499631881713867,0.5507738113403320
0.6499631881713867,0.5507738113403320
0.6479587554931641,0.5410869598388671
0.6479587554931641,0.5410869598388671
0.6559661865234375,0.5513797760009765
0.6559661865234375,0.5513797760009765
0.6459165573120117,0.5445573806762695
0.6459165573120117,0.5445573806762695
0.6546049118041992,0.5468524932861328
0.6546049118041992,0.5468524932861328
0.6516265869140625,0.5530363082885742
0.6516265869140625,0.5530363082885742
0.6493881225585937,0.5428453445434570
0.6493881225585937,0.5428453445434570
0.6568525314331054,0.5523862838745117
0.6568525314331054,0.5523862838745117
0.6468984603881835,0.5468479156494140
0.6468984603881835,0.5468479156494140
0.6556955337524414,0.5484157562255859
0.6556955337524414,0.5484157562255859
0.6527378082275390,0.5544347763061523
0.6527378082275390,0.5544347763061523
0.6503585815429688,0.5436412811279296
0.6503585815429688,0.5436412811279296
0.6582172393798827,0.5548759460449219
0.6582172393798827,0.5548759460449219
0.6484474182128906,0.5487230300903320
0.6484474182128906,0.5487230300903320
0.6573486328125000,0.5502771377563477
0.6573486328125000,0.5502771377563477
0.6541093826293946,0.5556575775146484
0.6541093826293946,0.5556575775146484
0.6517370223999023,0.5459964752197265
0.6517370223999023,0.5459964752197265
0.6587591171264648,0.5550241470336914
0.6587591171264648,0.5550241470336914
0.6473121643066406,0.5460102081298828
0.6473121643066406,0.5460102081298828
0.6533088684082031,0.5426588058471680
0.6533088684082031,0.5426588058471680
0.6472286224365235,0.5452692031860351
0.6472286224365235,0.5452692031860351
0.6415740966796875,0.5303855895996094
0.6415740966796875,0.5303855895996094
0.6460493087768554,0.5356767654418945
0.6460493087768554,0.5356767654418945
0.6328182220458984,0.5240203857421875
0.6328182220458984,0.5240203857421875
0.6384824752807617,0.5219844818115235
0.6384824752807617,0.5219844818115235
0.6327232360839844,0.5243906021118164
0.6327232360839844,0.5243906021118164
0.6281335830688476,0.5108264923095703
0.6281335830688476,0.5108264923095703
0.6334711074829101,0.5173444747924805
0.6334711074829101,0.5173444747924805
0.6217655181884766,0.5093410491943359
0.6217655181884766,0.5093410491943359
0.6289014816284180,0.5085685729980468
0.6289014816284180,0.5085685729980468
0.6244365692138671,0.5129259109497070
0.6244365692138671,0.5129259109497070
0.6209632873535156,0.5008392333984375
0.6209632873535156,0.5008392333984375
0.6277450561523438,0.5106348037719727
0.6277450561523438,0.5106348037719727
0.6171169281005859,0.5035200119018555
0.6171169281005859,0.5035200119018555
0.6250682830810547,0.5039943695068360
0.6250682830810547,0.5039943695068360
0.6214181900024414,0.5087184906005859
0.6214181900024414,0.5087184906005859
0.6188249588012695,0.4994344711303711
0.6188249588012695,0.4994344711303711
0.6265050888061523,0.5096374511718750
0.6265050888061523,0.5096374511718750
0.6170516967773437,0.5036046981811523
0.6170516967773437,0.5036046981811523
0.6257989883422851,0.5050249099731445
0.6257989883422851,0.5050249099731445
0.6234437942504882,0.5129848480224609
0.6234437942504882,0.5129848480224609
0.6225002288818359,0.5048069000244141
0.6225002288818359,0.5048069000244141
0.6314878463745117,0.5166034698486328
0.6314878463745117,0.5166034698486328
0.6226163864135742,0.5113740921020508
0.6226163864135742,0.5113740921020508
0.6324588775634765,0.5154521942138671
0.6324588775634765,0.5154521942138671
0.6308979034423828,0.5234058380126952
0.6308979034423828,0.5234058380126952
0.6301952362060547,0.5155511856079101
0.6301952362060547,0.5155511856079101
0.6390192031860351,0.5269277572631835
0.6390192031860351,0.5269277572631835
0.6305128097534179,0.5233755111694336
0.6305128097534179,0.5233755111694336
0.6406116485595703,0.5269323348999023
0.6406116485595703,0.5269323348999023
0.6388664245605469,0.5346462249755859
0.6388664245605469,0.5346462249755859
0.6377798080444336,0.5256614685058594
0.6377798080444336,0.5256614685058594
0.6464841842651367,0.5383014678955078
0.6464841842651367,0.5383014678955078
0.6378530502319336,0.5333644866943359
0.6378530502319336,0.5333644866943359
0.6473888397216797,0.5361001968383788
0.6473888397216797,0.5361001968383788
0.6448986053466796,0.5424682617187500
0.6448986053466796,0.5424682617187500
0.6435390472412109,0.5345340728759765
0.6435390472412109,0.5345340728759765
0.6519664764404297,0.5459123611450195
0.6519664764404297,0.5459123611450195
0.6429897308349609,0.5404752731323242
0.6429897308349609,0.5404752731323242
0.6520488739013671,0.5424190521240234
0.6520488739013671,0.5424190521240234
0.6499139785766601,0.5505214691162109
0.6499139785766601,0.5505214691162109
0.6486454010009766,0.5421209335327148
0.6486454010009766,0.5421209335327148
0.6573194503784180,0.5534906387329102
0.6573194503784180,0.5534906387329102
0.6483472824096680,0.5477502822875976
0.6483472824096680,0.5477502822875976
0.6577995300292968,0.5514163970947266
0.6577995300292968,0.5514163970947266
0.6558540344238281,0.5590009689331055
0.6558540344238281,0.5590009689331055
0.6547319412231445,0.5504367828369140
0.6547319412231445,0.5504367828369140
0.6633258819580078,0.5614316940307617
0.6633258819580078,0.5614316940307617
0.6546312332153320,0.5574829101562500
0.6546312332153320,0.5574829101562500
0.6642671585083008,0.5606151580810547
0.6642671585083008,0.5606151580810547
0.6622856140136718,0.5682100296020508
0.6622856140136718,0.5682100296020508
0.6609277725219727,0.5590438842773438
0.6609277725219727,0.5590438842773438
0.6695617675781250,0.5714967727661132
0.6695617675781250,0.5714967727661132
0.6606222152709961,0.5663772583007812
0.6606222152709961,0.5663772583007812
0.6699285507202148,0.5684429168701172
0.6630741119384765,0.5684429168701172
0.6664907455444335,0.5732671737670898
0.6664907455444335,0.5732671737670898
0.6631027221679687,0.5620336532592773
0.6631027221679687,0.5620336532592773
0.6669908523559570,0.5656700134277344
0.6669908523559570,0.5656700134277344
0.6512632369995117,0.5504819869995117
0.6512632369995117,0.5504819869995117
0.6536556243896484,0.5427846908569336
0.6536556243896484,0.5427846908569336
0.6456487655639648,0.5426158905029297
0.6456487655639648,0.5426158905029297
0.6396017074584961,0.5270370483398438
0.6396017074584961,0.5270370483398438
0.6438674926757812,0.5322023391723633
0.6438674926757812,0.5322023391723633
0.6306489944458008,0.5204378128051758
0.6306489944458008,0.5204378128051758
0.6364803314208984,0.5187303543090820
0.6364803314208984,0.5187303543090820
0.6309242248535156,0.5211416244506836
0.6309242248535156,0.5211416244506836
0.6267545700073242,0.5080987930297851
0.6267545700073242,0.5080987930297851
0.6321252822875977,0.5149091720581055
0.6321252822875977,0.5149091720581055
0.6205192565917969,0.5066780090332031
0.6205192565917969,0.5066780090332031
0.6276454925537109,0.5064748764038086
0.6276454925537109,0.5064748764038086
0.6232440948486327,0.5108133316040039
0.6232440948486327,0.5108133316040039
0.6203670501708984,0.4992696762084960
0.6203670501708984,0.4992696762084960
0.6274223327636719,0.5096883773803711
0.6274223327636719,0.5096883773803711
0.6175357818603515,0.5032567977905273
0.6175357818603515,0.5032567977905273
0.6262493133544922,0.5052497863769531
0.6262493133544922,0.5052497863769531
0.6234346389770508,0.5114170074462890
0.6234346389770508,0.5114170074462890
0.6220544815063477,0.5033798217773438
0.6220544815063477,0.5033798217773438
0.6307113647460937,0.5151597976684570
0.6296321868896484,0.5151597976684570
0.6220762252807617,0.5101226806640625
0.6220762252807617,0.5101226806640625
0.6313488006591796,0.5123188018798828
0.6313488006591796,0.5123188018798828
0.6294095993041992,0.5206798553466797
0.6294095993041992,0.5206798553466797
0.6284975051879883,0.5122444152832031
0.6284975051879883,0.5122444152832031
0.6371440887451172,0.5236244201660156
0.6371440887451172,0.5236244201660156
0.6279619216918945,0.5174852371215820
0.6279619216918945,0.5174852371215820
0.6371063232421875,0.5208784103393554
0.6371063232421875,0.5208784103393554
0.6347253799438476,0.5278078079223633
0.6347253799438476,0.5278078079223633
0.6333663940429687,0.5187635421752930
0.6333663940429687,0.5187635421752930
0.6412210464477539,0.5286306381225586
0.6412210464477539,0.5286306381225586
0.6320365905761719,0.5237892150878906
0.6320365905761719,0.5237892150878906
0.6408994674682617,0.5260082244873047
0.6408994674682617,0.5260082244873047
0.6384630203247070,0.5324993133544922
0.6384630203247070,0.5324993133544922
0.6364809036254883,0.5227437973022461
0.6364809036254883,0.5227437973022461
0.6444042205810546,0.5342393875122070
0.6444042205810546,0.5342393875122070
0.6353759765625000,0.5285665512084960
0.6353759765625000,0.5285665512084960
0.6443853378295898,0.5307884216308594
0.6443853378295898,0.5307884216308594
0.6415992736816406,0.5367130279541016
0.6415992736816406,0.5367130279541016
0.6402591705322266,0.5288314819335938
0.6402591705322266,0.5288314819335938
0.6484874725341797,0.5398893356323242
0.6484874725341797,0.5398893356323242
0.6397087097167968,0.5344127655029297
0.6397087097167968,0.5344127655029297
0.6485229492187500,0.5361928939819336
0.6485229492187500,0.5361928939819336
0.6462919235229492,0.5439153671264648
0.6462919235229492,0.5439153671264648
0.6449346542358398,0.5354484558105469
0.6449346542358398,0.5354484558105469
0.6532773971557617,0.5463998794555663
0.6532773971557617,0.5463998794555663
0.6441999435424804,0.5403573989868163
0.6441999435424804,0.5403573989868163
0.6535274505615234,0.5440292358398438
0.6475748062133789,0.5440292358398438
0.6515064239501953,0.5512596130371094
0.6515064239501953,0.5512596130371094
0.6504964828491211,0.5429952621459960
0.6504964828491211,0.5429952621459960
0.6588987350463867,0.5538557052612304
0.6588987350463867,0.5538557052612304
0.6502126693725586,0.5497140884399414
0.6502126693725586,0.5497140884399414
0.6595378875732422,0.5525533676147460
0.6595378875732422,0.5525533676147460
0.6567918777465820,0.5581466674804687
0.6567918777465820,0.5581466674804687
0.6532573699951172,0.5453887939453125
0.6532573699951172,0.5453887939453125
0.6516357421875000,0.5420980453491211
0.6516357421875000,0.5420980453491211
0.6505851745605469,0.5451152801513671
0.6511728286743164,0.5451152801513671
0.6396188735961914,0.5299535751342773
0.6396188735961914,0.5299535751342773
0.6444688796997070,0.5305995941162109
0.6444688796997070,0.5305995941162109
0.6326814651489258,0.5257078170776367
0.6326814651489258,0.5257078170776367
0.6338121414184570,0.5158412933349609
0.6338121414184570,0.5158412933349609
0.6335729598999024,0.5205608367919922
0.6335729598999024,0.5205608367919922
0.6236949920654297,0.5074144363403320
0.6236949920654297,0.5074144363403320
0.6304533004760742,0.5111303329467773
0.6304533004760742,0.5111303329467773
0.6199573516845703,0.5075849533081055
0.6199573516845703,0.5075849533081055
0.6222227096557617,0.5000186920166015
0.6222227096557617,0.5000186920166015
0.6231273651123047,0.5065000534057617
0.6231273651123047,0.5065000534057617
0.6148006439208984,0.4956012725830078
0.6148006439208984,0.4956012725830078
0.6224338531494140,0.5003980636596680
0.6224338531494140,0.5003980636596680
0.6131452560424805,0.4988605499267578
0.6131452560424805,0.4988605499267578
0.6166334152221680,0.4929027557373047
0.6166334152221680,0.4929027557373047
0.6191064834594726,0.5018692016601562
0.6191064834594726,0.5018692016601562
0.6121152877807617,0.4924827575683594
0.6121152877807617,0.4924827575683594
0.6212310791015625,0.4992891311645508
0.6212310791015625,0.4992891311645508
0.6133260726928711,0.4999654769897461
0.6133260726928711,0.4999654769897461
0.6186075210571289,0.4965047836303711
0.6186075210571289,0.4965047836303711
0.6220127105712890,0.5062288284301758
0.6220127105712890,0.5062288284301758
0.6160137176513671,0.4983489990234375
0.6174860000610352,0.4983489990234375
0.6258310317993164,0.5061435699462891
0.6258310317993164,0.5061435699462891
0.6184787750244141,0.5074150085449218
0.6184787750244141,0.5074150085449218
0.6235393524169922,0.5033443450927734
0.6235393524169922,0.5033443450927734
0.6268295288085938,0.5133602142333984
0.6268295288085938,0.5133602142333984
0.6208253860473633,0.5052223205566406
0.6208253860473633,0.5052223205566406
0.6308418273925781,0.5135118484497070
0.6308418273925781,0.5135118484497070
0.6232601165771484,0.5140663146972656
0.6232601165771484,0.5140663146972656
0.6286371231079101,0.5103710174560546
0.6286371231079101,0.5103710174560546
0.6319570541381836,0.5202060699462890
0.6319570541381836,0.5202060699462890
0.6258642196655273,0.5123336791992187
0.6258642196655273,0.5123336791992187
0.6355773925781250,0.5194330215454102
0.6355773925781250,0.5194330215454102
0.6276037216186523,0.5200023651123047
0.6276037216186523,0.5200023651123047
0.6323152542114258,0.5156970977783203
0.6323152542114258,0.5156970977783203
0.6355854034423828,0.5255544662475585
0.6355854034423828,0.5255544662475585
0.6291801452636718,0.5165840148925781
0.6291801452636718,0.5165840148925781
0.6386655807495117,0.5238893508911132
0.6386655807495117,0.5238893508911132
0.6306753158569336,0.5242721557617187
0.6306753158569336,0.5242721557617187
0.6358068466186523,0.5207960128784179
0.6358068466186523,0.5207960128784179
0.6394449234008789,0.5307569503784180
0.6394449234008789,0.5307569503784180
0.6334785461425781,0.5231065750122070
0.6334785461425781,0.5231065750122070
0.6436008453369141,0.5310882568359375
0.6436008453369141,0.5310882568359375
0.6364013671875000,0.5327379226684570
0.6364013671875000,0.5327379226684570
0.6418521881103515,0.5290649414062499
0.6370788574218750,0.5290649414062499
0.6456390380859375,0.5395334243774413
0.6456390380859375,0.5395334243774413
0.6396268844604492,0.5315700531005859
0.6396268844604492,0.5315700531005859
0.6497491836547852,0.5399946212768555
0.6497491836547852,0.5399946212768555
0.6424558639526367,0.5409130096435547
0.6424558639526367,0.5409130096435547
0.6477041244506836,0.5373933792114257
0.6477041244506836,0.5373933792114257
0.6510377883911133,0.5474779129028320
0.6510377883911133,0.5474779129028320
0.6452785491943359,0.5397771835327149
0.6452785491943359,0.5397771835327149
0.6549339294433594,0.5469228744506835
0.6549339294433594,0.5469228744506835
0.6469459533691406,0.5468204498291015
0.6469459533691406,0.5468204498291015
0.6502355575561524,0.5404323577880860
0.6502355575561524,0.5404323577880860
0.6511316299438477,0.5467374801635742
0.6511316299438477,0.5467374801635742
0.6414728164672852,0.5328186035156249
0.6414728164672852,0.5328186035156249
0.6466066360473632,0.5340637207031250
0.6466066360473632,0.5340637207031250
0.6342739105224610,0.5279840469360352
0.6342739105224610,0.5279840469360352
0.6346893310546875,0.5181100845336913
0.6346893310546875,0.5181100845336913
0.6337097167968749,0.5214729309082031
0.6337097167968749,0.5214729309082031
0.6236577987670898,0.5077583312988281
0.6236577987670898,0.5077583312988281
0.6295263290405273,0.5101907730102538
0.6295263290405273,0.5101907730102538
0.6186595916748047,0.5066562652587890
0.6186595916748047,0.5066562652587890
0.6204540252685546,0.4980749130249023
0.6204540252685546,0.4980749130249023
0.6206995010375976,0.5036773681640625
0.6206995010375976,0.5036773681640625
0.6116895675659180,0.4918046951293945
0.6116895675659180,0.4918046951293945
0.6189004898071289,0.4962644577026367
0.6189004898071289,0.4962644577026367
0.6089218139648437,0.4935127258300781
0.6089218139648437,0.4935127258300781
0.6117404937744141,0.4867881774902343
0.6117404937744141,0.4867881774902343
0.6130777359008789,0.4939058303833008
0.6130777359008789,0.4939058303833008
0.6055297851562500,0.4842184066772461
0.6055297851562500,0.4842184066772461
0.6137815475463867,0.4899221420288086
0.6137815475463867,0.4899221420288086
0.6054708480834960,0.4893562316894531
0.6054708480834960,0.4893562316894531
0.6097675323486328,0.4848003387451172
0.6097675323486328,0.4848003387451172
0.6129518508911133,0.4947521209716796
0.6129518508911133,0.4947521209716796
0.6068561553955077,0.4862565994262695
0.6068561553955077,0.4862565994262695
0.6166986465454102,0.4942474365234375
0.6166986465454102,0.4942474365234375
0.6094499588012695,0.4955131530761718
0.6094499588012695,0.4955131530761718
0.6153877258300781,0.4933616638183593
0.6153877258300781,0.4933616638183593
0.6196552276611328,0.5041912078857421
0.6196552276611328,0.5041912078857421
0.6146924972534179,0.4975948333740234
0.6146924972534179,0.4975948333740234
0.6254528045654296,0.5066923141479492
0.6254528045654296,0.5066923141479492
0.6191356658935546,0.5092535018920898
0.6191356658935546,0.5092535018920898
0.6251924514770507,0.5065378189086914
0.6251924514770507,0.5065378189086914
0.6294754028320312,0.5175888061523437
0.6294754028320312,0.5175888061523437
0.6242002487182617,0.5103996276855468
0.6242002487182617,0.5103996276855468
0.6348993301391601,0.5199920654296875
0.6348993301391601,0.5199920654296875
0.6280752182006836,0.5214368820190429
0.6280752182006836,0.5214368820190429
0.6338665008544921,0.5186124801635742
0.6338665008544921,0.5186124801635742
0.6378381729125976,0.5294717788696289
0.6378381729125976,0.5294717788696289
0.6326602935791016,0.5226551055908203
0.6326602935791016,0.5226551055908203
0.6430458068847656,0.5309423446655274
0.6430458068847656,0.5309423446655274
0.6359584808349609,0.5323762893676758
0.6359584808349609,0.5323762893676758
0.6414962768554687,0.5291604995727539
0.6414962768554687,0.5291604995727539
0.6453615188598633,0.5403333663940429
0.6453615188598633,0.5403333663940429
0.6397733688354492,0.5321428298950195
0.6397733688354492,0.5321428298950195
0.6498121261596680,0.5405296325683594
0.6498121261596680,0.5405296325683594
0.6424346923828125,0.5417753219604492
0.6424346923828125,0.5417753219604492
0.6479982376098633,0.5388736724853516
0.6479982376098633,0.5388736724853516
0.6518468856811523,0.5490211486816406
0.6518468856811523,0.5490211486816406
0.6459806442260742,0.5412694931030273
0.6459806442260742,0.5412694931030273
0.6560634613037110,0.5493473052978516
0.6560634613037110,0.5493473052978516
0.6487071990966796,0.5508344650268554
0.6487071990966796,0.5508344650268554
0.6541826248168945,0.5470527648925781
0.6541826248168945,0.5470527648925781
0.6576747894287109,0.5573410034179688
0.6576747894287109,0.5573410034179688
0.6516975402832031,0.5492986679077149
0.6516975402832031,0.5492986679077149
0.6616790771484374,0.5575183868408203
0.6616790771484374,0.5575183868408203
0.6538650512695312,0.5574863433837890
0.6538650512695312,0.5574863433837890
0.6587253570556640,0.5531564712524414
0.6587253570556640,0.5531564712524414
0.6613489151000976,0.5619667053222656
0.6613489151000976,0.5619667053222656
0.6536390304565429,0.5510021209716797
0.6536390304565429,0.5510021209716797
0.6594343185424805,0.5521945953369141
0.6594343185424805,0.5521945953369141
0.6459428787231445,0.5444927215576172
0.6459428787231445,0.5444927215576172
0.6450450897216796,0.5322898864746094
0.6450450897216796,0.5322898864746094
0.6431716918945313,0.5352127075195312
0.6431716918945313,0.5352127075195312
0.6322843551635742,0.5196521759033202
0.6322843551635742,0.5196521759033202
0.6375303268432617,0.5210002899169922
0.6375303268432617,0.5210002899169922
0.6257520675659179,0.5159534454345703
0.6257520675659179,0.5159534454345703
0.6272569656372070,0.5075540542602539
0.6272569656372070,0.5075540542602539
0.6270652770996094,0.5121763229370117
0.6270652770996094,0.5121763229370117
0.6176536560058593,0.4992296218872070
0.6176536560058593,0.4992296218872070
0.6242111206054687,0.5028041839599610
0.6242111206054687,0.5028041839599610
0.6136728286743164,0.4995849609375000
0.6136728286743164,0.4995849609375000
0.6159404754638672,0.4917703628540039
0.6159404754638672,0.4917703628540039
0.6166728973388672,0.4981996536254882
0.6166728973388672,0.4981996536254882
0.6080165863037109,0.4864151000976562
0.6080165863037109,0.4864151000976562
0.6159067153930664,0.4920255661010742
0.6159067153930664,0.4920255661010742
0.6065700531005859,0.4900806427001953
0.6065700531005859,0.4900806427001953
0.6102207183837890,0.4847494125366211
0.6102207183837890,0.4847494125366211
0.6124328613281250,0.4933170318603515
0.6124328613281250,0.4933170318603515
0.6059183120727539,0.4847585678100585
0.6059183120727539,0.4847585678100585
0.6155502319335937,0.4920862197875976
0.6155502319335937,0.4920862197875976
0.6081447601318359,0.4927928924560547
0.6081447601318359,0.4927928924560547
0.6132957458496093,0.4894660949707031
0.6132957458496093,0.4894660949707031
0.6172954559326171,0.5004535675048828
0.6172954559326171,0.5004535675048828
0.6118268966674805,0.4927545547485351
0.6118268966674805,0.4927545547485351
0.6222724914550781,0.5015218734741210
0.6222724914550781,0.5015218734741210
0.6152372360229492,0.5029329299926758
0.6152372360229492,0.5029329299926758
0.6210222244262695,0.5003328323364258
0.6210222244262695,0.5003328323364258
0.6248233795166015,0.5105186462402344
0.6248233795166015,0.5105186462402344
0.6191465377807617,0.5027727127075196
0.6191465377807617,0.5027727127075196
0.6291326522827149,0.5109088897705077
0.6291326522827149,0.5109088897705077
0.6216957092285156,0.5120693206787109
0.6302358627319335,0.5120693206787109
0.6269245147705078,0.5080913543701172
0.6269245147705078,0.5080913543701172
0.6299909591674805,0.5179121017456054
0.6299909591674805,0.5179121017456054
0.6239078521728515,0.5094995498657227
0.6249629974365234,0.5094995498657227
0.6336370468139648,0.5176128387451172
0.6336370468139648,0.5176128387451172
0.6257783889770507,0.5176980972290038
0.6257783889770507,0.5176980972290038
0.6253641128540038,0.5141040802001953
0.6306289672851563,0.5141040802001953
0.6344455718994141,0.5178903579711914
0.6344455718994141,0.5178903579711914
0.6318981170654296,0.5244415283203124
0.6318981170654296,0.5244415283203124
0.6312406539916992,0.5162258148193359
0.6312406539916992,0.5162258148193359
0.6391874313354492,0.5267194747924805
0.6391874313354492,0.5267194747924805
0.6302724838256836,0.5218397140502929
0.6302724838256836,0.5218397140502929
0.6400537490844727,0.5254028320312499
0.6400537490844727,0.5254028320312499
0.6378290176391601,0.5322017669677734
0.6378290176391601,0.5322017669677734
0.6369947433471680,0.5235895156860352
0.6369947433471680,0.5235895156860352
0.6452436447143555,0.5360755920410156
0.6452436447143555,0.5360755920410156
0.6368419647216796,0.5305423736572266
0.6368419647216796,0.5305423736572266
0.6468046188354492,0.5342302322387695
0.6468046188354492,0.5342302322387695
0.6440156936645508,0.5406148910522460
0.6440156936645508,0.5406148910522460
0.6435098648071289,0.5333976745605469
0.6435098648071289,0.5333976745605469
0.6516695022583008,0.5449945449829101
0.6516695022583008,0.5449945449829101
0.6430898666381836,0.5389646530151367
0.6430898666381836,0.5389646530151367
0.6518760681152344,0.5407258987426757
0.6518760681152344,0.5407258987426757
0.6478637695312500,0.5458797454833985
0.6478637695312500,0.5458797454833985
0.6445192337036133,0.5335687637329102
0.6445192337036133,0.5335687637329102
0.6491992950439452,0.5396415710449218
0.6491992950439452,0.5396415710449218
0.6357267379760742,0.5267412185668945
0.6357267379760742,0.5267412185668945
0.6404273986816406,0.5240215301513672
0.6404273986816406,0.5240215301513672
0.6330413818359375,0.5239929199218750
0.6330413818359375,0.5239929199218750
0.6279939651489258,0.5090749740600585
0.6279939651489258,0.5090749740600585
0.6313676834106445,0.5138002395629883
0.6313676834106445,0.5138002395629883
0.6183643341064453,0.5027933120727539
0.6183643341064453,0.5027933120727539
0.6239467620849609,0.5005966186523437
0.6239467620849609,0.5005966186523437
0.6176113128662110,0.5020935058593750
0.6176113128662110,0.5020935058593750
0.6128934860229492,0.4879795074462890
0.6128934860229492,0.4879795074462890
0.6172605514526367,0.4952762603759766
0.6172605514526367,0.4952762603759766
0.6050542831420899,0.4848117828369141
0.6050542831420899,0.4848117828369141
0.6114423751831054,0.4836055755615234
0.6114423751831054,0.4836055755615234
0.6054405212402344,0.4856534957885742
0.6054405212402344,0.4856534957885742
0.6020336151123047,0.4745281219482422
0.6020336151123047,0.4745281219482422
0.6080017089843750,0.4832479476928710
0.6080017089843750,0.4832479476928710
0.5974971771240234,0.4749269485473633
0.5974971771240234,0.4749269485473633
0.6055418014526367,0.4760936737060547
0.6055418014526367,0.4760936737060547
0.6018756866455078,0.4824634552001953
0.6018756866455078,0.4824634552001953
0.6007793426513671,0.4736881256103516
0.6007793426513671,0.4736881256103516
0.6090019226074218,0.4851442337036133
0.6090019226074218,0.4851442337036133
0.6002099990844726,0.4791406631469726
0.6002099990844726,0.4791406631469726
0.6103906631469727,0.4838104248046875
0.6103906631469727,0.4838104248046875
0.6083793640136719,0.4916622161865234
0.6083793640136719,0.4916622161865234
0.6088949203491211,0.4846155166625976
0.6088949203491211,0.4846155166625976
0.6175180435180664,0.4967382431030273
0.6175180435180664,0.4967382431030273
0.6096960067749023,0.4926481246948242
0.6096960067749023,0.4926481246948242
0.6201816558837890,0.4974403381347656
0.6201816558837890,0.4974403381347656
0.6185611724853516,0.5049734115600586
0.6254304885864258,0.5049734115600586
0.6182315826416015,0.4970117568969726
0.6182315826416015,0.4970117568969726
0.6266624450683593,0.5097667694091796
0.6266624450683593,0.5097667694091796
0.6183660507202148,0.5042564392089843
0.6183660507202148,0.5042564392089843
0.6281181335449219,0.5078189849853515
0.6281181335449219,0.5078189849853515
0.6251358032226563,0.5138116836547851
0.6251358032226563,0.5138116836547851
0.6242483139038085,0.5061246871948242
0.6242483139038085,0.5061246871948242
0.6321384429931640,0.5173816680908203
0.6321384429931640,0.5173816680908203
0.6233018875122071,0.5110628128051757
0.6233018875122071,0.5110628128051757
0.6323724746704101,0.5136640548706054
0.6323724746704101,0.5136640548706054
0.6294965744018555,0.5207061767578125
0.6294965744018555,0.5207061767578125
0.6289312362670898,0.5125951766967773
0.6289312362670898,0.5125951766967773
0.6373683929443359,0.5243322372436523
0.6373683929443359,0.5243322372436523
0.6286600112915038,0.5183767318725586
0.6286600112915038,0.5183767318725586
0.6387760162353515,0.5232788085937500
0.6387760162353515,0.5232788085937500
0.6368053436279296,0.5308547973632812
0.6368053436279296,0.5308547973632812
0.6368494033813477,0.5232696533203125
0.6368494033813477,0.5232696533203125
0.6450136184692382,0.5347898483276367
0.6450136184692382,0.5347898483276367
0.6368339538574218,0.5304599761962890
0.6368339538574218,0.5304599761962890
0.6469659805297852,0.5348962783813477
0.6469659805297852,0.5348962783813477
0.6452390670776367,0.5423881530761718
0.6452390670776367,0.5423881530761718
0.6448762893676757,0.5342988967895508
0.6448762893676757,0.5342988967895508
0.6532110214233399,0.5470567703247070
0.6532110214233399,0.5470567703247070
0.6447898864746093,0.5416923522949219
0.6447898864746093,0.5416923522949219
0.6548624038696289,0.5453264236450195
0.6548624038696289,0.5453264236450195
0.6521135330200195,0.5514621734619141
0.6521135330200195,0.5514621734619141
0.6514966964721679,0.5441934585571289
0.6514966964721679,0.5441934585571289
0.6594892501831054,0.5554201126098632
0.6594892501831054,0.5554201126098632
0.6503602981567382,0.5485055923461913
0.6503602981567382,0.5485055923461913
0.6581663131713867,0.5489971160888671
0.6581663131713867,0.5489971160888671
0.6530828475952148,0.5530374526977538
0.6530828475952148,0.5530374526977538
0.6490001678466797,0.5392616271972656
0.6490001678466797,0.5392616271972656
0.6517347335815430,0.5426702499389648
0.6517347335815430,0.5426702499389648
0.6364763259887695,0.5276384353637695
0.6364763259887695,0.5276384353637695
0.6403438568115234,0.5240982055664062
0.6403438568115234,0.5240982055664062
0.6328382492065430,0.5242927551269531
0.6328382492065430,0.5242927551269531
0.6280672073364257,0.5100866317749023
0.6280672073364257,0.5100866317749023
0.6319101333618163,0.5157148361206054
0.6319101333618163,0.5157148361206054
0.6196592330932617,0.5057384490966796
0.6196592330932617,0.5057384490966796
0.6260141372680664,0.5051811218261718
0.6260141372680664,0.5051811218261718
0.6208288192749023,0.5078630447387695
0.6208288192749023,0.5078630447387695
0.6171146392822265,0.4954107284545898
0.6171146392822265,0.4954107284545898
0.6226266860961914,0.5041769027709960
0.6226266860961914,0.5041769027709960
0.6114612579345703,0.4951023101806640
0.6114612579345703,0.4951023101806640
0.6189451217651367,0.4957099914550781
0.6189451217651367,0.4957099914550781
0.6141643524169922,0.4993612289428710
0.6141643524169922,0.4993612289428710
0.6117530822753906,0.4898477554321289
0.6117530822753906,0.4898477554321289
0.6186561584472656,0.4997669219970703
0.6186561584472656,0.4997669219970703
0.6090156555175781,0.4924261093139648
0.6090156555175781,0.4924261093139648
0.6176284790039063,0.4945575714111328
0.6176284790039063,0.4945575714111328
0.6147571563720703,0.5017999649047852
0.6147571563720703,0.5017999649047852
0.6141958236694336,0.4936946868896484
0.6141958236694336,0.4936946868896484
0.6226284027099609,0.5052846908569336
0.6226284027099609,0.5052846908569336
0.6136459350585938,0.4987953186035156
0.6192890167236328,0.4987953186035156
0.6234924316406250,0.5034616470336913
0.6234924316406250,0.5034616470336913
0.6211263656616210,0.5106513977050781
0.6211263656616210,0.5106513977050781
0.6208837509155273,0.5026668548583985
0.6208837509155273,0.5026668548583985
0.6287836074829102,0.5135810852050781
0.6287836074829102,0.5135810852050781
0.6200454711914062,0.5086023330688476
0.6200454711914062,0.5086023330688476
0.6296104431152344,0.5122587203979492
0.6296104431152344,0.5122587203979492
0.6272603988647460,0.5190101623535156
0.6272603988647460,0.5190101623535156
0.6262361526489257,0.5099939346313477
0.6262361526489257,0.5099939346313477
0.6341720581054687,0.5221035003662109
0.6341720581054687,0.5221035003662109
0.6253229141235351,0.5160055160522461
0.6253229141235351,0.5160055160522461
0.6348855972290038,0.5192590713500976
0.6348855972290038,0.5192590713500976
0.6317831039428711,0.5251115798950196
0.6317831039428711,0.5251115798950196
0.6309562683105469,0.5175945281982421
0.6309562683105469,0.5175945281982421
0.6391096115112305,0.5289997100830078
0.6391096115112305,0.5289997100830078
0.6303771972656250,0.5230121612548828
0.6303771972656250,0.5230121612548828
0.6395891189575195,0.5257707595825195
0.6395891189575195,0.5257707595825195
0.6367109298706054,0.5330451965332031
0.6367109298706054,0.5330451965332031
0.6360048294067383,0.5248203277587891
0.6360048294067383,0.5248203277587891
0.6440608978271484,0.5358283996582031
0.6440608978271484,0.5358283996582031
0.6347013473510742,0.5286209106445312
0.6347013473510742,0.5286209106445312
0.6436946868896484,0.5324375152587890
0.6436946868896484,0.5324375152587890
0.6408502578735351,0.5386928558349610
0.6408502578735351,0.5386928558349610
0.6399747848510742,0.5297550201416016
0.6399747848510742,0.5297550201416016
0.6471313476562500,0.5396913528442383
0.6471313476562500,0.5396913528442383
0.6378067016601562,0.5336540222167968
0.6378067016601562,0.5336540222167968
0.6467359542846679,0.5366804122924804
0.6467359542846679,0.5366804122924804
0.6438972473144531,0.5425838470458985
0.6438972473144531,0.5425838470458985
0.6424673080444335,0.5331304550170898
0.6424673080444335,0.5331304550170898
0.6501983642578125,0.5447084426879882
0.6501983642578125,0.5447084426879882
0.6408908843994140,0.5381544113159179
0.6408908843994140,0.5381544113159179
0.6502046585083008,0.5410858154296875
0.6502046585083008,0.5410858154296875
0.6466140747070312,0.5459163665771484
0.6466140747070312,0.5459163665771484
0.6444580078125000,0.5363170623779296
0.6444580078125000,0.5363170623779296
0.6498973846435546,0.5438026428222656
0.6498973846435546,0.5438026428222656
0.6373781204223633,0.5322870254516602
0.6373781204223633,0.5322870254516602
0.6420524597167968,0.5289625167846680
0.6420524597167968,0.5289625167846680
0.6347740173339843,0.5300680160522461
0.6347740173339843,0.5300680160522461
0.6294799804687500,0.5156679153442383
0.6294799804687500,0.5156679153442383
0.6331604003906249,0.5211662292480469
0.6331604003906249,0.5211662292480469
0.6197364807128906,0.5089902877807617
0.6197364807128906,0.5089902877807617
0.6253074645996094,0.5082046508789062
0.6253074645996094,0.5082046508789062
0.6191722869873046,0.5103361129760742
0.6191722869873046,0.5103361129760742
0.6153968811035156,0.4976137161254883
0.6153968811035156,0.4976137161254883
0.6198200225830078,0.5039726257324219
0.6198200225830078,0.5039726257324219
0.6077127456665039,0.4946365356445312
0.6077127456665039,0.4946365356445312
0.6144647598266602,0.4946685791015625
0.6144647598266602,0.4946685791015625
0.6094230651855469,0.4979072570800781
0.6094230651855469,0.4979072570800781
0.6061906814575195,0.4861907958984375
0.6061906814575195,0.4861907958984375
0.6075794219970703,0.4874897003173828
0.6015123367309571,0.4874897003173828
0.6120660781860351,0.4954347610473633
0.6098934173583984,0.4954347610473633
0.6021160125732422,0.4855773925781250
0.6021160125732422,0.4855773925781250
0.6112678527832031,0.4929033279418945
0.6112678527832031,0.4929033279418945
0.6033027648925781,0.4933233261108398
0.6033027648925781,0.4933233261108398
0.6084646224975586,0.4896314620971680
0.6084646224975586,0.4896314620971680
0.6117811203002930,0.5000644683837890
0.6117811203002930,0.5000644683837890
0.6063302993774414,0.4922510147094726
0.6063302993774414,0.4922510147094726
0.6170225143432617,0.5018119812011719
0.6170225143432617,0.5018119812011719
0.6100032806396484,0.5028173446655273
0.6100032806396484,0.5028173446655273
0.6160875320434570,0.5003780364990235
0.6160875320434570,0.5003780364990235
0.6196741104125977,0.5110055923461914
0.6196741104125977,0.5110055923461914
0.6145334243774414,0.5037746429443359
0.6145334243774414,0.5037746429443359
0.6249967575073242,0.5125625610351562
0.6249967575073242,0.5125625610351562
0.6177120208740234,0.5134048461914062
0.6177120208740234,0.5134048461914062
0.6231222152709961,0.5101861953735352
0.6231222152709961,0.5101861953735352
0.6265010833740234,0.5207393646240234
0.6265010833740234,0.5207393646240234
0.6207618713378906,0.5121465682983398
0.6207618713378906,0.5121465682983398
0.6307336807250976,0.5206146240234375
0.6307336807250976,0.5206146240234375
0.6227359771728516,0.5205493927001953
0.6227359771728516,0.5205493927001953
0.6280162811279296,0.5172666549682617
0.6280162811279296,0.5172666549682617
0.6306735992431640,0.5263561248779297
0.6306735992431640,0.5263561248779297
0.6243741989135742,0.5172288894653320
0.6243741989135742,0.5172288894653320
0.6337257385253906,0.5248701095581054
0.6337257385253906,0.5248701095581054
0.6255769729614258,0.5248003005981445
0.6255769729614258,0.5248003005981445
0.6303800582885742,0.5203731536865234
0.6303800582885742,0.5203731536865234
0.6328462600708008,0.5295564651489257
0.6328462600708008,0.5295564651489257
0.6263082504272460,0.5200035095214843
0.6263082504272460,0.5200035095214843
0.6355224609375000,0.5278341293334960
0.6355224609375000,0.5278341293334960
0.6269308090209961,0.5266668319702148
0.6269308090209961,0.5266668319702148
0.6312944412231445,0.5220142364501953
0.6312944412231445,0.5220142364501953
0.6333108901977539,0.5307329177856445
0.6333108901977539,0.5307329177856445
0.6265926361083984,0.5211925506591797
0.6265926361083984,0.5211925506591797
0.6356809616088867,0.5280269622802735
0.6356809616088867,0.5280269622802735
0.6272586822509766,0.5275291442871094
0.6272586822509766,0.5275291442871094
0.6321819305419921,0.5236679077148437
0.6321819305419921,0.5236679077148437
0.6354532241821289,0.5342479705810547
0.6354532241821289,0.5342479705810547
0.6297706604003906,0.5254777908325196
0.6297706604003906,0.5254777908325196
0.6397035598754882,0.5337615966796875
0.6397035598754882,0.5337615966796875
0.6318025588989258,0.5339715957641601
0.6318025588989258,0.5339715957641601
0.6373975753784179,0.5311614990234375
0.6373975753784179,0.5311614990234375
0.6404554367065429,0.5407453536987304
0.6404554367065429,0.5407453536987304
0.6342647552490234,0.5316009521484375
0.6342647552490234,0.5316009521484375
0.6429302215576171,0.5381406784057617
0.6429302215576171,0.5381406784057617
0.6335117340087890,0.5360795974731445
0.6335117340087890,0.5360795974731445
0.6361438751220703,0.5287834167480469
0.6361438751220703,0.5287834167480469
0.6360877990722656,0.5346490859985351
0.6360877990722656,0.5346490859985351
0.6273130416870117,0.5222242355346679
0.6273130416870117,0.5222242355346679
0.6342802047729492,0.5270439147949219
0.6342802047729492,0.5270439147949219
0.6239376068115234,0.5233005523681641
0.6239376068115234,0.5233005523681641
0.6266429901123046,0.5164192199707031
0.6266429901123046,0.5164192199707031
0.6268833160400390,0.5227357864379882
0.6268833160400390,0.5227357864379882
0.6192220687866211,0.5118925094604492
0.6192220687866211,0.5118925094604492
0.6269811630249024,0.5171304702758789
0.6255414962768554,0.5169805526733399
0.6148544311523437,0.5093748092651367
0.6148544311523437,0.5093748092651367
0.6226844787597656,0.5112213134765625
0.6226844787597656,0.5112213134765625
0.6191259384155273,0.5158092498779296
0.6191259384155273,0.5158092498779296
0.6167919158935546,0.5055204391479492
0.6167919158935546,0.5055204391479492
0.6236789703369140,0.5163969039916992
0.6236789703369140,0.5163969039916992
0.6141071319580078,0.5091167449951172
0.6141071319580078,0.5091167449951172
0.6231817245483399,0.5120035171508789
0.6231817245483399,0.5120035171508789
0.6196941375732422,0.5172626495361328
0.6196941375732422,0.5172626495361328
0.6188947677612304,0.5098451614379883
0.6188947677612304,0.5098451614379883
0.6268312454223632,0.5211101531982422
0.6268312454223632,0.5211101531982422
0.6182968139648437,0.5147014617919922
0.6182968139648437,0.5147014617919922
0.6274641036987304,0.5178050994873047
0.6274641036987304,0.5178050994873047
0.6250888824462890,0.5254468917846680
0.6250888824462890,0.5254468917846680
0.6248903274536133,0.5178909301757812
0.6248903274536133,0.5178909301757812
0.6334922790527343,0.5296342849731445
0.6334922790527343,0.5296342849731445
0.6245853424072265,0.5231706619262695
0.6245853424072265,0.5231706619262695
0.6344861984252930,0.5284235000610351
0.6344861984252930,0.5284235000610351
0.6324748992919922,0.5358238220214844
0.6324748992919922,0.5358238220214844
0.6327775955200196,0.5283348083496093
0.6327775955200196,0.5283348083496093
0.6407546997070312,0.5395299911499023
0.6407546997070312,0.5395299911499023
0.6321681976318360,0.5346393585205078
0.6321681976318360,0.5346393585205078
0.6421451568603516,0.5389841079711913
0.6421451568603516,0.5389841079711913
0.6400508880615234,0.5457715988159180
0.6400508880615234,0.5457715988159180
0.6392160415649414,0.5371433258056640
0.6392160415649414,0.5371433258056640
0.6471393585205077,0.5493570327758789
0.6471393585205077,0.5493570327758789
0.6384012222290039,0.5433506011962891
0.6384012222290039,0.5433506011962891
0.6483804702758789,0.5471620559692383
0.6483804702758789,0.5471620559692383
0.6454833984375000,0.5530786514282227
0.6454833984375000,0.5530786514282227
0.6451606750488281,0.5461938858032226
0.6451606750488281,0.5461938858032226
0.6533512115478516,0.5580087661743164
0.6533512115478516,0.5580087661743164
0.6451017379760742,0.5518901824951171
0.6451017379760742,0.5518901824951171
0.6543537139892578,0.5552141189575195
0.6543537139892578,0.5552141189575195
0.6519893646240235,0.5629205703735352
0.6519893646240235,0.5629205703735352
0.6515590667724609,0.5553640365600586
0.6515590667724609,0.5553640365600586
0.6601678848266601,0.5669431686401367
0.6601678848266601,0.5669431686401367
0.6509925842285156,0.5602741241455078
0.6509925842285156,0.5602741241455078
0.6606914520263671,0.5652191162109375
0.6606914520263671,0.5652191162109375
0.6583734512329101,0.5721067428588867
0.6583734512329101,0.5721067428588867
0.6583499908447266,0.5646881103515625
0.6583499908447266,0.5646881103515625
0.6663236618041992,0.5756355285644531
0.6663236618041992,0.5756355285644531
0.6576908111572265,0.5706785202026367
0.6576908111572265,0.5706785202026367
0.6677295684814453,0.5752504348754882
0.6677295684814453,0.5752504348754882
0.6656948089599609,0.5821140289306640
0.6656948089599609,0.5821140289306640
0.6650362014770508,0.5738199234008788
0.6650362014770508,0.5738199234008788
0.6733503341674805,0.5864204406738281
0.6733503341674805,0.5864204406738281
0.6644559860229492,0.5797353744506836
0.6644559860229492,0.5797353744506836
0.6734956741333008,0.5818508148193359
0.6734956741333008,0.5818508148193359
0.6680219650268554,0.5838083267211914
0.6680219650268554,0.5838083267211914
0.6625345230102538,0.5684909820556641
0.6625345230102538,0.5684909820556641
0.6624853134155273,0.5688686370849609
0.6574499130249023,0.5688686370849609
0.6461357116699219,0.5521408081054687
0.6461357116699219,0.5521408081054687
0.6484474182128906,0.5460874557495117
0.6484474182128906,0.5460874557495117
0.6396858215332031,0.5452938079833984
0.6396858215332031,0.5452938079833984
0.6340599060058594,0.5307100296020507
0.6340599060058594,0.5307100296020507
0.6381340026855469,0.5366191864013672
0.6381340026855469,0.5366191864013672
0.6253847122192383,0.5251453399658202
0.6253847122192383,0.5251453399658202
0.6322454452514649,0.5262147903442382
0.6322454452514649,0.5262147903442382
0.6272769927978515,0.5297733306884765
0.6272769927978515,0.5297733306884765
0.6248600006103515,0.5187320709228516
0.6248600006103515,0.5187320709228516
0.6305168151855468,0.5268030166625977
0.6305168151855468,0.5268030166625977
0.6198440551757812,0.5189306259155273
0.6198440551757812,0.5189306259155273
0.6279870986938476,0.5208097457885742
0.6279870986938476,0.5208097457885742
0.6242477416992187,0.5256025314331054
0.6242477416992187,0.5256025314331054
0.6221122741699219,0.5152370452880859
0.6221122741699219,0.5152370452880859
0.6289649963378906,0.5260334014892578
0.6289649963378906,0.5260334014892578
0.6192815780639648,0.5187526702880859
0.6192815780639648,0.5187526702880859
0.6286079406738281,0.5218214035034180
0.6286079406738281,0.5218214035034180
0.6251575469970703,0.5269844055175781
0.6251575469970703,0.5269844055175781
0.6243495941162109,0.5195760726928711
0.6243495941162109,0.5195760726928711
0.6321556091308593,0.5306333541870117
0.6321556091308593,0.5306333541870117
0.6235788345336913,0.5242080688476562
0.6235788345336913,0.5242080688476562
0.6328062057495117,0.5274135589599609
0.6328062057495117,0.5274135589599609
0.6301757812500000,0.5348173141479492
0.6301757812500000,0.5348173141479492
0.6299085617065430,0.5272682189941406
0.6299085617065430,0.5272682189941406
0.6383359909057617,0.5386241912841797
0.6383359909057617,0.5386241912841797
0.6291864395141601,0.5319150924682617
0.6291864395141601,0.5319150924682617
0.6390151977539062,0.5369888305664062
0.6390151977539062,0.5369888305664062
0.6366834640502930,0.5437711715698242
0.6366834640502930,0.5437711715698242
0.6367624282836913,0.5361671447753906
0.6367624282836913,0.5361671447753906
0.6441604614257812,0.5465692520141602
0.6441604614257812,0.5465692520141602
0.6352598190307617,0.5409267425537109
0.6352598190307617,0.5409267425537109
0.6445758819580077,0.5445899963378906
0.6445758819580077,0.5445899963378906
0.6420604705810546,0.5505020141601562
0.6420604705810546,0.5505020141601562
0.6408176422119141,0.5415899276733398
0.6408176422119141,0.5415899276733398
0.6482694625854492,0.5531684875488281
0.6482694625854492,0.5531684875488281
0.6392269134521484,0.5464233398437500
0.6392269134521484,0.5464233398437500
0.6487844467163085,0.5499847412109374
0.6487844467163085,0.5499847412109374
0.6451412200927734,0.5552032470703124
0.6451412200927734,0.5552032470703124
0.6444620132446289,0.5476804733276367
0.6444620132446289,0.5476804733276367
0.6520202636718749,0.5584945678710938
0.6520202636718749,0.5584945678710938
0.6429079055786132,0.5514347076416015
0.6429079055786132,0.5514347076416015
0.6516986846923828,0.5540668487548828
0.6516986846923828,0.5540668487548828
0.6486179351806640,0.5607839584350586
0.6486179351806640,0.5607839584350586
0.6478322982788086,0.5523250579833984
0.6478322982788086,0.5523250579833984
0.6555187225341796,0.5554624557495117
0.6514360427856445,0.5554624557495117
0.6549230575561523,0.5647550582885742
0.6549230575561523,0.5647550582885742
0.6480108261108398,0.5561885833740234
0.6480108261108398,0.5561885833740234
0.6574945449829102,0.5640146255493164
0.6574945449829102,0.5640146255493164
0.6497365951538085,0.5636758804321289
0.6497365951538085,0.5636758804321289
0.6543914794921875,0.5598495483398437
0.6543914794921875,0.5598495483398437
0.6571100234985351,0.5697595596313476
0.6571100234985351,0.5697595596313476
0.6510320663452148,0.5602100372314452
0.6510320663452148,0.5602100372314452
0.6599653244018554,0.5673460006713867
0.6548761367797852,0.5673460006713867
0.6501766204833984,0.5642915725708008
0.6501766204833984,0.5642915725708008
0.6524528503417969,0.5567384719848633
0.6524528503417969,0.5567384719848633
0.6511619567871093,0.5602712631225586
0.6511619567871093,0.5602712631225586
0.6408731460571289,0.5454494476318359
0.6408731460571289,0.5454494476318359
0.6457592010498047,0.5470527648925781
0.6457592010498047,0.5470527648925781
0.6332302093505859,0.5408483505249023
0.6332302093505859,0.5408483505249023
0.6339202880859375,0.5308284759521484
0.6339202880859375,0.5308284759521484
0.6324239730834961,0.5347995758056641
0.6324239730834961,0.5347995758056641
0.6226306915283203,0.5207336425781249
0.6226306915283203,0.5207336425781249
0.6289695739746094,0.5246263504028320
0.6289695739746094,0.5246263504028320
0.6177309036254882,0.5196590423583984
0.6177309036254882,0.5196590423583984
0.6198120117187500,0.5120841979980468
0.6198120117187500,0.5120841979980468
0.6192621231079102,0.5173982620239258
0.6192621231079102,0.5173982620239258
0.6108324050903320,0.5054443359374999
0.6108324050903320,0.5054443359374999
0.6178493499755859,0.5100328445434570
0.6178493499755859,0.5100328445434570
0.6075765609741210,0.5064004898071289
0.6075765609741210,0.5064004898071289
0.6102607727050781,0.4999706268310546
0.6102607727050781,0.4999706268310546
0.6107769012451172,0.5071683883666992
0.6107769012451172,0.5071683883666992
0.6034029006958007,0.4958496093750000
0.6034029006958007,0.4958496093750000
0.6118824005126953,0.5026376724243163
0.6118824005126953,0.5026376724243163
0.6030715942382813,0.5013410568237304
0.6030715942382813,0.5013410568237304
0.6081481933593750,0.4981636047363281
0.6081481933593750,0.4981636047363281
0.6111253738403321,0.5081331253051757
0.6111253738403321,0.5081331253051757
0.6061334609985352,0.5003385543823242
0.6061334609985352,0.5003385543823242
0.6165916442871093,0.5098251342773438
0.6165916442871093,0.5098251342773438
0.6098648071289062,0.5111846923828125
0.6098648071289062,0.5111846923828125
0.6159341812133788,0.5090520858764648
0.6159341812133788,0.5090520858764648
0.6197204589843750,0.5197814941406250
0.6197204589843750,0.5197814941406250
0.6145093917846679,0.5118164062500000
0.6145093917846679,0.5118164062500000
0.6251735687255859,0.5216068267822266
0.6251735687255859,0.5216068267822266
0.6180919647216797,0.5219884872436523
0.6180919647216797,0.5219884872436523
0.6239244461059570,0.5195800781250000
0.6239244461059570,0.5195800781250000
0.6269611358642578,0.5298311233520507
0.6269611358642578,0.5298311233520507
0.6218141555786133,0.5219718933105468
0.6218141555786133,0.5219718933105468
0.6319725036621093,0.5306007385253906
0.6319725036621093,0.5306007385253906
0.6245801925659179,0.5309663772583008
0.6245801925659179,0.5309663772583008
0.6301820755004882,0.5283370971679687
0.6301820755004882,0.5283370971679687
0.6335031509399414,0.5391271591186523
0.6335031509399414,0.5391271591186523
0.6284568786621093,0.5308347702026367
0.6284568786621093,0.5308347702026367
0.6385345458984375,0.5399694442749023
0.6385345458984375,0.5399694442749023
0.6312726974487305,0.5406291961669921
0.6312726974487305,0.5406291961669921
0.6373643875122070,0.5385463714599609
0.6373643875122070,0.5385463714599609
0.6406551361083984,0.5488466262817383
0.6406551361083984,0.5488466262817383
0.6358051300048828,0.5410434722900390
0.6358051300048828,0.5410434722900390
0.6459320068359374,0.5501998901367188
0.6459320068359374,0.5501998901367188
0.6388967514038085,0.5512458801269531
0.6388967514038085,0.5512458801269531
0.6448974609375000,0.5487001419067382
0.6448974609375000,0.5487001419067382
0.6482070922851563,0.5591308593750000
0.6482070922851563,0.5591308593750000
0.6430973052978516,0.5513734817504883
0.6430973052978516,0.5513734817504883
0.6536138534545898,0.5609630584716797
0.6536138534545898,0.5609630584716797
0.6462959289550781,0.5610614776611328
0.6462959289550781,0.5610614776611328
0.6519796371459960,0.5583721160888672
0.6519796371459960,0.5583721160888672
0.6548103332519531,0.5681190490722656
0.6548103332519531,0.5681190490722656
0.6495975494384766,0.5605613708496093
0.6495975494384766,0.5605613708496093
0.6597284317016602,0.5690586090087890
0.6597284317016602,0.5690586090087890
0.6522760391235352,0.5692731857299804
0.6522760391235352,0.5692731857299804
0.6576021194458007,0.5665134429931641
0.6576021194458007,0.5665134429931641
0.6608791351318359,0.5770254135131836
0.6608791351318359,0.5770254135131836
0.6555988311767578,0.5685831069946289
0.6555988311767578,0.5685831069946289
0.6657634735107422,0.5774745941162109
0.6657634735107422,0.5774745941162109
0.6579013824462890,0.5767644882202149
0.6579013824462890,0.5767644882202149
0.6626106262207031,0.5729684829711914
0.6626106262207031,0.5729684829711914
0.6634803771972656,0.5795448303222656
0.6634803771972656,0.5795448303222656
0.6550088882446289,0.5667469024658203
0.6540309906005859,0.5667469024658203
0.6608802795410156,0.5698854446411132
0.6608802795410156,0.5698854446411132
0.6490156173706054,0.5638790130615234
0.6490156173706054,0.5638790130615234
0.6492965698242187,0.5534877777099609
0.6492965698242187,0.5534877777099609
0.6473361968994140,0.5566772460937500
0.6473361968994140,0.5566772460937500
0.6370960235595703,0.5419876098632812
0.6370960235595703,0.5419876098632812
0.6432466506958008,0.5457607269287109
0.6432466506958008,0.5457607269287109
0.6317916870117187,0.5401960372924804
0.6317916870117187,0.5401960372924804
0.6340696334838867,0.5328128814697265
0.6340696334838867,0.5328128814697265
0.6337537765502930,0.5386899948120117
0.6337537765502930,0.5386899948120117
0.6260215759277343,0.5272401809692383
0.6260215759277343,0.5272401809692383
0.6338607788085937,0.5329627990722656
0.6338607788085937,0.5329627990722656
0.6245555877685547,0.5306156158447265
0.6245555877685547,0.5306156158447265
0.6285518646240235,0.5258022308349609
0.6285518646240235,0.5258022308349609
0.6304201126098633,0.5348287582397461
0.6304201126098633,0.5348287582397461
0.6243473052978515,0.5251384735107422
0.6243473052978515,0.5251384735107422
0.6336885452270508,0.5332363128662109
0.6336885452270508,0.5332363128662109
0.6256021499633789,0.5326320648193359
0.6339826583862305,0.5326320648193359
0.6311405181884765,0.5299123764038086
0.6311405181884765,0.5299123764038086
0.6338653564453125,0.5394252777099610
0.6338653564453125,0.5394252777099610
0.6286005020141602,0.5310659408569336
0.6286005020141602,0.5310659408569336
0.6386421203613281,0.5400690078735352
0.6386421203613281,0.5400690078735352
0.6313476562500000,0.5407619476318359
0.6313476562500000,0.5407619476318359
0.6371349334716797,0.5378934860229492
0.6371349334716797,0.5378934860229492
0.6400457382202148,0.5480592727661132
0.6400457382202148,0.5480592727661132
0.6347030639648438,0.5397663116455078
0.6347030639648438,0.5397663116455078
0.6450759887695312,0.5491676330566406
0.6450759887695312,0.5491676330566406
0.6375514984130859,0.5490142822265625
0.6375514984130859,0.5490142822265625
0.6433135986328125,0.5464742660522460
0.6433135986328125,0.5464742660522460
0.6461265563964843,0.5564094543457031
0.6461265563964843,0.5564094543457031
0.6410648345947265,0.5485788345336914
0.6410648345947265,0.5485788345336914
0.6512638092041015,0.5574497222900391
0.6512638092041015,0.5574497222900391
0.6436368942260742,0.5572311401367187
0.6436368942260742,0.5572311401367187
0.6489543914794922,0.5544136047363281
0.6489543914794922,0.5544136047363281
0.6518754959106445,0.5646286010742188
0.6518754959106445,0.5646286010742188
0.6465522766113281,0.5557537078857422
0.6465522766113281,0.5557537078857422
0.6566110610961914,0.5647830963134766
0.6566110610961914,0.5647830963134766
0.6486768722534180,0.5642377853393554
0.6486768722534180,0.5642377853393554
0.6541734695434570,0.5616296768188477
0.6486396789550781,0.5616296768188477
0.6565023422241211,0.5707780838012695
0.6565023422241211,0.5707780838012695
0.6507551193237304,0.5616170883178710
0.6507551193237304,0.5616170883178710
0.6601341247558593,0.5699878692626953
0.6601341247558593,0.5699878692626953
0.6520729064941406,0.5693635940551758
0.6520729064941406,0.5693635940551758
0.6570934295654297,0.5654531478881836
0.6570934295654297,0.5654531478881836
0.6592609405517578,0.5744527816772461
0.6592609405517578,0.5744527816772461
0.6530542373657227,0.5650703430175781
0.6530542373657227,0.5650703430175781
0.6627805709838867,0.5739057540893554
0.6627805709838867,0.5739057540893554
0.6545602798461914,0.5725421905517578
0.6545602798461914,0.5725421905517578
0.6595052719116211,0.5688657760620117
0.6595052719116211,0.5688657760620117
0.6613420486450196,0.5777389526367187
0.6613420486450196,0.5777389526367187
0.6555273056030273,0.5686408996582031
0.6555273056030273,0.5686408996582031
0.6649389266967773,0.5763324737548828
0.6649389266967773,0.5763324737548828
0.6566585540771485,0.5751697540283203
0.6566585540771485,0.5751697540283203
0.6611640930175781,0.5710264205932617
0.6611640930175781,0.5710264205932617
0.6630048751831055,0.5799493789672852
0.6630048751831055,0.5799493789672852
0.6565504074096680,0.5693647384643554
0.6565504074096680,0.5693647384643554
0.6645807266235352,0.5754861831665039
0.6645807266235352,0.5754861831665039
0.6541419982910156,0.5711614608764648
0.6541419982910156,0.5711614608764648
0.6552555084228515,0.5618036270141601
0.6552555084228515,0.5618036270141601
0.6518228530883788,0.5628055572509766
0.6518228530883788,0.5628055572509766
0.6407203674316406,0.5464136123657226
0.6407203674316406,0.5464136123657226
0.6453157424926758,0.5479963302612304
0.6453157424926758,0.5479963302612304
0.6331066131591797,0.5417146682739258
0.6331066131591797,0.5417146682739258
0.6341194152832031,0.5325038909912109
0.6341194152832031,0.5325038909912109
0.6325716018676758,0.5365001678466796
0.6325716018676758,0.5365001678466796
0.6232761383056641,0.5228147506713867
0.6232761383056641,0.5228147506713867
0.6298685073852539,0.5271732330322265
0.6298685073852539,0.5271732330322265
0.6188764572143555,0.5220897674560546
0.6188764572143555,0.5220897674560546
0.6213815689086913,0.5154109954833984
0.6213815689086913,0.5154109954833984
0.6210319519042968,0.5211605072021485
0.6210319519042968,0.5211605072021485
0.6132705688476562,0.5098949432373047
0.6132705688476562,0.5098949432373047
0.6210039138793945,0.5153743743896484
0.6210039138793945,0.5153743743896484
0.6110790252685546,0.5121196746826172
0.6110790252685546,0.5121196746826172
0.6143463134765624,0.5067558288574219
0.6143463134765624,0.5067558288574219
0.6154026031494141,0.5146436691284180
0.6154026031494141,0.5146436691284180
0.6088439941406250,0.5043056488037109
0.6088439941406250,0.5043056488037109
0.6181337356567382,0.5123159408569335
0.6181337356567382,0.5123159408569335
0.6100902557373047,0.5115428924560547
0.6100902557373047,0.5115428924560547
0.6101909637451172,0.5094989776611328
0.6101909637451172,0.5076175689697265
0.6101909637451172,0.5097335815429688
0.6206914901733398,0.5143918991088867
0.6206914901733398,0.5143918991088867
0.6174757003784179,0.5200126647949218
0.6174757003784179,0.5200126647949218
0.6177085876464844,0.5137693405151367
0.6177085876464844,0.5137693405151367
0.6255907058715821,0.5253347396850586
0.6255907058715821,0.5253347396850586
0.6170574188232422,0.5186685562133789
0.6170574188232422,0.5186685562133789
0.6266778945922852,0.5227031707763672
0.6266778945922852,0.5227031707763672
0.6238752365112304,0.5296428680419921
0.6238752365112304,0.5296428680419921
0.6241178512573242,0.5224828720092773
0.6241178512573242,0.5224828720092773
0.6322820663452148,0.5337301254272461
0.6322820663452148,0.5337301254272461
0.6226770401000976,0.5263589859008789
0.6226770401000976,0.5263589859008789
0.6327369689941406,0.5317285537719726
0.6327369689941406,0.5317285537719726
0.6298610687255859,0.5379673004150390
0.6298610687255859,0.5379673004150390
0.6304138183593749,0.5306161880493164
0.6304138183593749,0.5306161880493164
0.6378364562988281,0.5413318634033203
0.6378364562988281,0.5413318634033203
0.6286954879760742,0.5353031158447266
0.6286954879760742,0.5353031158447266
0.6386484146118164,0.5398155212402344
0.6386484146118164,0.5398155212402344
0.6360792160034180,0.5457756042480468
0.6360792160034180,0.5457756042480468
0.6355779647827148,0.5376869201660156
0.6355779647827148,0.5376869201660156
0.6433307647705078,0.5498886108398438
0.6433307647705078,0.5498886108398438
0.6342636108398437,0.5431062698364257
0.6342636108398437,0.5431062698364257
0.6447177886962890,0.5476324081420898
0.6447177886962890,0.5476324081420898
0.6411249160766601,0.5527359008789062
0.6411249160766601,0.5527359008789062
0.6410957336425781,0.5462436676025391
0.6410957336425781,0.5462436676025391
0.6489303588867187,0.5574892044067382
0.6489303588867187,0.5574892044067382
0.6401384353637695,0.5505414962768554
0.6401384353637695,0.5505414962768554
0.6495752334594727,0.5543581008911133
0.6495752334594727,0.5543581008911133
0.6463577270507812,0.5609424591064452
0.6463577270507812,0.5609424591064452
0.6464916229248047,0.5536634445190429
0.6464916229248047,0.5536634445190429
0.6543502807617188,0.5644306182861328
0.6543502807617188,0.5644306182861328
0.6443824768066406,0.5563058853149414
0.6443824768066406,0.5563058853149414
0.6540344238281249,0.5611021041870117
0.6540344238281249,0.5611021041870117
0.6503871917724610,0.5662347793579101
0.6503871917724610,0.5662347793579101
0.6504404067993164,0.5581186294555663
0.6504404067993164,0.5581186294555663
0.6566390991210938,0.5676218032836914
0.6566390991210938,0.5676218032836914
0.6465797424316406,0.5601860046386719
0.6465797424316406,0.5601860046386719
0.6553396224975586,0.5629125595092773
0.6553396224975586,0.5629125595092773
0.6508071899414062,0.5659343719482421
0.6508071899414062,0.5659343719482421
0.6480628967285156,0.5544713973999024
0.6480628967285156,0.5544713973999024
0.6526519775390625,0.5621366500854492
0.6526519775390625,0.5621366500854492
0.6401161193847656,0.5503669738769531
0.6401161193847656,0.5503669738769531
0.6471073150634765,0.5501735687255859
0.6388063430786133,0.5501735687255859
0.6400411605834960,0.5506816864013672
0.6400411605834960,0.5506816864013672
0.6370903015136719,0.5397760391235351
0.6370903015136719,0.5397760391235351
0.6416759490966797,0.5468233108520507
0.6416759490966797,0.5468233108520507
0.6299835205078125,0.5357007980346680
0.6299835205078125,0.5357007980346680
0.6368551254272461,0.5361751556396485
0.6368551254272461,0.5361751556396485
0.6312280654907226,0.5393726348876953
0.6312280654907226,0.5393726348876953
0.6295040130615234,0.5293642044067383
0.6295040130615234,0.5293642044067383
0.6355081558227539,0.5377389907836914
0.6355081558227539,0.5377389907836914
0.6239021301269531,0.5273826599121093
0.6239021301269531,0.5273826599121093
0.6321252822875977,0.5304748535156250
0.6321252822875977,0.5304748535156250
0.6273817062377930,0.5340517044067382
0.6273817062377930,0.5340517044067382
0.6265251159667968,0.5245662689208984
0.6265251159667968,0.5245662689208984
0.6320194244384766,0.5331642150878906
0.6320194244384766,0.5331642150878906
0.6217346191406250,0.5254102706909179
0.6217346191406250,0.5254102706909179
0.6307571411132812,0.5288503646850585
0.6307571411132812,0.5288503646850585
0.6272403717041015,0.5333925247192383
0.6272403717041015,0.5333925247192383
0.6262842178344726,0.5247362136840820
0.6262842178344726,0.5247362136840820
0.6332725524902344,0.5359977722167969
0.6332725524902344,0.5359977722167969
0.6240468978881836,0.5288932800292968
0.6240468978881836,0.5288932800292968
0.6343013763427734,0.5331911087036133
0.6343013763427734,0.5331911087036133
0.6304824829101562,0.5380084991455077
0.6378330230712891,0.5380084991455077
0.6306547164916992,0.5317131042480469
0.6306547164916992,0.5317131042480469
0.6382747650146484,0.5427904129028320
0.6382747650146484,0.5427904129028320
0.6296104431152344,0.5359777450561524
0.6296104431152344,0.5359777450561524
0.6391450881958007,0.5399488449096680
0.6391450881958007,0.5399488449096680
0.6360523223876953,0.5465486526489257
0.6360523223876953,0.5465486526489257
0.6364385604858398,0.5396501541137695
0.6364385604858398,0.5396501541137695
0.6443613052368163,0.5505586624145508
0.6443613052368163,0.5505586624145508
0.6347219467163085,0.5428831100463867
0.6347219467163085,0.5428831100463867
0.6446256637573242,0.5482635498046875
0.6446256637573242,0.5482635498046875
0.6413331985473633,0.5537258148193359
0.6413331985473633,0.5537258148193359
0.6418178558349609,0.5462482452392577
0.6418178558349609,0.5462482452392577
0.6485618591308594,0.5560415267944335
0.6485618591308594,0.5560415267944335
0.6389276504516601,0.5494714736938476
0.6389276504516601,0.5494714736938476
0.6487014770507812,0.5539106369018555
0.6487014770507812,0.5539106369018555
0.6455772399902343,0.5588624954223632
0.6455772399902343,0.5588624954223632
0.6448705673217773,0.5505918502807617
0.6448705673217773,0.5505918502807617
0.6520935058593750,0.5619993209838867
0.6520935058593750,0.5619993209838867
0.6425971984863281,0.5546756744384765
0.6425971984863281,0.5546756744384765
0.6529695510864257,0.5590845108032226
0.6529695510864257,0.5590845108032226
0.6488920211791992,0.5635042190551758
0.6488920211791992,0.5635042190551758
0.6489189147949218,0.5567773818969727
0.6489189147949218,0.5567773818969727
0.6561973571777343,0.5675485610961913
0.6561973571777343,0.5675485610961913
0.6471410751342773,0.5599920272827148
0.6471410751342773,0.5599920272827148
0.6563117980957031,0.5634670257568359
0.6563117980957031,0.5634670257568359
0.6526679992675781,0.5696004867553711
0.6526679992675781,0.5696004867553711
0.6525981903076171,0.5622545242309570
0.6525981903076171,0.5622545242309570
0.6604923248291016,0.5729164123535156
0.6604923248291016,0.5729164123535156
0.6502973556518554,0.5646675109863281
0.6502973556518554,0.5646675109863281
0.6600608825683594,0.5699787139892578
0.6600608825683594,0.5699787139892578
0.6565692901611327,0.5753683090209961
0.6565692901611327,0.5753683090209961
0.6571958541870117,0.5679450988769531
0.6571958541870117,0.5679450988769531
0.6639352798461914,0.5778556823730469
0.6639352798461914,0.5778556823730469
0.6543560028076172,0.5709451675415039
0.6543560028076172,0.5709451675415039
0.6635885238647461,0.5742467880249024
0.6635885238647461,0.5742467880249024
0.6589250564575195,0.5770259857177734
0.6589250564575195,0.5770259857177734
0.6561973571777343,0.5656534194946289
0.6561973571777343,0.5656534194946289
0.6604202270507812,0.5723373413085937
0.6604202270507812,0.5723373413085937
0.6459342956542968,0.5576677322387695
0.6459342956542968,0.5576677322387695
0.6510314941406250,0.5549016952514648
0.6510314941406250,0.5549016952514648
0.6422698974609374,0.5532817840576172
0.6422698974609374,0.5532817840576172
0.6388034820556641,0.5416952133178711
0.6388034820556641,0.5416952133178711
0.6428043365478515,0.5477336883544922
0.6428043365478515,0.5477336883544922
0.6303131103515625,0.5355560302734375
0.6303131103515625,0.5355560302734375
0.6363567352294922,0.5349666595458984
0.6363567352294922,0.5349666595458984
0.6295927047729492,0.5366849899291992
0.6295927047729492,0.5366849899291992
0.6270257949829101,0.5256013870239258
0.6270257949829101,0.5256013870239258
0.6321212768554687,0.5326755523681640
0.6321212768554687,0.5326755523681640
0.6196603775024414,0.5213453292846679
0.6196603775024414,0.5213453292846679
0.6277914047241211,0.5240758895874024
0.6277914047241211,0.5240758895874024
0.6223646163940429,0.5270462036132812
0.6290388107299805,0.5270462036132812
0.6216396331787110,0.5177272796630860
0.6216396331787110,0.5177272796630860
0.6272787094116211,0.5263366699218750
0.6272787094116211,0.5263366699218750
0.6169200897216797,0.5185861587524414
0.6169200897216797,0.5185861587524414
0.6263505935668945,0.5226934432983398
0.6263505935668945,0.5226934432983398
0.6227554321289063,0.5273351669311523
0.6227554321289063,0.5273351669311523
0.6223011016845703,0.5188768386840820
0.6223011016845703,0.5188768386840820
0.6293025970458984,0.5301790237426758
0.6293025970458984,0.5301790237426758
0.6196420669555663,0.5226139068603516
0.6196420669555663,0.5226139068603516
0.6301712036132813,0.5271749496459961
0.6301712036132813,0.5271749496459961
0.6256319046020508,0.5312833786010742
0.6256319046020508,0.5312833786010742
0.6256862640380859,0.5245473861694335
0.6256862640380859,0.5245473861694335
0.6328016281127929,0.5350576400756836
0.6328016281127929,0.5350576400756836
0.6234477996826172,0.5271343231201172
0.6234477996826172,0.5271343231201172
0.6325870513916015,0.5305463790893554
0.6325870513916015,0.5305463790893554
0.6285867691040039,0.5360258102416992
0.6285867691040039,0.5360258102416992
0.6284311294555663,0.5283147811889648
0.6284311294555663,0.5283147811889648
0.6357645034790039,0.5383312225341796
0.6357645034790039,0.5383312225341796
0.6254041671752929,0.5298820495605469
0.6254041671752929,0.5298820495605469
0.6350360870361328,0.5348773956298828
0.6350360870361328,0.5348773956298828
0.6312744140625000,0.5398572921752930
0.6312744140625000,0.5398572921752930
0.6318815231323242,0.5322824478149414
0.6318815231323242,0.5322824478149414
0.6383045196533202,0.5419120788574219
0.6383045196533202,0.5419120788574219
0.6287057876586913,0.5352396011352539
0.6287057876586913,0.5352396011352539
0.6388967514038085,0.5400140762329101
