REDsignal,IRsignal
0.5291376113891602,0.7499948501586914
0.5444612503051758,0.7688547134399414
0.5444612503051758,0.7688547134399414
0.5263538360595703,0.7607671737670898
0.5263538360595703,0.7607671737670898
0.5405593872070312,0.7606899261474609
0.5405593872070312,0.7606899261474609
0.5393863677978515,0.7742837905883789
0.5393863677978515,0.7742837905883789
0.5329530715942382,0.7571966171264648
0.5329530715942382,0.7571966171264648
0.5486789703369140,0.7767528533935547
0.5486789703369140,0.7767528533935547
0.5311471939086914,0.7694892883300781
0.5311471939086914,0.7694892883300781
0.5482818603515625,0.7710845947265624
0.5482818603515625,0.7710845947265624
0.5456811904907226,0.7838808059692383
0.5456811904907226,0.7838808059692383
0.5377693176269531,0.7646324157714843
0.5377693176269531,0.7646324157714843
0.5520990371704101,0.7835123062133789
0.5520990371704101,0.7835123062133789
0.5325994491577148,0.7726049423217773
0.5522769927978516,0.7726049423217773
0.5472078323364258,0.7702348709106445
0.5472078323364258,0.7702348709106445
0.5432344436645508,0.7781393051147460
0.5432344436645508,0.7781393051147460
0.5333032608032227,0.7527511596679687
0.5333032608032227,0.7527511596679687
0.5463718414306641,0.7666477203369141
0.5463718414306641,0.7666477203369141
0.5254697799682617,0.7537221908569336
0.5254697799682617,0.7537221908569336
0.5391809463500976,0.7509441375732422
0.5391809463500976,0.7509441375732422
0.5358215332031250,0.7613410949707031
0.5358215332031250,0.7613410949707031
0.5281425476074219,0.7397151947021484
0.5281425476074219,0.7397151947021484
0.5428602218627929,0.7572446823120117
0.5428602218627929,0.7572446823120117
0.5232879638671875,0.7476053237915039
0.5232879638671875,0.7476053237915039
0.5374460220336914,0.7463521957397461
0.5374460220336914,0.7463521957397461
0.5354822158813476,0.7587043762207031
0.5354822158813476,0.7587043762207031
0.5282758712768555,0.7393764495849610
0.5282758712768555,0.7393764495849610
0.5438598632812500,0.7586500167846679
0.5438598632812500,0.7586500167846679
0.5243196487426758,0.7500526428222656
0.5243196487426758,0.7500526428222656
0.5395494461059570,0.7496286392211914
0.5395494461059570,0.7496286392211914
0.5378408432006836,0.7639543533325195
0.5378408432006836,0.7639543533325195
0.5309623718261719,0.7457256317138672
0.5309623718261719,0.7457256317138672
0.5467906951904297,0.7657733917236328
0.5467906951904297,0.7657733917236328
0.5283027648925781,0.7582672119140624
0.5283027648925781,0.7582672119140624
0.5435056686401367,0.7588182449340820
0.5435056686401367,0.7588182449340820
0.5421220779418945,0.7734294891357422
0.5421220779418945,0.7734294891357422
0.5348648071289063,0.7548442840576172
0.5348648071289063,0.7548442840576172
0.5514089584350585,0.7749841690063476
0.5514089584350585,0.7749841690063476
0.5322120666503906,0.7676370620727538
0.5322120666503906,0.7676370620727538
0.5475002288818359,0.7673892974853516
0.5475002288818359,0.7673892974853516
0.5453956604003906,0.7812286376953125
0.5453956604003906,0.7812286376953125
0.5384788513183594,0.7616786956787109
0.5384788513183594,0.7616786956787109
0.5544708251953124,0.7812898635864257
0.5544708251953124,0.7812898635864257
0.5350336074829102,0.7735971450805664
0.5350336074829102,0.7735971450805664
0.5494594573974609,0.7724956512451172
0.5494594573974609,0.7724956512451172
0.5482818603515625,0.7862388610839843
0.5482818603515625,0.7862388610839843
0.5408620834350586,0.7669830322265625
0.5408620834350586,0.7669830322265625
0.5569004058837891,0.7864374160766602
0.5569004058837891,0.7864374160766602
0.5369922637939453,0.7785959243774414
0.5369922637939453,0.7785959243774414
0.5520149230957031,0.7769903182983399
0.5520149230957031,0.7769903182983399
0.5504579544067383,0.7910270690917969
0.5504579544067383,0.7910270690917969
0.5429574966430664,0.7715875625610351
0.5429574966430664,0.7715875625610351
0.5583292007446289,0.7903861999511719
0.5583292007446289,0.7903861999511719
0.5392187118530273,0.7828147888183593
0.5392187118530273,0.7828147888183593
0.5538236618041992,0.7813699722290038
0.5538236618041992,0.7813699722290038
0.5523645401000976,0.7950868606567383
0.5523645401000976,0.7950868606567383
0.5440881729125976,0.7751432418823242
0.5440881729125976,0.7751432418823242
0.5603616714477538,0.7938789367675781
0.5603616714477538,0.7938789367675781
0.5409484863281250,0.7868408203125000
0.5409484863281250,0.7868408203125000
0.5555448532104492,0.7848220825195312
0.5555448532104492,0.7848220825195312
0.5536651611328125,0.7985750198364258
0.5536651611328125,0.7985750198364258
0.5462339401245117,0.7785175323486327
0.5462339401245117,0.7785175323486327
0.5622516632080078,0.7977819442749023
0.5622516632080078,0.7977819442749023
0.5425123214721680,0.7906923294067383
0.5425123214721680,0.7906923294067383
0.5566526412963867,0.7880825042724610
0.5566526412963867,0.7880825042724610
0.5556449890136719,0.8014114379882812
0.5556449890136719,0.8014114379882812
0.5473960876464844,0.7809900283813477
0.5500980377197265,0.7809900283813477
0.5627637863159179,0.7987604141235352
0.5627637863159179,0.7987604141235352
0.5416872024536132,0.7895307540893555
0.5416872024536132,0.7895307540893555
0.5555311203002929,0.7836530685424804
0.5555311203002929,0.7836530685424804
0.5525905609130859,0.7939081192016602
0.5525905609130859,0.7939081192016602
0.5426914215087890,0.7694446563720703
0.5426914215087890,0.7694446563720703
0.5559207916259765,0.7828571319580078
0.5559207916259765,0.7828571319580078
0.5343400955200195,0.7705404281616210
0.5343400955200195,0.7705404281616210
0.5468072891235352,0.7637105941772461
0.5468072891235352,0.7637105941772461
0.5445962905883789,0.7750322341918945
0.5445962905883789,0.7750322341918945
0.5350633621215820,0.7535104751586914
0.5350633621215820,0.7535104751586914
0.5510347366333007,0.7705970764160156
0.5381910324096679,0.7705970764160156
0.5490652084350586,0.7638216018676758
0.5490652084350586,0.7751689910888672
0.5452920913696289,0.7607831954956055
0.5327178955078125,0.7607831954956055
0.5491933822631836,0.7742820739746094
0.5491933822631836,0.7742820739746094
0.5360040664672852,0.7543413162231445
0.5360040664672852,0.7543413162231445
0.5521190643310546,0.7733064651489258
0.5521190643310546,0.7733064651489258
0.5326486587524414,0.7679580688476563
0.5326486587524414,0.7679580688476563
0.5468685150146484,0.7658740997314453
0.5468685150146484,0.7658740997314453
0.5471237182617187,0.7807634353637695
0.5471237182617187,0.7807634353637695
0.5392055511474609,0.7624660491943359
0.5392055511474609,0.7624660491943359
0.5556301116943360,0.7818557739257812
0.5556301116943360,0.7818557739257812
0.5357614517211914,0.7765954971313477
0.5357614517211914,0.7765954971313477
0.5509088516235351,0.7738637924194336
0.5509088516235351,0.7738637924194336
0.5507120132446289,0.7886833190917969
0.5507120132446289,0.7886833190917969
0.5423120498657227,0.7691980361938476
0.5423120498657227,0.7691980361938476
0.5579372406005859,0.7876321792602539
0.5579372406005859,0.7876321792602539
0.5386230468750000,0.7818037033081054
0.5386230468750000,0.7818037033081054
0.5529567718505859,0.7784854888916015
0.5529567718505859,0.7784854888916015
0.5525556564331054,0.7928449630737304
0.5525556564331054,0.7928449630737304
0.5432905197143555,0.7728149414062500
0.5432905197143555,0.7728149414062500
0.5599313735961914,0.7904611587524414
0.5599313735961914,0.7904611587524414
0.5400243759155273,0.7850669860839844
0.5400243759155273,0.7850669860839844
0.5542911529541016,0.7813802719116211
0.5542911529541016,0.7813802719116211
0.5533332824707031,0.7954233169555663
0.5533332824707031,0.7954233169555663
0.5448789596557617,0.7752822875976563
0.5448789596557617,0.7752822875976563
0.5611530303955078,0.7933788299560547
0.5611530303955078,0.7933788299560547
0.5411436080932617,0.7882404327392578
0.5411436080932617,0.7882404327392578
0.5550630569458007,0.7840421676635742
0.5550630569458007,0.7840421676635742
0.5551425933837890,0.7979719161987304
0.5551425933837890,0.7979719161987304
0.5461612701416015,0.7780294418334961
0.5461612701416015,0.7780294418334961
0.5623289108276367,0.7959291458129882
0.5623289108276367,0.7959291458129882
0.5417106628417968,0.7903415679931640
0.5417106628417968,0.7903415679931640
0.5564764022827148,0.7860614776611328
0.5564764022827148,0.7860614776611328
0.5561691284179687,0.8006120681762695
0.5561691284179687,0.8006120681762695
0.5470745086669921,0.7806060791015624
0.5470745086669921,0.7806060791015624
0.5630487442016602,0.7982814788818359
0.5630487442016602,0.7982814788818359
0.5431131362915039,0.7926921844482422
0.5431131362915039,0.7926921844482422
0.5575687408447265,0.7886089324951172
0.5575687408447265,0.7886089324951172
0.5573032379150390,0.8027406692504883
0.5573032379150390,0.8027406692504883
0.5473743438720703,0.7816194534301758
0.5473743438720703,0.7816194534301758
0.5634269714355469,0.7972835540771485
0.5634269714355469,0.7972835540771485
0.5420087814331055,0.7891822814941406
0.5420087814331055,0.7891822814941406
0.5544067382812500,0.7804561614990234
0.5544067382812500,0.7804561614990234
0.5515829086303711,0.7883874893188476
0.5515829086303711,0.7883874893188476
0.5393526077270507,0.7603906631469727
0.5393526077270507,0.7603906631469727
0.5532320022583007,0.7726461410522460
0.5532320022583007,0.7726461410522460
0.5313268661499023,0.7645660400390625
0.5313268661499023,0.7645660400390625
0.5442352294921875,0.7573310852050781
0.5442352294921875,0.7573310852050781
0.5436721801757812,0.7697862625122071
0.5436721801757812,0.7697862625122071
0.5336648941040039,0.7485328674316406
0.5336648941040039,0.7485328674316406
0.5499246597290038,0.7652063369750977
0.5499246597290038,0.7652063369750977
0.5287490844726562,0.7597148895263671
0.5287490844726562,0.7597148895263671
0.5435245513916015,0.7546955108642578
0.5435245513916015,0.7546955108642578
0.5437774658203125,0.7698440551757812
0.5437774658203125,0.7698440551757812
0.5342948913574218,0.7505510330200195
0.5342948913574218,0.7505510330200195
0.5507738113403320,0.7684885025024414
0.5507738113403320,0.7684885025024414
0.5313400268554688,0.7648252487182617
0.5313400268554688,0.7648252487182617
0.5460908889770507,0.7615093231201172
0.5460908889770507,0.7615093231201172
0.5469223022460937,0.7776329040527343
0.5469223022460937,0.7776329040527343
0.5373807907104492,0.7589286804199219
0.5373807907104492,0.7589286804199219
0.5550762176513672,0.7772787094116210
0.5550762176513672,0.7772787094116210
0.5352979660034179,0.7741498947143555
0.5352979660034179,0.7741498947143555
0.5499784469604492,0.7701421737670898
0.5499784469604492,0.7701421737670898
0.5502347946166992,0.7856002807617187
0.5502347946166992,0.7856002807617187
0.5409530639648438,0.7661281585693359
0.5409530639648438,0.7661281585693359
0.5579492568969726,0.7840948104858398
0.5579492568969726,0.7840948104858398
0.5378757476806640,0.7804235458374024
0.5378757476806640,0.7804235458374024
0.5518518447875976,0.7753858566284180
0.5518518447875976,0.7753858566284180
0.5526975631713867,0.7902912139892578
0.5526975631713867,0.7902912139892578
0.5429311752319336,0.7709724426269531
0.5429311752319336,0.7709724426269531
0.5599960327148438,0.7883657455444336
0.5599960327148438,0.7883657455444336
0.5393583297729492,0.7842304229736328
0.5393583297729492,0.7842304229736328
0.5539381027221679,0.7792636871337890
0.5539381027221679,0.7792636871337890
0.5546596527099609,0.7947383880615234
0.5546596527099609,0.7947383880615234
0.5447095870971680,0.7753629684448242
0.5447095870971680,0.7753629684448242
0.5612445831298828,0.7923225402832031
0.5612445831298828,0.7923225402832031
0.5414972305297852,0.7885002136230469
0.5414972305297852,0.7885002136230469
0.5556964874267578,0.7834516525268554
0.5556964874267578,0.7834516525268554
0.5565479278564452,0.7988090515136719
0.5565479278564452,0.7988090515136719
0.5459386825561523,0.7791669845581054
0.5459386825561523,0.7791669845581054
0.5632822036743164,0.7958324432373046
0.5632822036743164,0.7958324432373046
0.5431526184082031,0.7923894882202148
0.5431526184082031,0.7923894882202148
0.5572265625000000,0.7872156143188477
0.5572265625000000,0.7872156143188477
0.5575956344604492,0.8021392822265625
0.5575956344604492,0.8021392822265625
0.5475688934326172,0.7822488784790039
0.5475688934326172,0.7822488784790039
0.5648220062255859,0.7992582321166992
0.5648220062255859,0.7992582321166992
0.5445951461791992,0.7956956863403321
0.5445951461791992,0.7956956863403321
0.5580911636352539,0.7899507522583008
0.5580911636352539,0.7899507522583008
0.5593969345092773,0.8046781539916992
0.5593969345092773,0.8046781539916992
0.5488323211669922,0.7851877212524414
0.5488323211669922,0.7851877212524414
0.5658971786499023,0.8016082763671875
0.5658971786499023,0.8016082763671875
0.5447336196899414,0.7969528198242187
0.5656105041503906,0.7969528198242187
0.5584756851196289,0.7894180297851562
0.5584756851196289,0.7894180297851562
0.5584642410278320,0.8019567489624023
0.5584642410278320,0.8019567489624023
0.5460805892944336,0.7780477523803710
0.5460805892944336,0.7780477523803710
0.5607238769531250,0.7892240524291992
0.5607238769531250,0.7892240524291992
0.5381784439086914,0.7790073394775391
0.5381784439086914,0.7790073394775391
0.5490846633911133,0.7663003921508789
0.5490846633911133,0.7663003921508789
0.5478332519531249,0.7769800186157226
0.5478332519531249,0.7769800186157226
0.5354330062866210,0.7545450210571288
0.5354330062866210,0.7545450210571288
0.5522724151611328,0.7687265396118164
0.5522724151611328,0.7687265396118164
0.5315174102783203,0.7644498825073242
0.5315174102783203,0.7644498825073242
0.5447444915771484,0.7578083038330078
0.5447444915771484,0.7578083038330078
0.5455392837524414,0.7725465774536132
0.5455392837524414,0.7725465774536132
0.5348751068115234,0.7525995254516601
0.5348751068115234,0.7525995254516601
0.5521568298339844,0.7690990447998046
0.5521568298339844,0.7690990447998046
0.5322778701782226,0.7667324066162109
0.5322778701782226,0.7667324066162109
0.5456863403320312,0.7611185073852539
0.5456863403320312,0.7611185073852539
0.5481410980224609,0.7775281906127930
0.5481410980224609,0.7775281906127930
0.5375289916992188,0.7596267700195313
0.5375289916992188,0.7596267700195313
0.5554853439331054,0.7771877288818360
0.5554853439331054,0.7771877288818360
0.5355703353881835,0.7757234573364258
0.5355703353881835,0.7757234573364258
0.5499269485473632,0.7702909469604492
0.5499269485473632,0.7702909469604492
0.5520841598510742,0.7871223449707031
0.5520841598510742,0.7871223449707031
0.5412603378295898,0.7688272476196288
0.5412603378295898,0.7688272476196288
0.5584648132324218,0.7850910186767578
0.5584648132324218,0.7850910186767578
0.5392627716064453,0.7827541351318359
0.5392627716064453,0.7827541351318359
0.5528102874755859,0.7770595550537109
0.5528102874755859,0.7770595550537109
0.5547214508056640,0.7930418014526367
0.5547214508056640,0.7930418014526367
0.5429494857788085,0.7738483428955077
0.5429494857788085,0.7738483428955077
0.5610082626342773,0.7894197463989258
0.5610082626342773,0.7894197463989258
0.5412076950073242,0.7872762680053711
0.5412076950073242,0.7872762680053711
0.5544954299926758,0.7809333801269531
0.5544954299926758,0.7809333801269531
0.5559562683105469,0.7966793060302734
0.5559562683105469,0.7966793060302734
0.5448188781738281,0.7770738601684570
0.5448188781738281,0.7770738601684570
0.5626213073730468,0.7931636810302735
0.5626213073730468,0.7931636810302735
0.5427349090576171,0.7909011840820312
0.5427349090576171,0.7909011840820312
0.5554430007934570,0.7841663360595703
0.5554430007934570,0.7841663360595703
0.5579767227172852,0.7997411727905274
0.5579767227172852,0.7997411727905274
0.5464530944824219,0.7808441162109375
0.5464530944824219,0.7808441162109375
0.5640375137329101,0.7966238021850586
0.5640375137329101,0.7966238021850586
0.5438318252563477,0.7940900802612304
0.5438318252563477,0.7940900802612304
0.5571699142456055,0.7869398117065429
0.5571699142456055,0.7869398117065429
0.5592927932739258,0.8029724121093750
0.5592927932739258,0.8029724121093750
0.5477725982666015,0.7839941024780274
0.5477725982666015,0.7839941024780274
0.5648900985717773,0.7991569519042968
0.5648900985717773,0.7991569519042968
0.5455089569091797,0.7966197967529297
0.5455089569091797,0.7966197967529297
0.5583486557006836,0.7898672103881835
0.5583486557006836,0.7898672103881835
0.5606603622436523,0.8058620452880859
0.5606603622436523,0.8058620452880859
0.5484140396118163,0.7865701675415039
0.5484140396118163,0.7865701675415039
0.5665975570678711,0.8015916824340820
0.5665975570678711,0.8015916824340820
0.5467861175537109,0.7994253158569335
0.5673477172851562,0.7994253158569335
0.5594209671020508,0.7924146652221680
0.5594209671020508,0.7924146652221680
0.5611988067626953,0.8075031280517578
0.5611988067626953,0.8075031280517578
0.5492603302001953,0.7869621276855469
0.5492603302001953,0.7869621276855469
0.5661781311035156,0.8006464004516601
0.5661781311035156,0.8006464004516601
0.5452371597290039,0.7951360702514648
0.5452371597290039,0.7951360702514648
0.5558275222778321,0.7840198516845703
0.5558275222778321,0.7840198516845703
0.5563465118408203,0.7941753387451171
0.5563465118408203,0.7941753387451171
0.5419698715209961,0.7690069198608398
0.5419698715209961,0.7690069198608398
0.5569267272949219,0.7776592254638671
0.5425558090209961,0.7615276336669922
0.5347074508666992,0.7710588455200195
0.5544702529907226,0.7710588455200195
0.5465503692626953,0.7616409301757813
0.5465503692626953,0.7616409301757813
0.5482028961181641,0.7759197235107421
0.5482028961181641,0.7759197235107421
0.5359434127807617,0.7560173034667969
0.5427858352661132,0.7560173034667969
0.5527650833129882,0.7702011108398438
0.5527650833129882,0.7702011108398438
0.5334188461303710,0.7674545288085938
0.5334188461303710,0.7674545288085938
0.5457183837890625,0.7602790832519531
0.5457183837890625,0.7602790832519531
0.5484603881835938,0.7763031005859374
0.5484603881835938,0.7763031005859374
0.5359107971191406,0.7574237823486328
0.5359107971191406,0.7574237823486328
0.5542854309082031,0.7727714538574219
0.5542854309082031,0.7727714538574219
0.5352155685424804,0.7719383239746094
0.5352155685424804,0.7719383239746094
0.5478000640869141,0.7657733917236328
0.5478000640869141,0.7657733917236328
0.5505706787109375,0.7824903488159179
0.5505706787109375,0.7824903488159179
0.5390956878662109,0.7640962600708008
0.5390956878662109,0.7640962600708008
0.5572225570678710,0.7800745010375977
0.5572225570678710,0.7800745010375977
0.5382516860961913,0.7790502548217774
0.5382516860961913,0.7790502548217774
0.5502061843872070,0.7725631713867187
0.5502061843872070,0.7725631713867187
0.5541234970092773,0.7886787414550781
0.5541234970092773,0.7886787414550781
0.5420024871826171,0.7709163665771485
0.5420024871826171,0.7709163665771485
0.5595039367675781,0.7852924346923827
0.5595039367675781,0.7852924346923827
0.5407155990600586,0.7841571807861328
0.5407155990600586,0.7841571807861328
0.5522363662719726,0.7765995025634765
0.5522363662719726,0.7765995025634765
0.5554916381835937,0.7923454284667969
0.5554916381835937,0.7923454284667969
0.5434719085693359,0.7744817733764648
0.5434719085693359,0.7744817733764648
0.5603439331054687,0.7882982254028320
0.5603439331054687,0.7882982254028320
0.5425483703613281,0.7870061874389648
0.5425483703613281,0.7870061874389648
0.5534271240234375,0.7800373077392578
0.5534271240234375,0.7800373077392578
0.5570194244384765,0.7958856582641601
0.5570194244384765,0.7958856582641601
0.5443496704101562,0.7775550842285156
0.5443496704101562,0.7775550842285156
0.5622179031372070,0.7913240432739258
0.5622179031372070,0.7913240432739258
0.5440612792968750,0.7905761718750000
0.5440612792968750,0.7905761718750000
0.5548381805419922,0.7831752777099609
0.5548381805419922,0.7831752777099609
0.5579721450805664,0.7989515304565430
0.5579721450805664,0.7989515304565430
0.5460582733154297,0.7803651809692382
0.5460582733154297,0.7803651809692382
0.5637365341186523,0.7951520919799805
0.5637365341186523,0.7951520919799805
0.5450391769409180,0.7938852310180664
0.5450391769409180,0.7938852310180664
0.5560420989990235,0.7864368438720702
0.5560420989990235,0.7864368438720702
0.5597740173339844,0.8023269653320312
0.5597740173339844,0.8023269653320312
0.5474081039428711,0.7835151672363281
0.5474081039428711,0.7835151672363281
0.5654668807983398,0.7985218048095702
0.5654668807983398,0.7985218048095702
0.5460039138793945,0.7968818664550781
0.5460039138793945,0.7968818664550781
0.5576316833496093,0.7890083312988281
0.5576316833496093,0.7890083312988281
0.5609762191772460,0.8046203613281250
0.5609762191772460,0.8046203613281250
0.5477582931518554,0.7840799331665039
0.5552890777587890,0.7840799331665039
0.5641502380371094,0.7954885482788085
0.5641502380371094,0.7954885482788085
0.5440538406372070,0.7896274566650391
0.5440538406372070,0.7896274566650391
0.5527341842651367,0.7761943817138671
0.5527341842651367,0.7761943817138671
0.5533876419067383,0.7848346710205077
0.5533876419067383,0.7848346710205077
0.5374746322631836,0.7597909927368164
0.5374746322631836,0.7597909927368164
0.5543437957763672,0.7707973480224609
0.5543437957763672,0.7707973480224609
0.5344596862792969,0.7673240661621094
0.5344596862792969,0.7673240661621094
0.5445676803588867,0.7578369140625000
0.5445676803588867,0.7578369140625000
0.5472221374511719,0.7723079681396484
0.5472221374511719,0.7723079681396484
0.5344333648681641,0.7520376205444336
0.5344333648681641,0.7520376205444336
0.5521842956542968,0.7663467407226562
0.5521842956542968,0.7663467407226562
0.5334177017211914,0.7649723052978515
0.5334177017211914,0.7649723052978515
0.5438432693481445,0.7575353622436524
0.5438432693481445,0.7575353622436524
0.5481988906860351,0.7738162994384765
0.5481988906860351,0.7738162994384765
0.5357122421264648,0.7556236267089843
0.5357122421264648,0.7556236267089843
0.5541835784912109,0.7715120315551758
0.5541835784912109,0.7715120315551758
0.5354919433593750,0.7712802886962891
0.5354919433593750,0.7712802886962891
0.5470098495483399,0.7643852233886719
0.5470098495483399,0.7643852233886719
0.5514930725097656,0.7818746566772461
0.5514930725097656,0.7818746566772461
0.5390928268432617,0.7639526367187500
0.5478355407714843,0.7639526367187500
0.5571601867675781,0.7793775558471679
0.5571601867675781,0.7793775558471679
0.5392478942871094,0.7787544250488281
0.5392478942871094,0.7787544250488281
0.5501169204711914,0.7718393325805664
0.5501169204711914,0.7718393325805664
0.5543741226196289,0.7886833190917969
0.5543741226196289,0.7886833190917969
0.5411624908447266,0.7696792602539062
0.5411624908447266,0.7696792602539062
0.5597465515136718,0.7843585968017578
0.5597465515136718,0.7843585968017578
0.5414417266845702,0.7837560653686523
0.5414417266845702,0.7837560653686523
0.5517522811889648,0.7759328842163086
0.5517522811889648,0.7759328842163086
0.5554939270019531,0.7922023773193360
0.5554939270019531,0.7922023773193360
0.5429809570312499,0.7728887557983398
0.5429809570312499,0.7728887557983398
0.5612056732177734,0.7878341674804688
0.5612056732177734,0.7878341674804688
0.5429718017578125,0.7871950149536132
0.5429718017578125,0.7871950149536132
0.5526992797851562,0.7791475296020508
0.5526992797851562,0.7791475296020508
0.5574623107910156,0.7952722549438477
0.5574623107910156,0.7952722549438477
0.5446065902709961,0.7765113830566406
0.5446065902709961,0.7765113830566406
0.5627563476562499,0.7914258956909179
0.5627563476562499,0.7914258956909179
0.5440320968627930,0.7905378341674805
0.5440320968627930,0.7905378341674805
0.5544759750366210,0.7824331283569336
0.5544759750366210,0.7824331283569336
0.5590061187744141,0.7990648269653320
0.5590061187744141,0.7990648269653320
0.5459569931030274,0.7798730850219726
0.5459569931030274,0.7798730850219726
0.5636455535888671,0.7946216583251953
0.5636455535888671,0.7946216583251953
0.5459106445312499,0.7935745239257812
0.5459106445312499,0.7935745239257812
0.5557125091552734,0.7857221603393555
0.5557125091552734,0.7857221603393555
0.5602844238281249,0.8021627426147461
0.5602844238281249,0.8021627426147461
0.5467718124389648,0.7827930450439453
0.5467718124389648,0.7827930450439453
0.5653718948364258,0.7972274780273437
0.5653718948364258,0.7972274780273437
0.5472118377685546,0.7968561172485351
0.5472118377685546,0.7968561172485351
0.5570068359375000,0.7887868881225586
0.5570068359375000,0.7887868881225586
0.5612251281738281,0.8048297882080078
0.5612251281738281,0.8048297882080078
0.5482578277587891,0.7845136642456054
0.5482578277587891,0.7845136642456054
0.5658920288085937,0.7980010986328124
0.5658920288085937,0.7980010986328124
0.5466562271118164,0.7943767547607422
0.5466562271118164,0.7943767547607422
0.5541126251220703,0.7816074371337890
0.5541126251220703,0.7816074371337890
0.5567647933959960,0.7914115905761718
0.5567647933959960,0.7914115905761718
0.5401731491088867,0.7639749526977538
0.5401731491088867,0.7639749526977538
0.5554904937744141,0.7729700088500976
0.5554904937744141,0.7729700088500976
0.5355623245239257,0.7685520172119140
0.5355623245239257,0.7685520172119140
0.5438901901245117,0.7567474365234375
0.5438901901245117,0.7567474365234375
0.5477422714233399,0.7711080551147461
0.5477422714233399,0.7711080551147461
0.5337049484252929,0.7498311996459961
0.5337049484252929,0.7498311996459961
0.5509557723999023,0.7630840301513672
0.5509557723999023,0.7630840301513672
0.5329896926879882,0.7616220474243164
0.5329896926879882,0.7616220474243164
0.5419956207275390,0.7531454086303710
0.5419956207275390,0.7531454086303710
0.5469532012939453,0.7696512222290038
0.5469532012939453,0.7696512222290038
0.5332603454589844,0.7501813888549804
0.5332603454589844,0.7501813888549804
0.5519908905029297,0.7649929046630859
0.5519908905029297,0.7649929046630859
0.5344579696655273,0.7655862808227539
0.5344579696655273,0.7655862808227539
0.5440578460693359,0.7581602096557617
0.5440578460693359,0.7581602096557617
0.5491058349609375,0.7758773803710938
0.5491058349609375,0.7758773803710938
0.5366003036499023,0.7572595596313476
0.5366003036499023,0.7572595596313476
0.5553045272827148,0.7736171722412110
0.5553045272827148,0.7736171722412110
0.5382625579833984,0.7746448516845703
0.5382625579833984,0.7746448516845703
0.5472444534301758,0.7671403884887695
0.5472444534301758,0.7671403884887695
0.5532331466674805,0.7842613220214844
0.5532331466674805,0.7842613220214844
0.5401720046997071,0.7657625198364257
0.5401720046997071,0.7657625198364257
0.5586273193359375,0.7811931610107422
0.5586273193359375,0.7811931610107422
0.5407247543334961,0.7812881469726562
0.5407247543334961,0.7812881469726562
0.5502834320068359,0.7728195190429688
0.5502834320068359,0.7728195190429688
0.5555683135986328,0.7901481628417969
0.5555683135986328,0.7901481628417969
0.5423149108886719,0.7708992004394531
0.5423149108886719,0.7708992004394531
0.5600383758544921,0.7857341766357422
0.5444389343261719,0.7857341766357422
0.5432235717773437,0.7856111526489258
0.5432235717773437,0.7856111526489258
0.5520584106445312,0.7773605346679687
0.5520584106445312,0.7773605346679687
0.5576534271240234,0.7945804595947266
0.5576534271240234,0.7945804595947266
0.5438398361206055,0.7750705718994141
0.5438398361206055,0.7750705718994141
0.5624782562255859,0.7898283004760742
0.5624782562255859,0.7898283004760742
0.5452383041381835,0.7902202606201172
0.5452383041381835,0.7902202606201172
0.5537727355957031,0.7816961288452148
0.5537727355957031,0.7816961288452148
0.5588830947875977,0.7985172271728516
0.5588830947875977,0.7985172271728516
0.5458150863647461,0.7786279678344726
0.5458150863647461,0.7786279678344726
0.5640266418457031,0.7938428878784179
0.5640266418457031,0.7938428878784179
0.5468770980834960,0.7940105438232422
0.5468770980834960,0.7940105438232422
0.5548244476318359,0.7850944519042968
0.5548244476318359,0.7850944519042968
0.5608852386474609,0.8015224456787109
0.5608852386474609,0.8015224456787109
0.5473669052124023,0.7821727752685547
0.5473669052124023,0.7821727752685547
0.5653947830200196,0.7969253540039062
0.5653947830200196,0.7969253540039062
0.5478401184082031,0.7967159271240234
0.5478401184082031,0.7967159271240234
0.5562629699707031,0.7873094558715820
0.5562629699707031,0.7873094558715820
0.5620496749877929,0.8043972015380859
0.5620496749877929,0.8043972015380859
0.5483957290649414,0.7845605850219727
0.5483957290649414,0.7845605850219727
0.5659755706787110,0.7990213394165039
0.5659755706787110,0.7990213394165039
0.5490823745727539,0.7987352371215820
0.5670948028564453,0.7987352371215820
0.5570434570312500,0.7894392013549805
0.5570434570312500,0.7894392013549805
0.5624301910400390,0.8054609298706055
0.5624301910400390,0.8054609298706055
0.5478057861328125,0.7841749191284180
0.5478057861328125,0.7841749191284180
0.5501180648803711,0.7958044052124024
0.5501180648803711,0.7797969818115235
0.5634069442749023,0.7922161102294921
0.5623123168945312,0.7922161102294921
0.5524915695190430,0.7779315948486328
0.5524915695190430,0.7779315948486328
0.5553239822387696,0.7881477355957031
0.5553239822387696,0.7881477355957031
0.5389995574951172,0.7611328125000000
0.5389995574951172,0.7611328125000000
0.5547574996948242,0.7713850021362304
0.5547574996948242,0.7713850021362304
0.5367015838623047,0.7691734313964843
0.5367015838623047,0.7691734313964843
0.5430530548095703,0.7578180313110351
0.5430530548095703,0.7578180313110351
0.5490777969360351,0.7731485366821289
0.5490777969360351,0.7731485366821289
0.5348733901977539,0.7530418395996094
0.5348733901977539,0.7530418395996094
0.5526666641235352,0.7670522689819336
0.5526666641235352,0.7670522689819336
0.5355571746826172,0.7673143386840821
0.5355571746826172,0.7673143386840821
0.5433517456054687,0.7578088760375976
0.5433517456054687,0.7578088760375976
0.5495956420898437,0.7753601074218750
0.5495956420898437,0.7753601074218750
0.5361345291137695,0.7563125610351562
0.5361345291137695,0.7563125610351562
0.5537572860717773,0.7716905593872070
0.5537572860717773,0.7716905593872070
0.5382751464843750,0.7733058929443359
0.5382751464843750,0.7733058929443359
0.5462408065795898,0.7654357910156250
0.5462408065795898,0.7654357910156250
0.5531736373901367,0.7837566375732422
0.5531736373901367,0.7837566375732422
0.5394435882568359,0.7651777267456055
0.5394435882568359,0.7651777267456055
0.5578279495239258,0.7800161361694335
0.5578279495239258,0.7800161361694335
0.5419618606567382,0.7819192886352538
0.5419618606567382,0.7819192886352538
0.5493741989135742,0.7730649948120117
0.5493741989135742,0.7730649948120117
0.5555110931396484,0.7900909423828125
0.5555110931396484,0.7900909423828125
0.5421524047851562,0.7704923629760742
0.5421524047851562,0.7704923629760742
0.5599021911621094,0.7851322174072265
0.5599021911621094,0.7851322174072265
0.5440841674804687,0.7864803314208985
0.5440841674804687,0.7864803314208985
0.5505758285522461,0.7766796112060547
0.5505758285522461,0.7766796112060547
0.5574966430664062,0.7932271957397461
0.5574966430664062,0.7932271957397461
0.5437088012695312,0.7739616394042969
0.5437088012695312,0.7739616394042969
0.5612771987915038,0.7881088256835938
0.5612771987915038,0.7881088256835938
0.5445367813110351,0.7884492874145508
0.5445367813110351,0.7884492874145508
0.5521923065185547,0.7783544540405273
0.5521923065185547,0.7783544540405273
0.5583915710449219,0.7955961227416992
0.5583915710449219,0.7955961227416992
0.5445716857910156,0.7753944396972656
0.5445716857910156,0.7753944396972656
0.5616771697998046,0.7895198822021484
0.5616771697998046,0.7895198822021484
0.5457372665405273,0.7898139953613281
0.5457372665405273,0.7898139953613281
0.5527833938598633,0.7805379867553711
0.5527833938598633,0.7805379867553711
0.5592893600463867,0.7976623535156250
0.5592893600463867,0.7976623535156250
0.5448526382446289,0.7777233123779297
0.5448526382446289,0.7777233123779297
0.5629812240600586,0.7916250228881836
0.5629812240600586,0.7916250228881836
0.5469217300415039,0.7927293777465820
0.5469217300415039,0.7927293777465820
0.5537595748901367,0.7831655502319336
0.5537595748901367,0.7831655502319336
0.5600801467895508,0.8002584457397460
0.5600801467895508,0.8002584457397460
0.5465572357177734,0.7802444458007812
0.5465572357177734,0.7802444458007812
0.5642274856567383,0.7949747085571289
0.5642274856567383,0.7949747085571289
0.5482938766479492,0.7960395812988281
0.5654159545898437,0.7960395812988281
0.5547346115112305,0.7861135482788085
0.5547346115112305,0.7861135482788085
0.5614414215087891,0.8022417068481446
0.5614414215087891,0.8022417068481446
0.5470579147338867,0.7812927246093749
0.5470579147338867,0.7812927246093749
0.5636684417724609,0.7926418304443359
0.5636684417724609,0.7926418304443359
0.5456314086914062,0.7898031234741211
0.5456314086914062,0.7898031234741211
0.5507600784301757,0.7742700576782227
0.5507600784301757,0.7742700576782227
0.5546550750732422,0.7847385406494141
0.5546550750732422,0.7847385406494141
0.5376514434814453,0.7580738067626953
0.5376514434814453,0.7580738067626953
0.5530385971069336,0.7682641983032227
0.5530385971069336,0.7682641983032227
0.5363113403320312,0.7662969589233398
0.5363113403320312,0.7662969589233398
0.5418600082397461,0.7545255661010742
0.5418600082397461,0.7545255661010742
0.5479368209838867,0.7699333190917969
0.5479368209838867,0.7699333190917969
0.5329708099365235,0.7487874984741211
0.5329708099365235,0.7487874984741211
0.5504201889038086,0.7618320465087890
0.5504201889038086,0.7618320465087890
0.5346250534057617,0.7628940582275391
0.5346250534057617,0.7628940582275391
0.5409141540527344,0.7530532836914062
0.5409141540527344,0.7530532836914062
0.5476575851440429,0.7702938079833984
0.5476575851440429,0.7702938079833984
0.5343189239501953,0.7511707305908203
0.5343189239501953,0.7511707305908203
0.5521619796752929,0.7663679122924805
0.5521619796752929,0.7663679122924805
0.5371536254882813,0.7691911697387696
0.5371536254882813,0.7691911697387696
0.5435211181640625,0.7602458953857422
0.5435211181640625,0.7602458953857422
0.5514690399169921,0.7784763336181640
0.5514690399169921,0.7784763336181640
0.5379072189331054,0.7601377487182617
0.5379072189331054,0.7601377487182617
0.5555854797363281,0.7750854492187500
0.5555854797363281,0.7750854492187500
0.5400861740112305,0.7767305374145508
0.5400861740112305,0.7767305374145508
0.5465978622436524,0.7669137954711914
0.5465978622436524,0.7669137954711914
0.5539970397949219,0.7847019195556640
0.5539970397949219,0.7847019195556640
0.5400466918945312,0.7653705596923828
0.5400466918945312,0.7653705596923828
0.5569850921630859,0.7791996002197266
0.5569850921630859,0.7791996002197266
0.5419395446777343,0.7803972244262695
0.5419395446777343,0.7803972244262695
0.5480844497680664,0.7707675933837891
0.5480844497680664,0.7707675933837891
0.5553709030151367,0.7885374069213867
0.5553709030151367,0.7885374069213867
0.5409055709838867,0.7688335418701172
0.5409055709838867,0.7688335418701172
0.5590547561645508,0.7830505371093750
0.5590547561645508,0.7830505371093750
0.5438449859619140,0.7850378036499023
0.5438449859619140,0.7850378036499023
0.5505500793457031,0.7755804061889648
0.5505500793457031,0.7755804061889648
0.5574897766113281,0.7933628082275390
0.5574897766113281,0.7933628082275390
0.5438541412353516,0.7731657028198242
0.5438541412353516,0.7731657028198242
0.5614791870117187,0.7878026962280273
0.5614791870117187,0.7878026962280273
0.5458774566650391,0.7891885757446289
0.5458774566650391,0.7891885757446289
0.5518524169921875,0.7789369583129883
0.5518524169921875,0.7789369583129883
0.5593437194824219,0.7961574554443359
0.5593437194824219,0.7961574554443359
0.5451358795166016,0.7764947891235351
0.5451358795166016,0.7764947891235351
0.5627494812011719,0.7908388137817383
0.5627494812011719,0.7908388137817383
0.5469772338867187,0.7920204162597656
0.5469772338867187,0.7920204162597656
0.5535215377807617,0.7816045761108398
0.5535215377807617,0.7816045761108398
0.5606403350830078,0.7995454788208007
0.5606403350830078,0.7995454788208007
0.5465847015380859,0.7797328948974609
0.5465847015380859,0.7797328948974609
0.5636432647705077,0.7937559127807617
0.5636432647705077,0.7937559127807617
0.5487161636352539,0.7950868606567383
0.5487161636352539,0.7950868606567383
0.5548942565917968,0.7851116180419921
0.5548942565917968,0.7851116180419921
0.5621829986572265,0.8027206420898437
0.5621829986572265,0.8027206420898437
0.5567441940307617,0.7822895050048828
0.5648019790649413,0.7946651458740234
0.5648019790649413,0.7946651458740234
0.5485027313232421,0.7936048507690430
0.5485027313232421,0.7936048507690430
0.5528886795043945,0.7794593811035156
0.5528886795043945,0.7794593811035156
0.5577220916748047,0.7911947250366210
0.5577220916748047,0.7911947250366210
0.5408037185668945,0.7634805679321289
0.5408037185668945,0.7634805679321289
0.5550973892211913,0.7708431243896484
0.5550973892211913,0.7708431243896484
0.5380027770996093,0.7682687759399414
0.5380027770996093,0.7682687759399414
0.5420431137084961,0.7545753479003906
0.5420431137084961,0.7545753479003906
0.5485902786254883,0.7692443847656250
0.5485902786254883,0.7692443847656250
0.5332574844360352,0.7473255157470703
0.5332574844360352,0.7473255157470703
0.5500465393066406,0.7598499298095703
0.5500465393066406,0.7598499298095703
0.5338880538940429,0.7601297378540038
0.5338880538940429,0.7601297378540038
0.5397594451904296,0.7483892440795898
0.5397594451904296,0.7483892440795898
0.5468679428100586,0.7657945632934570
0.5468679428100586,0.7657945632934570
0.5326086044311523,0.7459768295288086
0.5326086044311523,0.7459768295288086
0.5494909286499023,0.7601657867431640
0.5494909286499023,0.7601657867431640
0.5350919723510742,0.7620615005493164
0.5350919723510742,0.7620615005493164
0.5413358688354492,0.7527711868286132
0.5413358688354492,0.7527711868286132
0.5493524551391601,0.7716413497924804
0.5493524551391601,0.7716413497924804
0.5351938247680664,0.7528987884521484
0.5351938247680664,0.7528987884521484
0.5532337188720703,0.7678865432739258
0.5532337188720703,0.7678865432739258
0.5391311645507812,0.7712722778320312
0.5391311645507812,0.7712722778320312
0.5454002380371094,0.7619447708129883
0.5454002380371094,0.7619447708129883
0.5529424667358398,0.7806249618530273
0.5529424667358398,0.7806249618530273
0.5394527435302734,0.7613290786743164
0.5394527435302734,0.7613290786743164
0.5571132659912109,0.7765491485595702
0.5571132659912109,0.7765491485595702
0.5425895690917969,0.7792654037475586
0.5425895690917969,0.7792654037475586
0.5483110427856445,0.7690212249755859
0.5483110427856445,0.7690212249755859
0.5564443588256835,0.7869409561157227
0.5564443588256835,0.7869409561157227
0.5421718597412110,0.7677062988281250
0.5421718597412110,0.7677062988281250
0.5598461151123046,0.7824462890625000
0.5598461151123046,0.7824462890625000
0.5446363449096679,0.7844175338745117
0.5446363449096679,0.7844175338745117
0.5509695053100586,0.7739353179931641
0.5509695053100586,0.7739353179931641
0.5586496353149414,0.7925193786621093
0.5586496353149414,0.7925193786621093
0.5444360733032226,0.7733928680419921
0.5444360733032226,0.7733928680419921
0.5614379882812500,0.7871744155883789
0.5614379882812500,0.7871744155883789
0.5472570419311523,0.7888801574707031
0.5472570419311523,0.7888801574707031
0.5528068542480469,0.7790084838867187
0.5528068542480469,0.7790084838867187
0.5606477737426757,0.7970472335815429
0.5606477737426757,0.7970472335815429
0.5459398269653321,0.7771373748779297
0.5459398269653321,0.7771373748779297
0.5636569976806640,0.7910900115966797
0.5636569976806640,0.7910900115966797
0.5488489151000976,0.7931997299194335
0.5488489151000976,0.7931997299194335
0.5545269012451172,0.7828428268432617
0.5545269012451172,0.7828428268432617
0.5619163513183594,0.8005605697631836
0.5619163513183594,0.8005605697631836
0.5477365493774414,0.7801500320434570
0.5477365493774414,0.7801500320434570
0.5650537490844726,0.7943670272827148
0.5650537490844726,0.7943670272827148
0.5503057479858399,0.7963005065917969
0.5503057479858399,0.7963005065917969
0.5553657531738281,0.7855991363525391
0.5553657531738281,0.7855991363525391
0.5634904861450195,0.8032447814941406
0.5634904861450195,0.8032447814941406
0.5489587783813477,0.7837051391601563
0.5608085632324219,0.7837051391601563
0.5519737243652344,0.7842172622680664
0.5519737243652344,0.7842172622680664
0.5667846679687499,0.8029060363769531
0.5667846679687499,0.8029060363769531
0.5464633941650391,0.7909744262695312
0.5464633941650391,0.7909744262695312
0.5613452911376953,0.7900777816772461
0.5613452911376953,0.7900777816772461
0.5565919876098633,0.7976440429687500
0.5627798080444336,0.7976440429687500
0.5477273941040038,0.7735725402832031
0.5477273941040038,0.7735725402832031
0.5601562500000000,0.7855756759643554
0.5601562500000000,0.7855756759643554
0.5368612289428710,0.7678773880004882
0.5368612289428710,0.7678773880004882
0.5504150390625000,0.7630325317382812
0.5504150390625000,0.7630325317382812
0.5458551406860351,0.7723331451416016
0.5458551406860351,0.7723331451416016
0.5379604339599610,0.7508354187011719
0.5379604339599610,0.7508354187011719
0.5522935867309570,0.7689336776733399
0.5522935867309570,0.7689336776733399
0.5316907882690429,0.7561180114746093
0.5316907882690429,0.7561180114746093
0.5467100143432617,0.7554611206054688
0.5467100143432617,0.7554611206054688
0.5434844970703124,0.7672027587890625
0.5434844970703124,0.7672027587890625
0.5363336563110351,0.7488103866577148
0.5363336563110351,0.7488103866577148
0.5516395568847656,0.7671695709228515
0.5516395568847656,0.7671695709228515
0.5316524505615234,0.7569448471069335
0.5316524505615234,0.7569448471069335
0.5475294113159179,0.7580509185791016
0.5475294113159179,0.7580509185791016
0.5451267242431640,0.7721191406250000
0.5451267242431640,0.7721191406250000
0.5386528015136719,0.7538984298706054
0.5386528015136719,0.7538984298706054
0.5542808532714844,0.7743181228637696
0.5542808532714844,0.7743181228637696
0.5355743408203125,0.7657150268554688
0.5355743408203125,0.7657150268554688
0.5514696121215820,0.7684370040893554
0.5514696121215820,0.7684370040893554
0.5493947982788085,0.7815565109252930
0.5493947982788085,0.7815565109252930
0.5430776596069335,0.7641712188720703
0.5430776596069335,0.7641712188720703
0.5587549209594727,0.7841451644897460
0.5587549209594727,0.7841451644897460
0.5394578933715820,0.7755878448486327
0.5394578933715820,0.7755878448486327
0.5551918029785156,0.7758899688720703
0.5551918029785156,0.7758899688720703
0.5526546478271485,0.7888875961303711
0.5526546478271485,0.7888875961303711
0.5460210800170898,0.7704723358154296
0.5460210800170898,0.7704723358154296
0.5612686157226562,0.7904657363891602
0.5612686157226562,0.7904657363891602
0.5417295455932617,0.7798124313354492
0.5417295455932617,0.7798124313354492
0.5570457458496093,0.7800178527832031
0.5570457458496093,0.7800178527832031
0.5545125961303711,0.7926578521728516
0.5545125961303711,0.7926578521728516
0.5475082397460938,0.7745218276977539
0.5475082397460938,0.7745218276977539
0.5629211425781250,0.7929925918579102
0.5629211425781250,0.7929925918579102
0.5426427841186523,0.7821367263793945
0.5426427841186523,0.7821367263793945
0.5584012985229492,0.7827489852905273
0.5584012985229492,0.7827489852905273
0.5554115295410156,0.7958707809448242
0.5554115295410156,0.7958707809448242
0.5481943130493164,0.7757257461547852
0.5481943130493164,0.7757257461547852
0.5634630203247070,0.7947864532470703
0.5634630203247070,0.7947864532470703
0.5434587478637695,0.7841966629028320
0.5434587478637695,0.7841966629028320
0.5585449218749999,0.7850149154663085
0.5585449218749999,0.7850149154663085
0.5559162139892578,0.7966192245483398
0.5559162139892578,0.7966192245483398
0.5486520767211914,0.7774126052856445
0.5486520767211914,0.7774126052856445
0.5641416549682617,0.7966753005981445
0.5641416549682617,0.7966753005981445
0.5444166183471679,0.7873208999633788
0.5444166183471679,0.7873208999633788
0.5598220825195312,0.7867767333984375
0.5598220825195312,0.7867767333984375
0.5570423126220703,0.7995660781860351
0.5570423126220703,0.7995660781860351
0.5500356674194335,0.7799406051635742
0.5500356674194335,0.7799406051635742
0.5650709152221679,0.7990110397338867
0.5650709152221679,0.7990110397338867
0.5443662643432617,0.7858640670776367
0.5642034530639648,0.7858640670776367
0.5584098815917968,0.7824274063110351
0.5584098815917968,0.7824274063110351
0.5536594390869141,0.7894632339477539
0.5536594390869141,0.7894632339477539
0.5432596206665039,0.7627161026000976
0.5429122924804687,0.7627161026000976
0.5556369781494140,0.7749240875244140
0.5425283432006835,0.7749240875244140
0.5339326858520508,0.7608575820922852
0.5339326858520508,0.7608575820922852
0.5478572845458984,0.7574089050292968
0.5478572845458984,0.7574089050292968
0.5440006256103516,0.7680599212646484
0.5440006256103516,0.7680599212646484
0.5357133865356445,0.7457719802856445
0.5357133865356445,0.7457719802856445
0.5503927230834961,0.7632762908935546
0.5378288269042969,0.7632762908935546
0.5302345275878906,0.7521045684814452
0.5302345275878906,0.7521045684814452
0.5450185775756836,0.7519615173339843
0.5450185775756836,0.7519615173339843
0.5422857284545898,0.7635841369628906
0.5487436294555664,0.7635841369628906
0.5347743988037109,0.7441612243652344
0.5347743988037109,0.7441612243652344
0.5504104614257812,0.7635028839111327
0.5504104614257812,0.7635028839111327
0.5308216094970702,0.7548151016235352
0.5308216094970702,0.7548151016235352
0.5460828781127930,0.7546726226806640
0.5460828781127930,0.7546726226806640
0.5440761566162109,0.7685188293457031
0.5440761566162109,0.7685188293457031
0.5373785018920898,0.7505121231079102
0.5373785018920898,0.7505121231079102
0.5533475875854492,0.7715520858764648
0.5533475875854492,0.7715520858764648
0.5341175079345702,0.7621639251708984
0.5341175079345702,0.7621639251708984
0.5495407104492187,0.7629919052124023
0.5495407104492187,0.7629919052124023
0.5477319717407226,0.7767740249633789
0.5477319717407226,0.7767740249633789
0.5405811309814453,0.7589624404907226
0.5405811309814453,0.7589624404907226
0.5564254760742188,0.7778697967529297
0.5564254760742188,0.7778697967529297
0.5367788314819336,0.7685468673706054
0.5367788314819336,0.7685468673706054
0.5521648406982421,0.7687477111816406
0.5521648406982421,0.7687477111816406
0.5498537063598633,0.7825006484985352
0.5498537063598633,0.7825006484985352
0.5425878524780273,0.7627990722656249
0.5425878524780273,0.7627990722656249
0.5582427978515625,0.7820657730102539
0.5582427978515625,0.7820657730102539
0.5387729644775391,0.7727445602416992
0.5387729644775391,0.7727445602416992
0.5537446975708008,0.7733991622924804
0.5537446975708008,0.7733991622924804
0.5516738891601562,0.7859928131103515
0.5516738891601562,0.7859928131103515
0.5442586898803711,0.7669944763183594
0.5442586898803711,0.7669944763183594
0.5601253509521484,0.7863698959350586
0.5601253509521484,0.7863698959350586
0.5404415130615234,0.7776941299438477
0.5404415130615234,0.7776941299438477
0.5555208206176757,0.7767471313476563
0.5555208206176757,0.7767471313476563
0.5534019470214844,0.7898889541625976
0.5534019470214844,0.7898889541625976
0.5458385467529296,0.7705690383911132
0.5458385467529296,0.7705690383911132
0.5615112304687500,0.7906070709228515
0.5615112304687500,0.7906070709228515
0.5418823242187499,0.7803943634033202
0.5418823242187499,0.7803943634033202
0.5565273284912109,0.7798965454101562
0.5565273284912109,0.7798965454101562
0.5547077178955078,0.7930841445922852
0.5547077178955078,0.7930841445922852
0.5470899581909180,0.7746316909790039
0.5470899581909180,0.7746316909790039
0.5627918243408203,0.7930538177490234
0.5627918243408203,0.7930538177490234
0.5432424545288086,0.7838441848754882
0.5432424545288086,0.7838441848754882
0.5580574035644531,0.7832662582397460
0.5580574035644531,0.7832662582397460
0.5560598373413086,0.7973567962646484
0.5560598373413086,0.7973567962646484
0.5484489440917969,0.7771133422851563
0.5484489440917969,0.7771133422851563
0.5637285232543945,0.7952865600585938
0.5637285232543945,0.7952865600585938
0.5437883377075196,0.7847019195556640
0.5437883377075196,0.7847019195556640
0.5573678970336914,0.7814117431640625
0.5573678970336914,0.7814117431640625
0.5533206939697265,0.7889116287231445
0.5533206939697265,0.7889116287231445
0.5426851272583008,0.7615516662597656
0.5426851272583008,0.7615516662597656
0.5549892425537110,0.7729402542114258
0.5549892425537110,0.7729402542114258
0.5329753875732421,0.7593824386596679
0.5329753875732421,0.7593824386596679
0.5462511062622070,0.7540403366088867
0.5462511062622070,0.7540403366088867
0.5423086166381835,0.7635280609130859
0.5423086166381835,0.7635280609130859
0.5334766387939452,0.7406232833862304
0.5334766387939452,0.7406232833862304
0.5482126235961914,0.7582448959350586
0.5482126235961914,0.7582448959350586
0.5273735046386718,0.7460243225097656
0.5273735046386718,0.7460243225097656
0.5419687271118164,0.7440330505371093
0.5419687271118164,0.7440330505371093
0.5391592025756836,0.7562707901000977
0.5391592025756836,0.7562707901000977
0.5311529159545898,0.7364158630371094
0.5311529159545898,0.7364158630371094
0.5468238830566406,0.7547647476196289
0.5468238830566406,0.7547647476196289
0.5267595291137696,0.7450664520263671
0.5267595291137696,0.7450664520263671
0.5420276641845703,0.7446939468383789
0.5420276641845703,0.7446939468383789
0.5397525787353515,0.7588611602783203
0.5397525787353515,0.7588611602783203
0.5324523925781249,0.7392648696899414
0.5324523925781249,0.7392648696899414
0.5487316131591796,0.7595518112182617
0.5487316131591796,0.7595518112182617
0.5291341781616211,0.7511398315429687
0.5291341781616211,0.7511398315429687
0.5447530746459961,0.7521080017089844
0.5447530746459961,0.7521080017089844
0.5428728103637696,0.7656515121459960
0.5494525909423827,0.7656515121459960
0.5354593276977538,0.7467098236083984
0.5354593276977538,0.7467098236083984
0.5518535614013672,0.7666717529296875
0.5518535614013672,0.7666717529296875
0.5321685791015625,0.7583032608032226
0.5321685791015625,0.7583032608032226
0.5473789215087891,0.7574632644653320
0.5473789215087891,0.7574632644653320
0.5452560424804688,0.7708511352539062
0.5452560424804688,0.7708511352539062
0.5375341415405274,0.7510242462158203
0.5375341415405274,0.7510242462158203
0.5532176971435546,0.7707515716552734
0.5532176971435546,0.7707515716552734
0.5331024169921875,0.7602636337280273
0.5331024169921875,0.7602636337280273
0.5479305267333984,0.7595163345336914
0.5479305267333984,0.7595163345336914
0.5459226608276367,0.7732509613037110
0.5459226608276367,0.7732509613037110
0.5383375167846679,0.7543888092041016
0.5383375167846679,0.7543888092041016
0.5546665191650391,0.7734764099121093
0.5546665191650391,0.7734764099121093
0.5347143173217773,0.7643548965454101
0.5347143173217773,0.7643548965454101
0.5496236801147460,0.7632991790771484
0.5496236801147460,0.7632991790771484
0.5474710464477539,0.7769771575927734
0.5474710464477539,0.7769771575927734
0.5396598815917969,0.7567073822021484
0.5396598815917969,0.7567073822021484
0.5556879043579102,0.7763734817504883
0.5556879043579102,0.7763734817504883
0.5362140655517578,0.7687643051147460
0.5362140655517578,0.7687643051147460
0.5520589828491210,0.7698165893554687
0.5520589828491210,0.7698165893554687
0.5506645202636719,0.7839941024780274
0.5506645202636719,0.7839941024780274
0.5433443069458007,0.7648653030395508
0.5433443069458007,0.7648653030395508
0.5594570159912109,0.7844490051269531
0.5594570159912109,0.7844490051269531
0.5395923614501953,0.7758487701416016
0.5395923614501953,0.7758487701416016
0.5546098709106445,0.7746482849121094
0.5546098709106445,0.7746482849121094
0.5527605056762696,0.7882501602172851
0.5527605056762696,0.7882501602172851
0.5460594177246093,0.7848478317260742
0.5619701385498047,0.7848478317260742
0.5502759933471679,0.7731422424316406
0.5502759933471679,0.7731422424316406
0.5591297149658203,0.7919506072998047
0.5591297149658203,0.7919506072998047
0.5437963485717773,0.7723743438720703
0.5437963485717773,0.7723743438720703
0.5606700897216796,0.7835157394409179
0.5439582824707031,0.7835157394409179
0.5464353561401367,0.7843929290771484
0.5464353561401367,0.7843929290771484
0.5483711242675781,0.7669578552246094
0.5483711242675781,0.7669578552246094
0.5544696807861328,0.7780059814453125
0.5544696807861328,0.7780059814453125
0.5362993240356445,0.7534069061279297
0.5362993240356445,0.7534069061279297
0.5515972137451172,0.7613702774047851
0.5515972137451172,0.7613702774047851
0.5364463806152343,0.7609920501708984
0.5364463806152343,0.7609920501708984
0.5391941070556641,0.7450630187988281
0.5391941070556641,0.7450630187988281
0.5469646453857422,0.7613473892211914
0.5469646453857422,0.7613473892211914
0.5305057525634765,0.7402341842651367
0.5305057525634765,0.7402341842651367
0.5468015670776367,0.7506494522094727
0.5468015670776367,0.7506494522094727
0.5332431793212891,0.7528198242187499
0.5332431793212891,0.7528198242187499
0.5367238998413085,0.7399698257446289
0.5367238998413085,0.7399698257446289
0.5454608917236328,0.7581350326538085
0.5454608917236328,0.7581350326538085
0.5294191360473632,0.7383716583251952
0.5294191360473632,0.7383716583251952
0.5465927124023438,0.7499851226806641
0.5465927124023438,0.7499851226806641
0.5331619262695312,0.7537931442260742
0.5331619262695312,0.7537931442260742
0.5372262954711914,0.7419210433959961
0.5372262954711914,0.7419210433959961
0.5462985992431640,0.7610967636108398
0.5462985992431640,0.7610967636108398
0.5310127258300781,0.7425910949707031
0.5310127258300781,0.7425910949707031
0.5486755371093750,0.7557872772216797
0.5486755371093750,0.7557872772216797
0.5358816146850586,0.7606784820556640
0.5358816146850586,0.7606784820556640
0.5400289535522461,0.7491565704345703
0.5400289535522461,0.7491565704345703
0.5495801925659179,0.7688106536865235
0.5495801925659179,0.7688106536865235
0.5344545364379882,0.7510608673095703
0.5344545364379882,0.7510608673095703
0.5519044876098632,0.7634153366088867
0.5519044876098632,0.7634153366088867
0.5388353347778320,0.7678133010864258
0.5388353347778320,0.7678133010864258
0.5430244445800781,0.7558055877685547
0.5430244445800781,0.7558055877685547
0.5523307800292968,0.7751352310180664
0.5523307800292968,0.7751352310180664
0.5369287490844726,0.7567279815673827
0.5369287490844726,0.7567279815673827
0.5539775848388672,0.7685537338256836
0.5539775848388672,0.7685537338256836
0.5411464691162109,0.7722816467285156
0.5411464691162109,0.7722816467285156
0.5448154449462891,0.7598619461059570
0.5448154449462891,0.7598619461059570
0.5539661407470703,0.7786760330200195
0.5539661407470703,0.7786760330200195
0.5377738952636718,0.7593154907226562
0.5377738952636718,0.7593154907226562
0.5550310134887695,0.7704225540161133
0.5550310134887695,0.7704225540161133
0.5419109344482421,0.7742614746093750
0.5419109344482421,0.7742614746093750
0.5453493118286132,0.7613679885864257
0.5453493118286132,0.7613679885864257
0.5541984558105468,0.7800876617431640
0.5541984558105468,0.7800876617431640
0.5390544891357422,0.7621307373046875
0.5390544891357422,0.7621307373046875
0.5572637557983399,0.7759111404418945
0.5572637557983399,0.7759111404418945
0.5453435897827148,0.7823181152343750
0.5453435897827148,0.7823181152343750
0.5495784759521484,0.7714691162109375
0.5495784759521484,0.7714691162109375
0.5595737457275390,0.7914865493774413
0.5595737457275390,0.7914865493774413
0.5443393707275390,0.7741704940795898
0.5443393707275390,0.7741704940795898
0.5618402481079101,0.7863824844360351
0.5618402481079101,0.7863824844360351
0.5491149902343749,0.7910093307495117
0.5491149902343749,0.7910093307495117
0.5531244277954102,0.7784832000732421
0.5531244277954102,0.7784832000732421
0.5622991561889649,0.7974912643432617
0.5622991561889649,0.7974912643432617
0.5464490890502930,0.7787590026855469
0.5464490890502930,0.7787590026855469
0.5635391235351562,0.7904039382934570
0.5474035263061523,0.7904039382934570
0.5508951187133789,0.7944374084472656
0.5508951187133789,0.7944374084472656
0.5544857025146485,0.7820903778076171
0.5544857025146485,0.7820903778076171
0.5633766174316406,0.7999895095825195
0.5633766174316406,0.7999895095825195
0.5464891433715821,0.7790319442749023
0.5464891433715821,0.7790319442749023
0.5617801666259765,0.7850950241088867
0.5617801666259765,0.7850950241088867
0.5465120315551758,0.7825160980224609
0.5465120315551758,0.7825160980224609
0.5459615707397460,0.7605348587036133
0.5459615707397460,0.7605348587036133
0.5517465591430664,0.7724098205566406
0.5517465591430664,0.7724098205566406
0.5339292526245117,0.7487062454223633
0.5339292526245117,0.7487062454223633
0.5492345809936523,0.7553695678710938
0.5492345809936523,0.7553695678710938
0.5348773956298828,0.7560430526733398
0.5348773956298828,0.7560430526733398
0.5368417739868164,0.7404298782348633
0.5368417739868164,0.7404298782348633
0.5455438613891601,0.7567932128906250
0.5455438613891601,0.7567932128906250
0.5289939880371094,0.7374601364135742
0.5289939880371094,0.7374601364135742
0.5458969116210938,0.7478364944458008
0.5458969116210938,0.7478364944458008
0.5328163146972656,0.7515209197998046
0.5328163146972656,0.7515209197998046
0.5363559722900391,0.7387956619262696
0.5363559722900391,0.7387956619262696
0.5457984924316406,0.7581562042236328
0.5457984924316406,0.7581562042236328
0.5301372528076171,0.7405254364013671
0.5301372528076171,0.7405254364013671
0.5475191116333008,0.7520771026611328
0.5475191116333008,0.7520771026611328
0.5354587554931640,0.7573219299316406
0.5354587554931640,0.7573219299316406
0.5391832351684570,0.7460277557373046
0.5391832351684570,0.7460277557373046
0.5488489151000976,0.7655719757080078
0.5488489151000976,0.7655719757080078
0.5331144332885742,0.7483251571655273
0.5331144332885742,0.7483251571655273
0.5507320404052735,0.7594236373901367
0.5507320404052735,0.7594236373901367
0.5386104583740234,0.7651622772216796
0.5386104583740234,0.7651622772216796
0.5420431137084961,0.7533147811889648
0.5420431137084961,0.7533147811889648
0.5513214111328125,0.7719806671142578
0.5513214111328125,0.7719806671142578
0.5358158111572265,0.7538171768188476
0.5358158111572265,0.7538171768188476
0.5530466079711914,0.7647840499877929
0.5530466079711914,0.7647840499877929
0.5404317855834960,0.7692192077636718
0.5404317855834960,0.7692192077636718
0.5432498931884765,0.7561603546142578
0.5432498931884765,0.7561603546142578
0.5525865554809570,0.7739215850830078
0.5525865554809570,0.7739215850830078
0.5363840103149414,0.7556241989135742
0.5363840103149414,0.7556241989135742
0.5532617568969727,0.7657155990600586
0.5532617568969727,0.7657155990600586
0.5404775619506835,0.7700448989868164
0.5404775619506835,0.7700448989868164
0.5437248229980468,0.7572441101074219
0.5437248229980468,0.7572441101074219
0.5533269882202149,0.7763099670410156
0.5533269882202149,0.7763099670410156
0.5376377105712891,0.7591169357299804
0.5376377105712891,0.7591169357299804
0.5547317504882813,0.7699911117553710
0.5547317504882813,0.7699911117553710
0.5430078506469727,0.7754791259765624
0.5430078506469727,0.7754791259765624
0.5464181900024414,0.7638742446899414
0.5464181900024414,0.7638742446899414
0.5561525344848632,0.7833017349243164
0.5561525344848632,0.7833017349243164
0.5401805877685547,0.7657327651977539
0.5401805877685547,0.7657327651977539
0.5578834533691406,0.7762950897216797
0.5578834533691406,0.7762950897216797
0.5454563140869141,0.7819112777709961
0.5454563140869141,0.7819112777709961
0.5486846923828125,0.7695287704467774
0.5486846923828125,0.7695287704467774
0.5579189300537110,0.7882146835327148
0.5579189300537110,0.7882146835327148
0.5420305252075195,0.7701862335205077
0.5420305252075195,0.7701862335205077
0.5594083786010742,0.7806575775146484
0.5594083786010742,0.7806575775146484
0.5468444824218750,0.7855894088745117
0.5468444824218750,0.7855894088745117
0.5494703292846680,0.7722661972045898
0.5494703292846680,0.7722661972045898
0.5588413238525390,0.7891525268554688
0.5533178329467773,0.7891525268554688
0.5413209915161132,0.7682355880737305
0.5413209915161132,0.7682355880737305
0.5567516326904297,0.7727674484252930
0.5567516326904297,0.7727674484252930
0.5400981903076172,0.7690761566162109
0.5400981903076172,0.7690761566162109
0.5407665252685546,0.7499719619750976
0.5407665252685546,0.7499719619750976
0.5476856231689453,0.7631938934326171
0.5476856231689453,0.7631938934326171
0.5290082931518555,0.7400579452514648
0.5290082931518555,0.7400579452514648
0.5448938369750976,0.7469381332397461
0.5448938369750976,0.7469381332397461
0.5309915542602539,0.7486730575561523
0.5309915542602539,0.7486730575561523
0.5332866668701172,0.7339473724365234
0.5332866668701172,0.7339473724365234
0.5419961929321289,0.7513978958129882
0.5419961929321289,0.7513978958129882
0.5249713897705078,0.7320756912231445
0.5249713897705078,0.7320756912231445
0.5426376342773437,0.7418163299560546
0.5426376342773437,0.7418163299560546
0.5295982360839844,0.7467166900634765
0.5295982360839844,0.7467166900634765
0.5327997207641602,0.7338306427001953
0.5327997207641602,0.7338306427001953
0.5420831680297852,0.7527202606201172
0.5420831680297852,0.7527202606201172
0.5259098052978516,0.7345184326171875
0.5259098052978516,0.7345184326171875
0.5438890457153320,0.7455694198608398
0.5438890457153320,0.7455694198608398
0.5311815261840820,0.7514430999755859
0.5311815261840820,0.7514430999755859
0.5342943191528320,0.7390462875366210
0.5342943191528320,0.7390462875366210
0.5443044662475586,0.7583696365356445
0.5443044662475586,0.7583696365356445
0.5282695770263671,0.7412818908691406
0.5282695770263671,0.7412818908691406
0.5463117599487305,0.7522613525390625
0.5463117599487305,0.7522613525390625
0.5333765029907226,0.7575696945190430
0.5333765029907226,0.7575696945190430
0.5368984222412109,0.7449005126953124
0.5368984222412109,0.7449005126953124
0.5466917037963867,0.7642610549926757
0.5466917037963867,0.7642610549926757
0.5302230834960937,0.7466806411743164
0.5302230834960937,0.7466806411743164
0.5479516983032227,0.7571645736694336
0.5479516983032227,0.7571645736694336
0.5356018066406250,0.7622554779052734
0.5356018066406250,0.7622554779052734
0.5386562347412109,0.7496618270874024
0.5386562347412109,0.7496618270874024
0.5482824325561523,0.7685983657836913
0.5482824325561523,0.7685983657836913
0.5315174102783203,0.7509006500244141
0.5315174102783203,0.7509006500244141
0.5494989395141602,0.7604198455810547
0.5494989395141602,0.7604198455810547
0.5370368957519531,0.7662660598754882
0.5370368957519531,0.7662660598754882
0.5398555755615234,0.7534543991088867
0.5398555755615234,0.7534543991088867
0.5495590209960938,0.7722072601318359
0.5495590209960938,0.7722072601318359
0.5331607818603515,0.7545804977416992
0.5331607818603515,0.7545804977416992
0.5510049819946289,0.7645809173583984
0.5510049819946289,0.7645809173583984
0.5386253356933594,0.7704540252685547
0.5386253356933594,0.7704540252685547
0.5413118362426758,0.7574913024902343
0.5413118362426758,0.7574913024902343
0.5515142440795898,0.7762424468994140
0.5515142440795898,0.7762424468994140
0.5350999832153320,0.7592931747436523
0.5350999832153320,0.7592931747436523
0.5385801315307617,0.7572326660156250
0.5385801315307617,0.7572326660156250
0.5417993545532226,0.7761743545532226
0.5417993545532226,0.7761743545532226
0.5351142883300781,0.7703098297119141
0.5351142883300781,0.7703098297119141
0.5498537063598633,0.7679346084594726
0.5498537063598633,0.7679346084594726
0.5494251251220703,0.7825452804565429
0.5494251251220703,0.7825452804565429
0.5409107208251953,0.7628305435180663
0.5409107208251953,0.7628305435180663
0.5575870513916016,0.7817813873291015
0.5575870513916016,0.7817813873291015
0.5377000808715821,0.7766160964965820
0.5377000808715821,0.7766160964965820
0.5523450851440429,0.7728755950927734
0.5523450851440429,0.7728755950927734
0.5516996383666992,0.7872488021850585
0.5516996383666992,0.7872488021850585
0.5426256179809570,0.7659336090087890
0.5426256179809570,0.7659336090087890
0.5580974578857422,0.7823570251464843
0.5580974578857422,0.7823570251464843
0.5363376617431640,0.7713048934936523
0.5363376617431640,0.7713048934936523
0.5479545593261719,0.7612855911254882
0.5479545593261719,0.7612855911254882
0.5449178695678710,0.7704471588134766
0.5449178695678710,0.7704471588134766
0.5337678909301757,0.7456781387329101
0.5337678909301757,0.7456781387329101
0.5481582641601562,0.7589469909667969
0.5481582641601562,0.7589469909667969
0.5262817382812500,0.7491531372070312
0.5262817382812500,0.7491531372070312
0.5394865036010742,0.7428657531738281
0.5394865036010742,0.7428657531738281
0.5380577087402344,0.7558479309082031
0.5380577087402344,0.7558479309082031
0.5284080505371094,0.7337871551513672
0.5284080505371094,0.7337871551513672
0.5444887161254882,0.7510797500610351
0.5444887161254882,0.7510797500610351
0.5240598678588867,0.7444856643676757
0.5240598678588867,0.7444856643676757
0.5380319595336914,0.7408189773559570
0.5380319595336914,0.7408189773559570
0.5376319885253906,0.7545221328735351
0.5376319885253906,0.7545221328735351
0.5284589767456055,0.7341670989990234
0.5284589767456055,0.7341670989990234
0.5449985504150391,0.7524559020996093
0.5449985504150391,0.7524559020996093
0.5248701095581054,0.7473546981811523
0.5248701095581054,0.7473546981811523
0.5393217086791992,0.7436370849609375
0.5393217086791992,0.7436370849609375
0.5393566131591797,0.7588829040527344
0.5393566131591797,0.7588829040527344
0.5305801391601562,0.7393529891967773
0.5305801391601562,0.7393529891967773
0.5475500106811523,0.7589630126953125
0.5475500106811523,0.7589630126953125
0.5277603149414062,0.7537525177001952
0.5277603149414062,0.7537525177001952
0.5423778533935547,0.7505184173583984
0.5423778533935547,0.7505184173583984
0.5424482345581054,0.7656978607177735
0.5424482345581054,0.7656978607177735
0.5335401535034180,0.7460111618041992
0.5335401535034180,0.7460111618041992
0.5499504089355468,0.7638479232788086
0.5499504089355468,0.7638479232788086
0.5298591613769531,0.7583719253540039
0.5298591613769531,0.7583719253540039
0.5439989089965820,0.7540088653564453
0.5439989089965820,0.7540088653564453
0.5437574386596680,0.7688621520996094
0.5485244750976562,0.7688621520996094
0.5345174789428710,0.7480316162109375
0.5345174789428710,0.7480316162109375
0.5509998321533203,0.7661579132080077
0.5509998321533203,0.7661579132080077
0.5307678222656250,0.7604667663574218
0.5307678222656250,0.7604667663574218
0.5449453353881836,0.7566942214965821
0.5449453353881836,0.7566942214965821
0.5447038650512696,0.7705575942993164
0.5493667602539062,0.7705575942993164
0.5353454589843750,0.7498649597167969
0.5353454589843750,0.7498649597167969
0.5517093658447265,0.7672302246093750
0.5517093658447265,0.7672302246093750
0.5311969757080078,0.7617244720458984
0.5311969757080078,0.7617244720458984
0.5450986862182617,0.7564670562744140
0.5450986862182617,0.7564670562744140
0.5446146011352538,0.7703739166259765
0.5446146011352538,0.7703739166259765
0.5351222991943360,0.7495445251464844
0.5351222991943360,0.7495445251464844
0.5514490127563476,0.7673086166381836
0.5514490127563476,0.7673086166381836
0.5310110092163086,0.7611494064331055
0.5310110092163086,0.7611494064331055
0.5450037002563476,0.7565608978271484
0.5450037002563476,0.7565608978271484
0.5449115753173828,0.7710811614990234
0.5449115753173828,0.7710811614990234
0.5354524612426758,0.7509767532348632
0.5354524612426758,0.7509767532348632
0.5521018981933593,0.7685611724853515
0.5521018981933593,0.7685611724853515
0.5319465637207031,0.7635669708251953
0.5319465637207031,0.7635669708251953
0.5461818695068359,0.7592811584472656
0.5461818695068359,0.7592811584472656
0.5463598251342773,0.7746826171875000
0.5463598251342773,0.7746826171875000
0.5368492126464843,0.7535671234130860
0.5412912368774414,0.7535671234130860
0.5531244277954102,0.7703567504882812
0.5531244277954102,0.7703567504882812
0.5317977905273438,0.7626714706420898
0.5317977905273438,0.7626714706420898
0.5444681167602539,0.7549861907958985
0.5444681167602539,0.7549861907958985
0.5429420471191406,0.7653865814208984
0.5429420471191406,0.7653865814208984
0.5314676284790039,0.7402788162231445
0.5314676284790039,0.7402788162231445
0.5460273742675781,0.7534641265869141
0.5460273742675781,0.7534641265869141
0.5240713119506836,0.7450435638427734
0.5240713119506836,0.7450435638427734
0.5369361877441406,0.7373439788818359
0.5369361877441406,0.7373439788818359
0.5360166549682617,0.7499376296997070
0.5360166549682617,0.7499376296997070
0.5256385803222656,0.7279237747192383
0.5256385803222656,0.7279237747192383
0.5418479919433593,0.7448873519897461
0.5418479919433593,0.7448873519897461
0.5212429046630859,0.7386302947998047
0.5212429046630859,0.7386302947998047
0.5349620819091797,0.7332487106323242
0.5349620819091797,0.7332487106323242
0.5348882675170898,0.7475091934204101
0.5348882675170898,0.7475091934204101
0.5251659393310547,0.7271621704101562
0.5251659393310547,0.7271621704101562
0.5415887832641602,0.7441572189331055
0.5415887832641602,0.7441572189331055
0.5214712142944335,0.7391887664794922
0.5214712142944335,0.7391887664794922
0.5355806350708008,0.7345916748046875
0.5355806350708008,0.7345916748046875
0.5357391357421875,0.7499616622924804
0.5357391357421875,0.7499616622924804
0.5263492584228515,0.7296724319458008
0.5263492584228515,0.7296724319458008
0.5432247161865235,0.7478204727172851
0.5432247161865235,0.7478204727172851
0.5233406066894531,0.7436634063720703
0.5233406066894531,0.7436634063720703
0.5376714706420899,0.7398530960083007
0.5376714706420899,0.7398530960083007
0.5380313873291015,0.7547836303710938
0.5380313873291015,0.7547836303710938
0.5287124633789062,0.7347358703613281
0.5287124633789062,0.7347358703613281
0.5456153869628906,0.7529903411865234
0.5456153869628906,0.7529903411865234
0.5255996704101562,0.7489465713500977
0.5255996704101562,0.7489465713500977
0.5399425506591796,0.7440502166748046
0.5399425506591796,0.7440502166748046
0.5401319503784180,0.7590946197509766
0.5401319503784180,0.7590946197509766
0.5306579589843750,0.7388076782226562
0.5306579589843750,0.7388076782226562
0.5475105285644531,0.7571588516235351
0.5475105285644531,0.7571588516235351
0.5270925521850586,0.7520685195922852
0.5270925521850586,0.7520685195922852
0.5415103912353515,0.7473604202270507
0.5415103912353515,0.7473604202270507
0.5416248321533202,0.7623933792114258
0.5416248321533202,0.7623933792114258
0.5318847656250000,0.7421716690063477
0.5318847656250000,0.7421716690063477
0.5486801147460937,0.7598619461059570
0.5486801147460937,0.7598619461059570
0.5280944824218750,0.7550622940063476
0.5280944824218750,0.7550622940063476
0.5424356460571289,0.7506059646606446
0.5424356460571289,0.7506059646606446
0.5426387786865234,0.7661453247070312
0.5426387786865234,0.7661453247070312
0.5331201553344727,0.7456523895263671
0.5331201553344727,0.7456523895263671
0.5498416900634765,0.7634719848632813
0.5498416900634765,0.7634719848632813
0.5294466018676758,0.7591941833496093
0.5294466018676758,0.7591941833496093
0.5437002182006836,0.7548294067382812
0.5437002182006836,0.7548294067382812
0.5440429687500000,0.7694726943969726
0.5440429687500000,0.7694726943969726
0.5341844558715820,0.7491548538208007
0.5341844558715820,0.7491548538208007
0.5508213043212891,0.7665750503540039
0.5508213043212891,0.7665750503540039
0.5304880142211914,0.7624019622802735
0.5304880142211914,0.7624019622802735
0.5445510864257812,0.7569631576538086
0.5445510864257812,0.7569631576538086
0.5448795318603515,0.7719274520874023
0.5448795318603515,0.7719274520874023
0.5349580764770507,0.7514276504516602
0.5398653030395507,0.7514276504516602
0.5518243789672851,0.7693920135498047
0.5518243789672851,0.7693920135498047
0.5313749313354492,0.7646203994750976
0.5313749313354492,0.7646203994750976
0.5455667495727539,0.7597434997558593
0.5455667495727539,0.7597434997558593
0.5458889007568359,0.7746007919311523
0.5458889007568359,0.7746007919311523
0.5356801986694336,0.7535923004150390
0.5356801986694336,0.7535923004150390
0.5515972137451172,0.7685096740722656
0.5515972137451172,0.7685096740722656
0.5294528961181640,0.7600685119628906
0.5294528961181640,0.7600685119628906
0.5418674468994140,0.7507684707641601
0.5418674468994140,0.7507684707641601
0.5397102355957031,0.7609720230102539
0.5397102355957031,0.7609720230102539
0.5277952194213867,0.7352725982666015
0.5277952194213867,0.7352725982666015
0.5428001403808593,0.7492383956909180
0.5428001403808593,0.7492383956909180
0.5206340789794922,0.7415016174316406
0.5206340789794922,0.7415016174316406
0.5335996627807617,0.7343227386474609
0.5335996627807617,0.7343227386474609
0.5326372146606445,0.7465805053710938
0.5326372146606445,0.7465805053710938
0.5216766357421875,0.7239635467529296
0.5216766357421875,0.7239635467529296
0.5375741958618164,0.7399469375610351
0.5375741958618164,0.7399469375610351
0.5160415649414062,0.7342758178710938
0.5160415649414062,0.7342758178710938
0.5296623229980468,0.7277807235717774
0.5296623229980468,0.7277807235717774
0.5296365737915039,0.7419290542602539
0.5296365737915039,0.7419290542602539
0.5196676254272461,0.7210510253906249
0.5196676254272461,0.7210510253906249
0.5361516952514648,0.7386577606201171
0.5361516952514648,0.7386577606201171
0.5151552200317383,0.7338895797729492
0.5151552200317383,0.7338895797729492
0.5293607711791992,0.7292009353637695
0.5293607711791992,0.7292009353637695
0.5302968978881836,0.7446441650390625
0.5302968978881836,0.7446441650390625
0.5207708358764648,0.7258941650390625
0.5207708358764648,0.7258941650390625
0.5376457214355469,0.7431787490844727
0.5376457214355469,0.7431787490844727
0.5184648513793945,0.7408721923828124
0.5184648513793945,0.7408721923828124
0.5321840286254883,0.7361898422241211
0.5321840286254883,0.7361898422241211
0.5339063644409180,0.7519151687622070
0.5339063644409180,0.7519151687622070
0.5239734649658203,0.7322353363037110
0.5239734649658203,0.7322353363037110
0.5404026031494140,0.7487091064453125
0.5404026031494140,0.7487091064453125
0.5208475112915039,0.7454046249389649
0.5208475112915039,0.7454046249389649
0.5342302322387695,0.7403068542480469
0.5342302322387695,0.7403068542480469
0.5352035522460937,0.7547178268432617
0.5352035522460937,0.7547178268432617
0.5256345748901367,0.7350614547729492
0.5256345748901367,0.7350614547729492
0.5421077728271484,0.7517887115478515
0.5421077728271484,0.7517887115478515
0.5219913482666015,0.7478485107421875
0.5219913482666015,0.7478485107421875
0.5360618591308594,0.7426300048828125
0.5360618591308594,0.7426300048828125
0.5365430831909179,0.7574209213256836
0.5365430831909179,0.7574209213256836
0.5264190673828125,0.7373857498168945
0.5312124252319336,0.7577499389648438
0.5431566238403320,0.7549552917480469
0.5295701980590820,0.7549552917480469
0.5227025985717774,0.7503696441650390
0.5227025985717774,0.7503696441650390
0.5369127273559570,0.7458126068115234
0.5369127273559570,0.7458126068115234
0.5372045516967773,0.7607002258300781
0.5372045516967773,0.7607002258300781
0.5277076721191406,0.7411010742187499
0.5277076721191406,0.7411010742187499
0.5443273544311523,0.7581338882446289
0.5443273544311523,0.7581338882446289
0.5247133255004882,0.7543842315673828
0.5247133255004882,0.7543842315673828
0.5387546539306640,0.7498626708984375
0.5387546539306640,0.7498626708984375
0.5397090911865234,0.7651393890380859
0.5397090911865234,0.7651393890380859
0.5301630020141601,0.7453290939331054
0.5301630020141601,0.7453290939331054
0.5466081619262695,0.7620975494384765
0.5466081619262695,0.7620975494384765
0.5270805358886719,0.7584646224975585
0.5270805358886719,0.7584646224975585
0.5401216506958008,0.7532655715942382
0.5409839630126952,0.7675346374511719
0.5409839630126952,0.7675346374511719
0.5314252853393554,0.7489860534667968
0.5314252853393554,0.7489860534667968
0.5475345611572265,0.7652870178222656
0.5475345611572265,0.7652870178222656
0.5290729522705078,0.7627527236938476
0.5290729522705078,0.7627527236938476
0.5422290802001953,0.7578443527221680
0.5422290802001953,0.7578443527221680
0.5430976867675781,0.7725500106811524
0.5430976867675781,0.7725500106811524
0.5334280014038085,0.7535997390747070
0.5334280014038085,0.7535997390747070
0.5493741989135742,0.7696420669555664
0.5493741989135742,0.7696420669555664
0.5304313659667969,0.7655971527099609
0.5304313659667969,0.7655971527099609
0.5420585632324219,0.7588479995727538
0.5420585632324219,0.7588479995727538
0.5424070358276367,0.7700883865356445
0.5424070358276367,0.7700883865356445
0.5308261871337890,0.7478404998779297
0.5308261871337890,0.7478404998779297
0.5442077636718750,0.7573539733886718
0.5442077636718750,0.7573539733886718
0.5240690231323242,0.7501070022583007
0.5240690231323242,0.7501070022583007
0.5337924957275391,0.7399629592895508
0.5337924957275391,0.7399629592895508
0.5337781906127930,0.7504085540771485
0.5337781906127930,0.7504085540771485
0.5225589752197265,0.7293645858764648
0.5225589752197265,0.7293645858764648
0.5374128341674804,0.7424543380737304
0.5374128341674804,0.7424543380737304
0.5187337875366210,0.7390102386474610
0.5187337875366210,0.7390102386474610
0.5303049087524414,0.7328189849853516
0.5303049087524414,0.7328189849853516
0.5322916030883789,0.7463459014892578
0.5322916030883789,0.7463459014892578
0.5225955963134765,0.7288112640380859
0.5225955963134765,0.7288112640380859
0.5385080337524414,0.7440359115600585
0.5385080337524414,0.7440359115600585
0.5206449508666992,0.7423862457275391
0.5206449508666992,0.7423862457275391
0.5330606460571289,0.7365858078002929
0.5330606460571289,0.7365858078002929
0.5353300094604492,0.7518716812133789
0.5353300094604492,0.7518716812133789
0.5256694793701172,0.7347501754760742
0.5256694793701172,0.7347501754760742
0.5421358108520508,0.7512359619140625
0.5421358108520508,0.7512359619140625
0.5245250701904297,0.7504440307617187
0.5245250701904297,0.7504440307617187
0.5376176834106445,0.7467681884765625
0.5376176834106445,0.7467681884765625
0.5406652450561523,0.7637557983398438
0.5406652450561523,0.7637557983398438
0.5318784713745117,0.7482976913452148
0.5318784713745117,0.7482976913452148
0.5492174148559570,0.7653430938720703
0.5492174148559570,0.7653430938720703
0.5316661834716797,0.7646123886108398
0.5316661834716797,0.7646123886108398
0.5445367813110351,0.7594900131225586
0.5445367813110351,0.7594900131225586
0.5465732574462890,0.7744245529174805
0.5465732574462890,0.7744245529174805
0.5362827301025390,0.7559635162353515
0.5362827301025390,0.7559635162353515
0.5522232055664062,0.7706193923950195
0.5522232055664062,0.7706193923950195
0.5336437225341797,0.7681068420410156
0.5336437225341797,0.7681068420410156
0.5455821990966797,0.7623258590698242
0.5455821990966797,0.7623258590698242
0.5474704742431641,0.7767242431640625
0.5474704742431641,0.7767242431640625
0.5372457504272461,0.7588485717773438
0.5372457504272461,0.7588485717773438
0.5535535812377930,0.7741590499877929
0.5535535812377930,0.7741590499877929
0.5351188659667968,0.7722805023193359
0.5351188659667968,0.7722805023193359
0.5474538803100586,0.7659696578979492
0.5474538803100586,0.7659696578979492
0.5490961074829102,0.7805145263671874
0.5490961074829102,0.7805145263671874
0.5389280319213867,0.7622863769531250
0.5389280319213867,0.7622863769531250
0.5557777404785156,0.7792562484741211
0.5557777404785156,0.7792562484741211
0.5361574172973632,0.7753870010375976
0.5361574172973632,0.7753870010375976
0.5496929168701171,0.7696271896362304
0.5352149963378906,0.7696271896362304
0.5508893966674805,0.7846761703491211
0.5508893966674805,0.7846761703491211
0.5399454116821288,0.7645505905151367
0.5399454116821288,0.7645505905151367
0.5568071365356445,0.7801054000854492
0.5568071365356445,0.7801054000854492
0.5360366821289062,0.7762607574462891
0.5360366821289062,0.7762607574462891
0.5498508453369141,0.7700180053710938
0.5498508453369141,0.7700180053710938
0.5504322052001953,0.7853736877441406
0.5504322052001953,0.7853736877441406
0.5396341323852539,0.7648515701293945
0.5396341323852539,0.7648515701293945
0.5565410614013672,0.7811084747314453
0.5565410614013672,0.7811084747314453
0.5359394073486328,0.7771345138549804
0.5359394073486328,0.7771345138549804
0.5496603012084961,0.7715766906738281
0.5496603012084961,0.7715766906738281
0.5502513885498047,0.7864345550537110
0.5502513885498047,0.7864345550537110
0.5396318435668945,0.7664136886596680
0.5396318435668945,0.7664136886596680
0.5567327499389648,0.7828628540039062
0.5567327499389648,0.7828628540039062
0.5367559432983399,0.7794588088989257
0.5367559432983399,0.7794588088989257
0.5502307891845702,0.7726587295532227
0.5502307891845702,0.7726587295532227
0.5503332138061523,0.7861919403076172
0.5503332138061523,0.7861919403076172
0.5385744094848632,0.7634880065917968
0.5385744094848632,0.7634880065917968
0.5535072326660156,0.7754098892211914
0.5535072326660156,0.7754098892211914
0.5309480667114258,0.7634897232055664
0.5309480667114258,0.7634897232055664
0.5404266357421875,0.7507925033569336
0.5404266357421875,0.7507925033569336
0.5380949020385742,0.7591987609863281
0.5380949020385742,0.7591987609863281
0.5249553680419922,0.7348165512084961
0.5249553680419922,0.7348165512084961
0.5390922546386718,0.7452501296997071
0.5390922546386718,0.7452501296997071
0.5191148757934571,0.7397397994995117
0.5191148757934571,0.7397397994995117
0.5310356140136718,0.7325094223022460
0.5310356140136718,0.7325094223022460
0.5315511703491210,0.7467510223388671
0.5315511703491210,0.7467510223388671
0.5212320327758789,0.7267684936523438
0.5212320327758789,0.7267684936523438
0.5368143081665039,0.7410741806030273
0.5368143081665039,0.7410741806030273
0.5180580139160156,0.7374240875244140
0.5180580139160156,0.7374240875244140
0.5298768997192382,0.7321540832519531
0.5298768997192382,0.7321540832519531
0.5306779861450195,0.7450412750244141
0.5306779861450195,0.7450412750244141
0.5211187362670898,0.7284982681274413
0.5211187362670898,0.7284982681274413
0.5367467880249023,0.7437566757202149
0.5367467880249023,0.7437566757202149
0.5199245452880860,0.7435998916625977
0.5199245452880860,0.7435998916625977
0.5320186614990234,0.7385358810424805
0.5320186614990234,0.7385358810424805
0.5339395523071289,0.7532861709594726
0.5339395523071289,0.7532861709594726
0.5252969741821288,0.7383241653442383
0.5252969741821288,0.7383241653442383
0.5409210205078124,0.7540712356567383
0.5409210205078124,0.7540712356567383
0.5244644165039062,0.7523832321166992
0.5244644165039062,0.7523832321166992
0.5366306304931641,0.7484670639038086
0.5366306304931641,0.7484670639038086
0.5384422302246094,0.7622148513793945
0.5384422302246094,0.7622148513793945
0.5291662216186523,0.7479331970214843
0.5291662216186523,0.7479331970214843
0.5450008392333984,0.7617725372314453
0.5450008392333984,0.7617725372314453
0.5285940170288086,0.7611516952514649
0.5285940170288086,0.7611516952514649
0.5405673980712891,0.7565059661865234
0.5405673980712891,0.7565059661865234
0.5423824310302734,0.7711349487304687
0.5423824310302734,0.7711349487304687
0.5335847854614257,0.7543779373168945
0.5335847854614257,0.7543779373168945
0.5470001220703125,0.7663301467895508
0.5470001220703125,0.7663301467895508
0.5302780151367187,0.7640390396118164
0.5302780151367187,0.7640390396118164
0.5399333953857421,0.7580554962158202
0.5399333953857421,0.7580554962158202
0.5410766601562500,0.7692947387695312
0.5410766601562500,0.7692947387695312
0.5308015823364257,0.7528924942016602
0.5362129211425781,0.7528924942016602
0.5449310302734375,0.7651348114013672
0.5328191757202149,0.7651348114013672
0.5285802841186523,0.7653047561645507
0.5285802841186523,0.7653047561645507
0.5407035827636718,0.7599094390869140
0.5407035827636718,0.7599094390869140
0.5432664871215820,0.7743535995483398
0.5432664871215820,0.7743535995483398
0.5346828460693359,0.7588279724121093
0.5346828460693359,0.7588279724121093
0.5502222061157226,0.7745647430419922
0.5379793167114257,0.7745647430419922
0.5332941055297852,0.7715847015380859
0.5332941055297852,0.7715847015380859
0.5442060470581055,0.7665109634399414
0.5442060470581055,0.7665109634399414
0.5470155715942383,0.7802616119384765
0.5470155715942383,0.7802616119384765
0.5369070053100585,0.7667764663696289
0.5369070053100585,0.7667764663696289
0.5510976791381835,0.7765182495117188
0.5510976791381835,0.7765182495117188
0.5338394165039062,0.7744148254394531
0.5338394165039062,0.7744148254394531
0.5446683883666992,0.7687339782714844
0.5446683883666992,0.7687339782714844
0.5464010238647461,0.7859716415405273
0.5464010238647461,0.7859716415405273
0.5366123199462890,0.7659393310546875
0.5366123199462890,0.7659393310546875
0.5510204315185546,0.7793992996215821
0.5510204315185546,0.7793992996215821
0.5359725952148438,0.7782491683959961
0.5359725952148438,0.7782491683959961
0.5471551895141601,0.7783916473388671
0.5471551895141601,0.7783916473388671
0.5494400024414062,0.7875915527343750
0.5494400024414062,0.7875915527343750
0.5401702880859375,0.7715801239013672
0.5401702880859375,0.7715801239013672
0.5553342819213867,0.7839826583862305
0.5553342819213867,0.7839826583862305
0.5382843017578125,0.7867801666259765
0.5382843017578125,0.7867801666259765
0.5487762451171875,0.7749246597290039
0.5487762451171875,0.7749246597290039
0.5492786407470703,0.7855070114135742
0.5492786407470703,0.7855070114135742
0.5397920608520508,0.7664354324340820
0.5397920608520508,0.7664354324340820
0.5527336120605468,0.7818431854248047
0.5527336120605468,0.7818431854248047
0.5345643997192383,0.7703430175781250
0.5345643997192383,0.7703430175781250
0.5438243865966796,0.7617582321166992
0.5438243865966796,0.7617582321166992
0.5452148437500000,0.7729597091674805
0.5452148437500000,0.7729597091674805
0.5344779968261718,0.7603683471679688
0.5344779968261718,0.7603683471679688
0.5488883972167968,0.7676696777343750
0.5488883972167968,0.7676696777343750
0.5311780929565429,0.7652412414550781
0.5311780929565429,0.7652412414550781
0.5427658081054687,0.7592033386230469
0.5427658081054687,0.7592033386230469
0.5443353652954102,0.7770000457763672
0.5443353652954102,0.7770000457763672
0.5368177413940429,0.7564516067504883
0.5368177413940429,0.7742191314697265
0.5370552062988281,0.7698869705200195
0.5370552062988281,0.7698869705200195
0.5331270217895507,0.7686573028564453
0.5331270217895507,0.7686573028564453
0.5437385559082031,0.7682498931884766
0.5437385559082031,0.7682498931884766
0.5461858749389649,0.7783332824707031
0.5461858749389649,0.7783332824707031
0.5359325408935547,0.7631292343139648
0.5359325408935547,0.7631292343139648
0.5525001525878906,0.7771900177001952
0.5525001525878906,0.7771900177001952
0.5362775802612304,0.7811616897583008
0.5362775802612304,0.7811616897583008
0.5476358413696288,0.7724945068359375
0.5476358413696288,0.7724945068359375
0.5503269195556640,0.7865896224975586
0.5503269195556640,0.7865896224975586
0.5406269073486328,0.7701868057250977
0.5406269073486328,0.7701868057250977
0.5559213638305663,0.7872013092041016
0.5559213638305663,0.7872013092041016
0.5386247634887695,0.7818866729736328
0.5386247634887695,0.7818866729736328
0.5488712310791015,0.7757778167724609
0.5488712310791015,0.7757778167724609
0.5514616012573242,0.7893390655517578
0.5514616012573242,0.7893390655517578
0.5411167144775391,0.7752353668212890
0.5411167144775391,0.7752353668212890
0.5563631057739258,0.7854801177978515
0.5563631057739258,0.7854801177978515
0.5384284973144531,0.7827970504760742
0.5384284973144531,0.7827970504760742
0.5495704650878906,0.7763826370239257
0.5495704650878906,0.7763826370239257
0.5506919860839844,0.7918991088867188
0.5506919860839844,0.7918991088867188
0.5401657104492187,0.7719715118408202
0.5401657104492187,0.7719715118408202
0.5554853439331054,0.7856105804443360
0.5554853439331054,0.7856105804443360
0.5376846313476562,0.7834785461425781
0.5376846313476562,0.7834785461425781
0.5492809295654296,0.7790571212768554
0.5492809295654296,0.7790571212768554
0.5514701843261719,0.7925256729125977
0.5514701843261719,0.7925256729125977
0.5410972595214844,0.7750356674194335
0.5410972595214844,0.7750356674194335
0.5570674896240234,0.7890392303466797
0.5570674896240234,0.7890392303466797
0.5388685226440429,0.7879343032836914
0.5388685226440429,0.7879343032836914
0.5503446578979492,0.7809923171997070
0.5503446578979492,0.7809923171997070
0.5521722793579101,0.7957551956176757
0.5521722793579101,0.7957551956176757
0.5419544219970703,0.7780403137207031
0.5419544219970703,0.7780403137207031
0.5584344863891602,0.7931653976440429
0.5584344863891602,0.7931653976440429
0.5403837203979492,0.7906785964965820
0.5403837203979492,0.7906785964965820
0.5518123626708984,0.7846841812133789
0.5518123626708984,0.7846841812133789
0.5539381027221679,0.7980417251586914
0.5539381027221679,0.7980417251586914
0.5438913345336914,0.7830099105834961
0.5438913345336914,0.7830099105834961
0.5598489761352539,0.7953781127929688
0.5598489761352539,0.7953781127929688
0.5436252593994141,0.7946794509887695
0.5436252593994141,0.7946794509887695
0.5544679641723632,0.7890071868896484
0.5544679641723632,0.7890071868896484
0.5578296661376952,0.8034627914428710
0.5578296661376952,0.8034627914428710
0.5484260559082031,0.7877992630004883
0.5484260559082031,0.7877992630004883
0.5636472702026367,0.8002189636230469
0.5636472702026367,0.8002189636230469
0.5477296829223632,0.7992221832275390
0.5477296829223632,0.7992221832275390
0.5571544647216796,0.7924203872680664
0.5571544647216796,0.7924203872680664
0.5598558425903321,0.8041574478149414
0.5598558425903321,0.8041574478149414
0.5487785339355469,0.7855281829833984
0.5487785339355469,0.7855281829833984
0.5620668411254882,0.7936969757080078
0.5620668411254882,0.7936969757080078
0.5443834304809571,0.7886844635009765
0.5600893020629882,0.7886844635009765
0.5516017913818360,0.7764696121215821
0.5516017913818360,0.7764696121215821
0.5523450851440429,0.7847854614257812
0.5523450851440429,0.7847854614257812
0.5404603958129882,0.7649894714355469
0.5404603958129882,0.7649894714355469
0.5541624069213867,0.7748777389526367
0.5541624069213867,0.7748777389526367
0.5366369247436523,0.7717054367065429
0.5366369247436523,0.7717054367065429
0.5458494186401367,0.7638673782348633
0.5458494186401367,0.7638673782348633
0.5484540939331054,0.7764947891235351
0.5484540939331054,0.7764947891235351
0.5374391555786132,0.7589590072631835
0.5374391555786132,0.7589590072631835
0.5523347854614258,0.7705106735229492
0.5523347854614258,0.7705106735229492
0.5353208541870117,0.7686607360839843
0.5353208541870117,0.7686607360839843
0.5453956604003906,0.7615882873535156
0.5453956604003906,0.7615882873535156
0.5481651306152343,0.7754877090454101
0.5481651306152343,0.7754877090454101
0.5375192642211913,0.7584995269775391
0.5375192642211913,0.7584995269775391
0.5530740737915039,0.7716962814331054
0.5530740737915039,0.7716962814331054
0.5365476608276367,0.7711904525756835
0.5365476608276367,0.7711904525756835
0.5467809677124024,0.7651027679443360
0.5467809677124024,0.7651027679443360
0.5500133514404296,0.7792499542236327
0.5500133514404296,0.7792499542236327
0.5394332885742187,0.7620151519775390
0.5394332885742187,0.7620151519775390
0.5550750732421875,0.7749441146850585
0.5550750732421875,0.7749441146850585
0.5382528305053711,0.7740783691406250
0.5382528305053711,0.7740783691406250
0.5485965728759765,0.7671861648559570
0.5361757278442383,0.7671861648559570
0.5518524169921875,0.7810192108154297
0.5518524169921875,0.7810192108154297
0.5409713745117187,0.7638296127319336
0.5409713745117187,0.7638296127319336
0.5563287734985352,0.7761966705322265
0.5563287734985352,0.7761966705322265
0.5392816543579101,0.7743782043457031
0.5392816543579101,0.7743782043457031
0.5494709014892578,0.7672628402709961
0.5494709014892578,0.7672628402709961
0.5522415161132812,0.7808755874633789
0.5522415161132812,0.7808755874633789
0.5411882400512695,0.7635498046875000
0.5411882400512695,0.7635498046875000
0.5566394805908202,0.7756587982177734
0.5566394805908202,0.7756587982177734
0.5395111083984375,0.7738569259643554
0.5395111083984375,0.7738569259643554
0.5494256973266601,0.7667953491210937
0.5494256973266601,0.7667953491210937
0.5524795532226562,0.7809202194213867
0.5524795532226562,0.7809202194213867
0.5413845062255859,0.7634948730468750
0.5413845062255859,0.7634948730468750
0.5567790985107421,0.7758178710937500
0.5567790985107421,0.7758178710937500
0.5402738571166992,0.7750637054443359
0.5402738571166992,0.7750637054443359
0.5499464035034179,0.7686086654663086
0.5499464035034179,0.7686086654663086
0.5531290054321288,0.7820663452148438
0.5531290054321288,0.7820663452148438
0.5422662734985352,0.7652126312255859
0.5422662734985352,0.7652126312255859
0.5576957702636719,0.7774492263793945
0.5576957702636719,0.7774492263793945
0.5414806365966797,0.7772832870483398
0.5414806365966797,0.7772832870483398
0.5507720947265625,0.7699693679809571
0.5507720947265625,0.7699693679809571
0.5543363571166992,0.7840295791625976
0.5543363571166992,0.7840295791625976
0.5432916641235351,0.7671936035156249
0.5432916641235351,0.7671936035156249
0.5589019775390625,0.7804933547973633
0.5589019775390625,0.7804933547973633
0.5427434921264648,0.7795028686523438
0.5427434921264648,0.7795028686523438
0.5520887374877930,0.7727663040161132
0.5520887374877930,0.7727663040161132
0.5556941986083984,0.7866445541381836
0.5556941986083984,0.7866445541381836
0.5440996170043945,0.7687734603881836
0.5440996170043945,0.7687734603881836
0.5584831237792969,0.7780254364013671
0.5584831237792969,0.7780254364013671
0.5408288955688476,0.7740892410278321
0.5408288955688476,0.7740892410278321
0.5482177734375000,0.7629032135009766
0.5482177734375000,0.7629032135009766
0.5498210906982421,0.7729665756225585
0.5498210906982421,0.7729665756225585
0.5368331909179688,0.7517217636108399
0.5368331909179688,0.7517217636108399
0.5508001327514648,0.7608364105224609
0.5508001327514648,0.7608364105224609
0.5333999633789063,0.7579330444335938
0.5333999633789063,0.7579330444335938
0.5415018081665038,0.7490839004516602
0.5415018081665038,0.7490839004516602
0.5445304870605469,0.7615980148315430
0.5445304870605469,0.7615980148315430
0.5326486587524414,0.7436748504638672
0.5326486587524414,0.7436748504638672
0.5481336593627929,0.7559034347534179
0.5481336593627929,0.7559034347534179
0.5312438964843750,0.7551132202148437
0.5312438964843750,0.7551132202148437
0.5407058715820312,0.7476997375488281
0.5407058715820312,0.7476997375488281
0.5440206527709961,0.7621227264404297
0.5440206527709961,0.7621227264404297
0.5324861526489257,0.7446195602416992
0.5324861526489257,0.7446195602416992
0.5483064651489258,0.7579387664794922
0.5483064651489258,0.7579387664794922
0.5309995651245117,0.7568023681640624
0.5309995651245117,0.7568023681640624
0.5406194686889648,0.7501029968261719
0.5406194686889648,0.7501029968261719
0.5441219329833984,0.7653488159179688
0.5441219329833984,0.7653488159179688
0.5331808090209961,0.7489351272583008
0.5331808090209961,0.7489351272583008
0.5493587493896485,0.7626325607299804
0.5493587493896485,0.7626325607299804
0.5331813812255859,0.7625083923339844
0.5331813812255859,0.7625083923339844
0.5425094604492188,0.7561603546142578
0.5314052581787109,0.7561603546142578
0.5464776992797852,0.7706834793090820
0.5464776992797852,0.7706834793090820
0.5356178283691406,0.7545850753784179
0.5356178283691406,0.7545850753784179
0.5510358810424805,0.7667839050292968
0.5510358810424805,0.7667839050292968
0.5354450225830077,0.7669343948364258
0.5354450225830077,0.7669343948364258
0.5441173553466797,0.7603878021240235
0.5441173553466797,0.7603878021240235
0.5478006362915039,0.7744028091430664
0.5478006362915039,0.7744028091430664
0.5367422103881836,0.7575033187866210
0.5367422103881836,0.7575033187866210
0.5521842956542968,0.7701089859008788
0.5521842956542968,0.7701089859008788
0.5359972000122070,0.7701255798339843
0.5359972000122070,0.7701255798339843
0.5450769424438476,0.7631767272949218
0.5450769424438476,0.7631767272949218
0.5490068435668946,0.7781244277954101
0.5490068435668946,0.7781244277954101
0.5374711990356446,0.7609462738037109
0.5374711990356446,0.7609462738037109
0.5533756256103516,0.7741847991943359
0.5533756256103516,0.7741847991943359
0.5366094589233398,0.7735239028930664
0.5366094589233398,0.7735239028930664
0.5454969406127930,0.7661682128906250
0.5454969406127930,0.7661682128906250
0.5493221282958984,0.7810964584350586
0.5493221282958984,0.7810964584350586
0.5371685028076172,0.7641202926635742
0.5371685028076172,0.7641202926635742
0.5540136337280274,0.7774097442626953
0.5540136337280274,0.7774097442626953
0.5364515304565429,0.7761302947998047
0.5364515304565429,0.7761302947998047
0.5466327667236328,0.7696786880493164
0.5466327667236328,0.7696786880493164
0.5498805999755859,0.7855173110961914
0.5498805999755859,0.7855173110961914
0.5381183624267578,0.7661298751831055
0.5381183624267578,0.7661298751831055
0.5554018020629883,0.7811559677124024
0.5554018020629883,0.7811559677124024
0.5377166748046874,0.7803949356079102
0.5377166748046874,0.7803949356079102
0.5487848281860351,0.7757406234741211
0.5487848281860351,0.7757406234741211
0.5524520874023438,0.7912044525146484
0.5524520874023438,0.7912044525146484
0.5420379638671875,0.7732795715332031
0.5420379638671875,0.7732795715332031
0.5598896026611327,0.7887399673461913
0.5598896026611327,0.7887399673461913
0.5428762435913086,0.7900211334228515
0.5428762435913086,0.7900211334228515
0.5538579940795898,0.7825532913208008
0.5538579940795898,0.7825532913208008
0.5572168350219726,0.7976623535156250
0.5572168350219726,0.7976623535156250
0.5517894744873046,0.7964246749877929
0.5517894744873046,0.7964246749877929
0.5500986099243164,0.7819444656372070
0.5453292846679687,0.7819444656372070
0.5608411788940429,0.7966695785522461
0.5608411788940429,0.7966695785522461
0.5420883178710937,0.7809528350830078
0.5420883178710937,0.7809528350830078
0.5581117630004883,0.7832330703735352
0.5581117630004883,0.7832330703735352
0.5485490798950196,0.7872957229614258
0.5485490798950196,0.7872957229614258
0.5432916641235351,0.7657642364501953
0.5432916641235351,0.7657642364501953
0.5539415359497070,0.7755083084106446
0.5539415359497070,0.7755083084106446
0.5327939987182617,0.7611614227294922
0.5327939987182617,0.7611614227294922
0.5504516601562500,0.7633106231689453
0.5504516601562500,0.7633106231689453
0.5390476226806641,0.7690876007080077
0.5390476226806641,0.7690876007080077
0.5372457504272461,0.7498020172119141
0.5372457504272461,0.7498020172119141
0.5499023437500000,0.7680856704711914
0.5499023437500000,0.7680856704711914
0.5292875289916992,0.7545186996459960
0.5292875289916992,0.7545186996459960
0.5460313796997071,0.7575553894042969
0.5460313796997071,0.7575553894042969
0.5387495040893554,0.7647325515747070
0.5387495040893554,0.7647325515747070
0.5366151809692382,0.7511507034301758
0.5366151809692382,0.7511507034301758
0.5496065139770507,0.7688587188720702
0.5496065139770507,0.7688587188720702
0.5291444778442382,0.7568996429443359
0.5291444778442382,0.7568996429443359
0.5476135253906250,0.7592714309692382
0.5476135253906250,0.7592714309692382
0.5408300399780274,0.7713329315185546
0.5408300399780274,0.7713329315185546
0.5393692016601562,0.7576938629150390
0.5358283996582031,0.7576938629150390
0.5517854690551758,0.7757354736328125
0.5517854690551758,0.7757354736328125
0.5335412979125976,0.7631263732910156
0.5335412979125976,0.7631263732910156
0.5518598556518555,0.7698806762695313
0.5518598556518555,0.7698806762695313
0.5451604843139648,0.7808361053466797
0.5451604843139648,0.7808361053466797
0.5419235229492188,0.7655479431152343
0.5419235229492188,0.7655479431152343
0.5563596725463867,0.7817224502563477
0.5563596725463867,0.7817224502563477
0.5372657775878906,0.7722375869750976
0.5372657775878906,0.7722375869750976
0.5550184249877930,0.7762681961059570
0.5550184249877930,0.7762681961059570
0.5469715118408203,0.7857044219970702
0.5469715118408203,0.7857044219970702
0.5455627441406250,0.7691402435302734
0.5455627441406250,0.7691402435302734
0.5584379196166992,0.7880584716796875
0.5584379196166992,0.7880584716796875
0.5389337539672852,0.7765834808349609
0.5389337539672852,0.7765834808349609
0.5555465698242187,0.7799194335937499
0.5555465698242187,0.7799194335937499
0.5490280151367187,0.7875921249389648
0.5490280151367187,0.7875921249389648
0.5467643737792969,0.7739788055419922
0.5467643737792969,0.7739788055419922
0.5597465515136718,0.7914825439453125
0.5597465515136718,0.7914825439453125
0.5393743515014648,0.7792791366577149
0.5393743515014648,0.7792791366577149
0.5576648712158203,0.7819696426391601
0.5576648712158203,0.7819696426391601
0.5504779815673828,0.7926498413085937
0.5504779815673828,0.7926498413085937
0.5482383728027344,0.7777421951293945
0.5482383728027344,0.7777421951293945
0.5603502273559570,0.7946542739868164
0.5603502273559570,0.7946542739868164
0.5414932250976562,0.7815496444702148
0.5414932250976562,0.7815496444702148
0.5588516235351563,0.7863836288452148
0.5588516235351563,0.7863836288452148
0.5519216537475585,0.7958593368530273
0.5519216537475585,0.7958593368530273
0.5487659454345702,0.7804052352905273
0.5487659454345702,0.7804052352905273
0.5620491027832031,0.7970907211303710
0.5620491027832031,0.7970907211303710
0.5422588348388672,0.7855625152587891
0.5422588348388672,0.7855625152587891
0.5596269607543946,0.7893384933471680
0.5596269607543946,0.7893384933471680
0.5528165817260742,0.7990962982177734
0.5528165817260742,0.7990962982177734
0.5501214981079101,0.7833194732666016
0.5501214981079101,0.7833194732666016
0.5631254196166992,0.8006195068359375
0.5631254196166992,0.8006195068359375
0.5442140579223632,0.7900623321533203
0.5442140579223632,0.7900623321533203
0.5600801467895508,0.7922864913940429
0.5600801467895508,0.7922864913940429
0.5545303344726562,0.8009445190429687
0.5545303344726562,0.8009445190429687
0.5506919860839844,0.7859521865844726
0.5506919860839844,0.7859521865844726
0.5627838134765625,0.8003768920898438
0.5627838134765625,0.8003768920898438
0.5426513671875000,0.7867383956909180
0.5426513671875000,0.7867383956909180
0.5571733474731445,0.7845548629760742
0.5571733474731445,0.7845548629760742
0.5498388290405273,0.7901973724365234
0.5498388290405273,0.7901973724365234
0.5433923721313476,0.7685159683227539
0.5433923721313476,0.7685159683227539
0.5531461715698242,0.7781570434570312
0.5531461715698242,0.7781570434570312
0.5324930191040039,0.7625255584716797
0.5324930191040039,0.7625255584716797
0.5469846725463867,0.7622308731079102
0.5469846725463867,0.7622308731079102
0.5404947280883788,0.7693828582763672
0.5404947280883788,0.7693828582763672
0.5355463027954102,0.7519414901733398
0.5355463027954102,0.7519414901733398
0.5480747222900391,0.7657293319702149
0.5480747222900391,0.7657293319702149
0.5293779373168945,0.7549690246582031
0.5293779373168945,0.7549690246582031
0.5450077056884766,0.7564750671386719
0.5450077056884766,0.7564750671386719
0.5397085189819336,0.7651834487915039
0.5397085189819336,0.7651834487915039
0.5359331130981445,0.7492589950561523
0.5359331130981445,0.7492589950561523
0.5490606307983398,0.7657064437866211
0.5490606307983398,0.7657064437866211
0.5308073043823242,0.7560991287231446
0.5308073043823242,0.7560991287231446
0.5462522506713867,0.7580045700073242
0.5462522506713867,0.7580045700073242
0.5421392440795898,0.7674579620361328
0.5421392440795898,0.7674579620361328
0.5384891510009765,0.7539127349853515
0.5384891510009765,0.7539127349853515
0.5519502639770507,0.7706233978271484
0.5519502639770507,0.7706233978271484
0.5334669113159179,0.7610103607177734
0.5334669113159179,0.7610103607177734
0.5496299743652343,0.7623327255249023
0.5496299743652343,0.7623327255249023
0.5450998306274414,0.7734626770019531
0.5450998306274414,0.7734626770019531
0.5412534713745117,0.7586339950561524
0.5412534713745117,0.7586339950561524
0.5536302566528321,0.7742666244506836
0.5536302566528321,0.7742666244506836
0.5357076644897460,0.7631126403808594
0.5357076644897460,0.7631126403808594
0.5511629104614257,0.7655181884765625
0.5511629104614257,0.7655181884765625
0.5463764190673828,0.7754528045654296
0.5463764190673828,0.7754528045654296
0.5414548873901367,0.7595352172851563
0.5414548873901367,0.7595352172851563
0.5547128677368164,0.7744136810302734
0.5547128677368164,0.7744136810302734
0.5361402511596679,0.7649894714355469
0.5361402511596679,0.7649894714355469
0.5514884948730469,0.7667078018188477
0.5514884948730469,0.7667078018188477
0.5463586807250976,0.7761491775512696
0.5463586807250976,0.7761491775512696
0.5423360824584961,0.7598819732666016
0.5423360824584961,0.7598819732666016
0.5554252624511719,0.7767660140991210
0.5554252624511719,0.7767660140991210
0.5369653701782227,0.7667444229125976
0.5369653701782227,0.7667444229125976
0.5518610000610351,0.7680404663085937
0.5518610000610351,0.7680404663085937
0.5476587295532226,0.7771768569946289
0.5557422637939453,0.7771768569946289
0.5432876586914063,0.7626766204833985
0.5432876586914063,0.7626766204833985
0.5564872741699218,0.7790462493896484
0.5564872741699218,0.7790462493896484
0.5371290206909179,0.7686927795410156
0.5371290206909179,0.7686927795410156
0.5533012390136719,0.7693691253662109
0.5533012390136719,0.7693691253662109
0.5488225936889648,0.7806152343750000
0.5488225936889648,0.7806152343750000
0.5444103240966797,0.7650592803955077
0.5444103240966797,0.7650592803955077
0.5568655014038085,0.7811233520507812
0.5568655014038085,0.7811233520507812
0.5388416290283203,0.7703418731689453
0.5388416290283203,0.7703418731689453
0.5544439315795898,0.7729213714599609
0.5544439315795898,0.7729213714599609
0.5502050399780273,0.7836124420166015
0.5502050399780273,0.7836124420166015
0.5450769424438476,0.7680747985839843
0.5450769424438476,0.7680747985839843
0.5589900970458984,0.7835432052612304
0.5589900970458984,0.7835432052612304
0.5404884338378906,0.7746030807495117
0.5404884338378906,0.7746030807495117
0.5557445526123047,0.7755460739135742
0.5557445526123047,0.7755460739135742
0.5502582550048828,0.7839963912963867
0.5502582550048828,0.7839963912963867
0.5448303222656250,0.7641826629638672
0.5448303222656250,0.7641826629638672
0.5562595367431641,0.7773513793945312
0.5562595367431641,0.7773513793945312
0.5360115051269531,0.7636001586914062
0.5360115051269531,0.7636001586914062
0.5488660812377929,0.7604078292846680
0.5488660812377929,0.7604078292846680
0.5433185577392577,0.7653116226196289
0.5433185577392577,0.7653116226196289
0.5371124267578125,0.7472734451293945
0.5371124267578125,0.7472734451293945
0.5491664886474609,0.7612203598022461
0.5491664886474609,0.7612203598022461
0.5291141510009766,0.7492670059204102
0.5291141510009766,0.7492670059204102
0.5442077636718750,0.7482147216796875
0.5442077636718750,0.7482147216796875
0.5397050857543945,0.7585435867309570
0.5397050857543945,0.7585435867309570
0.5344791412353516,0.7425292968750000
0.5344791412353516,0.7425292968750000
0.5468805313110351,0.7578243255615235
0.5468805313110351,0.7578243255615235
0.5287611007690429,0.7463367462158202
0.5471363067626953,0.7463367462158202
0.5438850402832031,0.7482530593872070
0.5438850402832031,0.7482530593872070
0.5397548675537109,0.7584880828857422
0.5397548675537109,0.7584880828857422
0.5340402603149413,0.7426420211791992
0.5340402603149413,0.7426420211791992
0.5478418350219726,0.7580492019653320
0.5478418350219726,0.7580492019653320
0.5295553207397461,0.7495594024658203
0.5295553207397461,0.7495594024658203
0.5449682235717773,0.7516582489013671
0.5449682235717773,0.7516582489013671
0.5405570983886718,0.7619665145874023
0.5405570983886718,0.7619665145874023
0.5363674163818359,0.7456340789794922
0.5363674163818359,0.7456340789794922
0.5497535705566406,0.7632167816162109
0.5497535705566406,0.7632167816162109
0.5314464569091797,0.7536787033081055
0.5314464569091797,0.7536787033081055
0.5460428237915039,0.7548385620117187
0.5460428237915039,0.7548385620117187
0.5426570892333984,0.7642009735107421
0.5426570892333984,0.7642009735107421
0.5377458572387696,0.7494609832763671
0.5377458572387696,0.7494609832763671
0.5508853912353515,0.7659822463989258
0.5508853912353515,0.7659822463989258
0.5317605972290039,0.7554193496704101
0.5317605972290039,0.7554193496704101
0.5473016738891602,0.7551132202148437
0.5473016738891602,0.7551132202148437
0.5433219909667969,0.7665441513061523
0.5433219909667969,0.7665441513061523
0.5382883071899414,0.7507141113281249
0.5382883071899414,0.7507141113281249
0.5507680892944335,0.7668251037597656
0.5507680892944335,0.7668251037597656
0.5327104568481446,0.7556648254394531
0.5327104568481446,0.7556648254394531
0.5479568481445313,0.7580715179443359
0.5479568481445313,0.7580715179443359
0.5442008972167969,0.7689582824707031
0.5442008972167969,0.7689582824707031
0.5383541107177734,0.7526441574096679
0.5383541107177734,0.7526441574096679
0.5523674011230468,0.7679437637329102
0.5523674011230468,0.7679437637329102
0.5340682983398437,0.7595277786254883
0.5340682983398437,0.7595277786254883
0.5491149902343749,0.7609039306640625
0.5491149902343749,0.7609039306640625
0.5530477523803711,0.7664239883422851
0.5386608123779296,0.7664239883422851
0.5389320373535156,0.7680570602416992
0.5389320373535156,0.7680570602416992
0.5447999954223632,0.7608232498168945
0.5447999954223632,0.7608232498168945
0.5515222549438477,0.7746849060058594
0.5515222549438477,0.7746849060058594
0.5386980056762695,0.7573562622070312
0.5386980056762695,0.7573562622070312
0.5546579360961914,0.7697673797607422
0.5546579360961914,0.7697673797607422
0.5403608322143555,0.7727359771728516
0.5559396743774414,0.7727359771728516
0.5461835861206055,0.7624225616455078
0.5461835861206055,0.7624225616455078
0.5525642395019531,0.7780162811279296
0.5525642395019531,0.7780162811279296
0.5401508331298828,0.7605422973632813
0.5401508331298828,0.7605422973632813
0.5560878753662110,0.7748828887939453
0.5560878753662110,0.7748828887939453
0.5418434143066406,0.7750333786010742
0.5418434143066406,0.7750333786010742
0.5477949142456054,0.7665086746215820
0.5477949142456054,0.7665086746215820
0.5547620773315429,0.7821504592895507
0.5547620773315429,0.7821504592895507
0.5418416976928710,0.7663942337036133
0.5418416976928710,0.7663942337036133
0.5578599929809570,0.7769811630249023
0.5433637619018554,0.7769811630249023
0.5429763793945312,0.7772174835205078
0.5577850341796875,0.7772174835205078
0.5479036331176758,0.7652807235717773
0.5366689682006835,0.7652807235717773
0.5526872634887695,0.7777410507202148
0.5493730545043946,0.7777410507202148
0.5377223968505859,0.7538881301879883
0.5469772338867187,0.7538881301879883
0.5515045166015625,0.7613777160644531
0.5515045166015625,0.7613777160644531
0.5353363037109374,0.7580863952636718
0.5353363037109374,0.7580863952636718
0.5391563415527344,0.7470874786376953
0.5391563415527344,0.7470874786376953
0.5445482254028320,0.7583330154418945
0.5417066574096679,0.7583330154418945
0.5305086135864258,0.7383378982543946
0.5305086135864258,0.7383378982543946
0.5457950592041015,0.7490381240844727
0.5457950592041015,0.7490381240844727
0.5311632156372070,0.7509418487548828
0.5311632156372070,0.7509418487548828
0.5360996246337890,0.7392259597778320
0.5360996246337890,0.7392259597778320
0.5425466537475586,0.7538755416870117
0.5425466537475586,0.7538755416870117
0.5294660568237305,0.7354579925537109
0.5294660568237305,0.7354579925537109
0.5448268890380860,0.7488933563232422
0.5448268890380860,0.7488933563232422
0.5305824279785156,0.7486244201660156
0.5305824279785156,0.7486244201660156
0.5359107971191406,0.7391767501831055
0.5359107971191406,0.7391767501831055
0.5429506301879883,0.7547080993652343
0.5429506301879883,0.7547080993652343
0.5299581527709961,0.7386737823486328
0.5299581527709961,0.7386737823486328
0.5459077835083007,0.7498123168945312
0.5459077835083007,0.7498123168945312
0.5319717407226562,0.7516519546508789
0.5319717407226562,0.7516519546508789
0.5377504348754882,0.7429962158203125
0.5377504348754882,0.7429962158203125
0.5447244644165039,0.7607053756713867
0.5447244644165039,0.7607053756713867
0.5320455551147460,0.7415296554565429
0.5320455551147460,0.7415296554565429
0.5476678848266602,0.7541599273681641
0.5476678848266602,0.7541599273681641
0.5341037750244141,0.7559125900268554
0.5341037750244141,0.7559125900268554
0.5395008087158203,0.7485963821411132
0.5395008087158203,0.7485963821411132
0.5463380813598633,0.7625867843627929
0.5463380813598633,0.7625867843627929
0.5334880828857421,0.7448295593261719
0.5334880828857421,0.7448295593261719
0.5492351531982421,0.7571056365966796
0.5492351531982421,0.7571056365966796
0.5353849411010742,0.7604501724243163
0.5353849411010742,0.7604501724243163
0.5406606674194335,0.7495325088500976
0.5406606674194335,0.7495325088500976
0.5473245620727539,0.7650358200073242
0.5473245620727539,0.7650358200073242
0.5346593856811523,0.7474136352539062
0.5346593856811523,0.7474136352539062
0.5501163482666015,0.7613348007202149
0.5501163482666015,0.7613348007202149
0.5363193511962890,0.7611373901367188
0.5363193511962890,0.7611373901367188
0.5419326782226562,0.7525159835815429
0.5419326782226562,0.7525159835815429
0.5486360549926758,0.7678527832031250
0.5486360549926758,0.7678527832031250
0.5361053466796875,0.7524530410766601
0.5361053466796875,0.7524530410766601
0.5516286849975586,0.7632408142089844
0.5516286849975586,0.7632408142089844
0.5379947662353516,0.7651805877685547
0.5379947662353516,0.7651805877685547
0.5434776306152344,0.7561471939086913
0.5434776306152344,0.7561471939086913
0.5504259109497071,0.7737390518188476
0.5504259109497071,0.7737390518188476
0.5375993728637695,0.7546863555908203
0.5375993728637695,0.7546863555908203
0.5534225463867187,0.7670969009399414
0.5534225463867187,0.7670969009399414
0.5399230957031250,0.7691007614135742
0.5399230957031250,0.7691007614135742
0.5449230194091796,0.7615940093994140
0.5449230194091796,0.7615940093994140
0.5523176193237305,0.7758871078491211
0.5523176193237305,0.7758871078491211
0.5391368865966797,0.7585481643676758
0.5391368865966797,0.7585481643676758
0.5550848007202148,0.7709146499633789
0.5550848007202148,0.7709146499633789
0.5415470123291015,0.7748188018798828
0.5415470123291015,0.7748188018798828
0.5466997146606445,0.7642341613769531
0.5466997146606445,0.7642341613769531
0.5541343688964844,0.7802965164184570
0.5541343688964844,0.7802965164184570
0.5411121368408203,0.7629970550537110
0.5411121368408203,0.7629970550537110
0.5569747924804688,0.7773994445800781
0.5569747924804688,0.7773994445800781
0.5436281204223633,0.7778669357299804
0.5436281204223633,0.7778669357299804
0.5484563827514648,0.7686149597167968
0.5484563827514648,0.7686149597167968
0.5560649871826172,0.7845296859741211
0.5560649871826172,0.7845296859741211
0.5427646636962891,0.7680410385131836
0.5427646636962891,0.7680410385131836
0.5578170776367187,0.7768930435180664
0.5578170776367187,0.7768930435180664
0.5563791275024413,0.7752176284790039
0.5458911895751953,0.7604902267456054
0.5458911895751953,0.7604902267456054
0.5507772445678710,0.7728332519531250
0.5507772445678710,0.7728332519531250
0.5357076644897460,0.7489179611206055
0.5357076644897460,0.7489179611206055
0.5489913940429687,0.7563411712646484
0.5489913940429687,0.7563411712646484
0.5340499877929688,0.7545375823974609
0.5340499877929688,0.7545375823974609
0.5376296997070312,0.7438362121582031
0.5376296997070312,0.7438362121582031
0.5439748764038086,0.7560705184936524
0.5439748764038086,0.7560705184936524
0.5301858901977539,0.7369171142578125
0.5301858901977539,0.7369171142578125
0.5453338623046875,0.7478725433349609
0.5453338623046875,0.7478725433349609
0.5314853668212890,0.7507181167602539
0.5314853668212890,0.7507181167602539
0.5360218048095703,0.7389112472534179
0.5360218048095703,0.7389112472534179
0.5427944183349609,0.7541673660278320
0.5427944183349609,0.7541673660278320
0.5299324035644531,0.7360176086425781
0.5299324035644531,0.7360176086425781
0.5450929641723633,0.7495370864868164
0.5450929641723633,0.7495370864868164
0.5316919326782227,0.7498769760131836
0.5316919326782227,0.7498769760131836
0.5364171981811523,0.7402708053588867
0.5364171981811523,0.7402708053588867
0.5440458297729492,0.7563852310180664
0.5440458297729492,0.7563852310180664
0.5309749603271484,0.7407382965087891
0.5309749603271484,0.7407382965087891
0.5467123031616211,0.7516548156738281
0.5467123031616211,0.7516548156738281
0.5334245681762695,0.7541707992553711
0.5334245681762695,0.7541707992553711
0.5386024475097656,0.7448369979858398
0.5386024475097656,0.7448369979858398
0.5461698532104492,0.7627292633056640
0.5461698532104492,0.7627292633056640
0.5328065872192382,0.7437583923339843
0.5328065872192382,0.7437583923339843
0.5485696792602539,0.7559709548950195
0.5485696792602539,0.7559709548950195
0.5355108261108398,0.7581956863403320
0.5355108261108398,0.7581956863403320
0.5400947570800781,0.7499588012695312
0.5400947570800781,0.7499588012695312
0.5474126815795898,0.7641941070556640
0.5474126815795898,0.7641941070556640
0.5338199615478515,0.7462503433227539
0.5338199615478515,0.7462503433227539
0.5495830535888672,0.7579879760742188
0.5495830535888672,0.7579879760742188
0.5363250732421875,0.7616094589233399
0.5363250732421875,0.7616094589233399
0.5407047271728516,0.7499919891357422
0.5407047271728516,0.7499919891357422
0.5481971740722656,0.7659988403320312
0.5481971740722656,0.7659988403320312
0.5348756790161132,0.7478874206542968
0.5348756790161132,0.7478874206542968
0.5502496719360351,0.7614915847778320
0.5502496719360351,0.7614915847778320
0.5371387481689452,0.7619625091552734
0.5371387481689452,0.7619625091552734
0.5413055419921875,0.7518493652343750
0.5413055419921875,0.7518493652343750
0.5492334365844727,0.7677097320556641
0.5492334365844727,0.7677097320556641
0.5356904983520507,0.7514654159545898
0.5356904983520507,0.7514654159545898
0.5510267257690430,0.7617038726806641
0.5510267257690430,0.7617038726806641
0.5380903244018554,0.7641695022583007
0.5380903244018554,0.7641695022583007
0.5424396514892578,0.7538692474365234
0.5424396514892578,0.7538692474365234
0.5500688552856445,0.7715864181518555
0.5500688552856445,0.7715864181518555
0.5365699768066406,0.7522499084472656
0.5365699768066406,0.7522499084472656
0.5517425537109375,0.7638731002807617
0.5517425537109375,0.7638731002807617
0.5390762329101563,0.7662036895751952
0.5390762329101563,0.7662036895751952
0.5433288574218750,0.7576646804809570
0.5433288574218750,0.7576646804809570
0.5510610580444336,0.7723537445068359
0.5510610580444336,0.7723537445068359
0.5378002166748047,0.7547040939331054
0.5378002166748047,0.7547040939331054
0.5532165527343750,0.7666505813598633
0.5532165527343750,0.7666505813598633
0.5403619766235351,0.7709489822387695
0.5552507400512695,0.7709489822387695
0.5447587966918945,0.7593767166137695
0.5447587966918945,0.7593767166137695
0.5522718429565430,0.7754562377929687
0.5522718429565430,0.7754562377929687
0.5390951156616210,0.7572000503540038
0.5390951156616210,0.7572000503540038
0.5536016464233399,0.7686000823974609
0.5536016464233399,0.7686000823974609
0.5396226882934571,0.7663770675659179
0.5396226882934571,0.7663770675659179
0.5421958923339844,0.7523305892944335
0.5421958923339844,0.7523305892944335
0.5484025955200195,0.7642347335815429
0.5484025955200195,0.7642347335815429
0.5328535079956055,0.7437509536743164
0.5328535079956055,0.7437509536743164
0.5464651107788085,0.7498649597167969
0.5464651107788085,0.7498649597167969
0.5322486877441406,0.7494792938232422
0.5322486877441406,0.7494792938232422
0.5355852127075195,0.7369108200073242
0.5355852127075195,0.7369108200073242
0.5425260543823242,0.7529108047485351
0.5425260543823242,0.7529108047485351
0.5283216476440430,0.7324693679809570
0.5283216476440430,0.7324693679809570
0.5431938171386719,0.7431781768798827
0.5431938171386719,0.7431781768798827
0.5302442550659180,0.7448638916015625
0.5302442550659180,0.7448638916015625
0.5338754653930664,0.7354299545288085
0.5338754653930664,0.7354299545288085
0.5416374206542969,0.7496995925903320
0.5416374206542969,0.7496995925903320
0.5277832031249999,0.7317117691040039
0.5277832031249999,0.7317117691040039
0.5430759429931641,0.7429773330688476
0.5430759429931641,0.7429773330688476
0.5306173324584961,0.7471515655517578
0.5306173324584961,0.7471515655517578
0.5344940185546875,0.7353727340698242
0.5344940185546875,0.7353727340698242
0.5425386428833008,0.7518470764160156
0.5425386428833008,0.7518470764160156
0.5384908676147461,0.7524152755737304
0.5384908676147461,0.7524152755737304
0.5334068298339844,0.7357360839843750
0.5323837280273437,0.7357360839843750
0.5454465866088867,0.7526504516601562
0.5454465866088867,0.7526504516601562
0.5283880233764648,0.7428119659423827
0.5283880233764648,0.7428119659423827
0.5417295455932617,0.7440067291259765
0.5417295455932617,0.7440067291259765
0.5400924682617188,0.7560859680175781
0.5400924682617188,0.7560859680175781
0.5324787139892578,0.7384237289428711
