REDsignal,IRsignal
0.6013933181762695,0.6342950820922851
0.6013933181762695,0.6342950820922851
0.6081693649291992,0.6453311920166015
0.6081693649291992,0.6453311920166015
0.6013893127441406,0.6397722244262695
0.6013893127441406,0.6397722244262695
0.6108598709106445,0.6456275939941406
0.6108598709106445,0.6456275939941406
0.6068864822387695,0.6517272949218750
0.6068864822387695,0.6517272949218750
0.6091735839843749,0.6472526550292969
0.6091735839843749,0.6472526550292969
0.6170345306396484,0.6596797943115235
0.6170345306396484,0.6596797943115235
0.6107648849487305,0.6549682617187500
0.6107648849487305,0.6549682617187500
0.6205936431884765,0.6612442016601562
0.6205936431884765,0.6612442016601562
0.6165847778320312,0.6670085906982421
0.6165847778320312,0.6670085906982421
0.6184438705444336,0.6618358612060546
0.6184438705444336,0.6618358612060546
0.6254144668579101,0.6730350494384766
0.6254144668579101,0.6730350494384766
0.6186578750610351,0.6671871185302735
0.6186578750610351,0.6671871185302735
0.6279018402099609,0.6727231979370117
0.6279018402099609,0.6727231979370117
0.6231451034545898,0.6777528762817383
0.6231451034545898,0.6777528762817383
0.6245933532714844,0.6716148376464843
0.6245933532714844,0.6716148376464843
0.6308967590332031,0.6817159652709961
0.6308967590332031,0.6817159652709961
0.6231153488159179,0.6744581222534179
0.6231153488159179,0.6744581222534179
0.6310855865478515,0.6778015136718750
0.6310855865478515,0.6778015136718750
0.6240468978881836,0.6777751922607421
0.6240468978881836,0.6777751922607421
0.6206697463989258,0.6619297027587890
0.6206697463989258,0.6619297027587890
0.6163953781127930,0.6517078399658203
0.6163953781127930,0.6517078399658203
0.5937343597412109,0.6200048446655273
0.5937343597412109,0.6200048446655273
0.5903102874755859,0.6068881988525391
0.5903102874755859,0.6068881988525391
0.5769144058227539,0.5989711761474609
0.5769144058227539,0.5989711761474609
0.5723751068115234,0.5839038848876953
0.5723751068115234,0.5839038848876953
0.5745111465454101,0.5881330490112304
0.5745111465454101,0.5881330490112304
0.5643733978271485,0.5770843505859374
0.5643733978271485,0.5770843505859374
0.5711774826049805,0.5789045333862305
0.5711774826049805,0.5789045333862305
0.5647356033325195,0.5806823730468750
0.5647356033325195,0.5806823730468750
0.5648923873901367,0.5724506378173828
0.5648923873901367,0.5724506378173828
0.5698448181152344,0.5811750411987304
0.5698448181152344,0.5811750411987304
0.5620319366455078,0.5733541488647461
0.5620319366455078,0.5733541488647461
0.5703620910644531,0.5777486801147461
0.5703620910644531,0.5777486801147461
0.5652025222778320,0.5815835952758789
0.5652025222778320,0.5815835952758789
0.5663858413696289,0.5749883651733398
0.5663858413696289,0.5749883651733398
0.5724054336547851,0.5849023818969726
0.5724054336547851,0.5849023818969726
0.5650720596313477,0.5783077239990234
0.5650720596313477,0.5783077239990234
0.5739521026611328,0.5840778350830078
0.5739521026611328,0.5840778350830078
0.5698305130004883,0.5897226333618164
0.5698305130004883,0.5897226333618164
0.5721754074096680,0.5852313995361328
0.5721754074096680,0.5852313995361328
0.5796083450317383,0.5978193283081055
0.5796083450317383,0.5978193283081055
0.5739984512329102,0.5939952850341796
0.5739984512329102,0.5939952850341796
0.5848182678222656,0.6027465820312500
0.5848182678222656,0.6027465820312500
0.5824110031127929,0.6109102249145507
0.5824110031127929,0.6109102249145507
0.5862533569335937,0.6093967437744140
0.5862533569335937,0.6093967437744140
0.5953948974609374,0.6243352890014648
0.5953948974609374,0.6243352890014648
0.5910987854003906,0.6221494674682617
0.5910987854003906,0.6221494674682617
0.6024576187133789,0.6315021514892578
0.6024576187133789,0.6315021514892578
0.6001190185546875,0.6398288726806640
0.6001190185546875,0.6398288726806640
0.6037605285644531,0.6371995925903320
0.6037605285644531,0.6371995925903320
0.6118497848510742,0.6507728576660156
0.6118497848510742,0.6507728576660156
0.6068315505981445,0.6473001480102539
0.6068315505981445,0.6473001480102539
0.6174081802368164,0.6556978225708008
0.6174081802368164,0.6556978225708008
0.6142547607421874,0.6625242233276367
0.6142547607421874,0.6625242233276367
0.6172582626342773,0.6585599899291992
0.6172582626342773,0.6585599899291992
0.6243822097778320,0.6706495285034180
0.6243822097778320,0.6706495285034180
0.6186641693115235,0.6657817840576171
0.6186641693115235,0.6657817840576171
0.6284929275512695,0.6732318878173827
0.6284929275512695,0.6732318878173827
0.6248983383178711,0.6797264099121093
0.6248983383178711,0.6797264099121093
0.6281404495239258,0.6762142181396484
0.6281404495239258,0.6762142181396484
0.6358549118041992,0.6888610839843750
0.6358549118041992,0.6888610839843750
0.6303766250610351,0.6844219207763672
0.6303766250610351,0.6844219207763672
0.6404777526855469,0.6918497085571289
0.6404777526855469,0.6918497085571289
0.6370925903320312,0.6980489730834961
0.6370925903320312,0.6980489730834961
0.6399673461914063,0.6943960189819336
0.6399673461914063,0.6943960189819336
0.6474592208862304,0.7068105697631836
0.6474592208862304,0.7068105697631836
0.6420312881469726,0.7026140213012695
0.6420312881469726,0.7026140213012695
0.6521215438842773,0.7103507995605468
0.6521215438842773,0.7103507995605468
0.6486116409301758,0.7167657852172852
0.6486116409301758,0.7167657852172852
0.6514932632446289,0.7128055572509765
0.6514932632446289,0.7128055572509765
0.6583024978637695,0.7244047164916992
0.6583024978637695,0.7244047164916992
0.6516460418701172,0.7176984786987305
0.6516460418701172,0.7176984786987305
0.6591236114501953,0.7199346542358398
0.6503465652465820,0.7199346542358398
0.6495449066162109,0.7124107360839843
0.6495449066162109,0.7124107360839843
0.6371017456054687,0.6792194366455078
0.6371017456054687,0.6792194366455078
0.6256719589233398,0.6623085021972656
0.6256719589233398,0.6623085021972656
0.6065420150756836,0.6368711471557617
0.6065420150756836,0.6368711471557617
0.6063028335571289,0.6298816680908202
0.6063028335571289,0.6298816680908202
0.5961450576782227,0.6259603500366211
0.5961450576782227,0.6259603500366211
0.5939271926879882,0.6145511627197265
0.5939271926879882,0.6145511627197265
0.5970308303833007,0.6202955245971680
0.5970308303833007,0.6202955245971680
0.5876375198364258,0.6099483489990234
0.5876375198364258,0.6099483489990234
0.5942087173461914,0.6123378753662109
0.5942087173461914,0.6123378753662109
0.5879608154296875,0.6137254714965820
0.5879608154296875,0.6137254714965820
0.5881547927856445,0.6057535171508789
0.5881547927856445,0.6057535171508789
0.5927135467529296,0.6139749526977539
0.5927135467529296,0.6139749526977539
0.5848045349121094,0.6056882858276367
0.5848045349121094,0.6056882858276367
0.5924240112304687,0.6098470687866211
0.5924240112304687,0.6098470687866211
0.5870532989501953,0.6128946304321289
0.5870532989501953,0.6128946304321289
0.5884494781494141,0.6068939208984375
0.5884494781494141,0.6068939208984375
0.5941595077514649,0.6170030593872070
0.5941595077514649,0.6170030593872070
0.5877410888671875,0.6108083724975586
0.5877410888671875,0.6108083724975586
0.5967235565185547,0.6172084808349609
0.5967235565185547,0.6172084808349609
0.5927072525024414,0.6224716186523437
0.5927072525024414,0.6224716186523437
0.5955745697021484,0.6185749053955077
0.5955745697021484,0.6185749053955077
0.6024667739868164,0.6309688568115234
0.6024667739868164,0.6309688568115234
0.5974348068237304,0.6268346786499023
0.5974348068237304,0.6268346786499023
0.6076789855957031,0.6352231979370117
0.6076789855957031,0.6352231979370117
0.6045473098754882,0.6417554855346680
0.6045473098754882,0.6417554855346680
0.6079479217529297,0.6391073226928711
0.6079479217529297,0.6391073226928711
0.6153573989868164,0.6521158218383789
0.6153573989868164,0.6521158218383789
0.6101949691772460,0.6480291366577148
0.6101949691772460,0.6480291366577148
0.6202205657958985,0.6563409805297852
0.6202205657958985,0.6563409805297852
0.6169904708862305,0.6625871658325195
0.6169904708862305,0.6625871658325195
0.6201278686523437,0.6592391967773438
0.6201278686523437,0.6592391967773438
0.6269285202026367,0.6709791183471679
0.6269285202026367,0.6709791183471679
0.6210147857666015,0.6654590606689453
0.6210147857666015,0.6654590606689453
0.6301506042480468,0.6721761703491210
0.6301506042480468,0.6721761703491210
0.6258373260498047,0.6767995834350585
0.6258373260498047,0.6767995834350585
0.6281364440917968,0.6724576950073242
0.6281364440917968,0.6724576950073242
0.6344289779663086,0.6837667465209961
0.6344289779663086,0.6837667465209961
0.6286022186279296,0.6785911560058594
0.6286022186279296,0.6785911560058594
0.6380962371826172,0.6861225128173828
0.6380962371826172,0.6861225128173828
0.6343671798706054,0.6920316696166992
0.6343671798706054,0.6920316696166992
0.6374010086059571,0.6884273529052735
0.6374010086059571,0.6884273529052735
0.6441312789916992,0.7005695343017578
0.6441312789916992,0.7005695343017578
0.6383342742919922,0.6953601837158203
0.6383342742919922,0.6953601837158203
0.6477241516113281,0.7024383544921875
0.6477241516113281,0.7024383544921875
0.6434509277343750,0.7070114135742187
0.6434509277343750,0.7070114135742187
0.6457134246826172,0.7021144866943360
0.6457134246826172,0.7021144866943360
0.6516231536865235,0.7127088546752930
0.6516231536865235,0.7127088546752930
0.6450284957885742,0.7061393737792968
0.6450284957885742,0.7061393737792968
0.6537351608276367,0.7122407913208008
0.6469465255737304,0.7122407913208008
0.6491741180419922,0.7162754058837890
0.6491741180419922,0.7162754058837890
0.6510126113891601,0.7107095718383789
0.6510126113891601,0.7107095718383789
0.6561962127685547,0.7194843292236328
0.6561962127685547,0.7194843292236328
0.6472927093505859,0.7075721740722656
0.6472927093505859,0.7075721740722656
0.6513673782348632,0.7049125671386719
0.6513673782348632,0.7049125671386719
0.6397459030151367,0.6955209732055664
0.6397459030151367,0.6955209732055664
0.6296052932739258,0.6682691574096680
0.6296052932739258,0.6682691574096680
0.6223354339599609,0.6584758758544922
0.6223354339599609,0.6584758758544922
0.6061437606811523,0.6374090194702148
0.6061437606811523,0.6374090194702148
0.6078374862670898,0.6329864501953125
0.6078374862670898,0.6329864501953125
0.6026750564575195,0.6270017623901367
0.6026750564575195,0.6270017623901367
0.6026750564575195,0.6269050598144531
0.5914609909057617,0.6194206237792969
0.5914609909057617,0.6194206237792969
0.5956312179565429,0.6145523071289062
0.5956312179565429,0.6145523071289062
0.5935140609741211,0.6189256668090820
0.5935140609741211,0.6189256668090820
0.5882532119750976,0.6086723327636718
0.5882532119750976,0.6086723327636718
0.5950578689575196,0.6155284881591797
0.5950578689575196,0.6155284881591797
0.5862012863159179,0.6112792968749999
0.5862012863159179,0.6112792968749999
0.5920618057250976,0.6093338012695312
0.5920618057250976,0.6093338012695312
0.5915639877319335,0.6160446166992187
0.5915639877319335,0.6160446166992187
0.5875556945800781,0.6079216003417969
0.5875556945800781,0.6079216003417969
0.5955888748168945,0.6166809082031249
0.5955888748168945,0.6166809082031249
0.5876810073852539,0.6142009735107422
0.5876810073852539,0.6142009735107422
0.5946361541748046,0.6138479232788085
0.5946361541748046,0.6138479232788085
0.5951574325561523,0.6222576141357422
0.5951574325561523,0.6222576141357422
0.5920337677001953,0.6159765243530273
0.5920337677001953,0.6159765243530273
0.6009515762329102,0.6262876510620117
0.6009515762329102,0.6262876510620117
0.5941337585449219,0.6257331848144531
0.5941337585449219,0.6257331848144531
0.6023077011108399,0.6275316238403320
0.6023077011108399,0.6275316238403320
0.6038417816162109,0.6379148483276367
0.6038417816162109,0.6379148483276367
0.6020456314086914,0.6335174560546875
0.6020456314086914,0.6335174560546875
0.6121524810791016,0.6456779479980469
0.6082798004150390,0.6456779479980469
0.6062805175781250,0.6466592788696289
0.6062805175781250,0.6466592788696289
0.6152395248413086,0.6494499206542969
0.6152395248413086,0.6494499206542969
0.6174018859863281,0.6606176376342773
0.6174018859863281,0.6606176376342773
0.6159610748291016,0.6566173553466796
0.6159610748291016,0.6566173553466796
0.6260135650634765,0.6685598373413085
0.6260135650634765,0.6685598373413085
0.6197742462158203,0.6687543869018554
0.6197742462158203,0.6687543869018554
0.6280900955200195,0.6706031799316406
0.6280900955200195,0.6706031799316406
0.6294759750366211,0.6806047439575195
0.6294759750366211,0.6806047439575195
0.6274051666259766,0.6750394821166992
0.6274051666259766,0.6750394821166992
0.6366090774536133,0.6858638763427735
0.6366090774536133,0.6858638763427735
0.6300848007202148,0.6850587844848632
0.6300848007202148,0.6850587844848632
0.6376710891723633,0.6858169555664062
0.6376710891723633,0.6858169555664062
0.6384166717529297,0.6947278976440430
0.6384166717529297,0.6947278976440430
0.6354120254516601,0.6883352279663085
0.6354120254516601,0.6883352279663085
0.6442943572998047,0.6983917236328124
0.6442943572998047,0.6983917236328124
0.6368768692016601,0.6968656539916992
0.6368768692016601,0.6968656539916992
0.6442377090454101,0.6973085403442383
0.6442377090454101,0.6973085403442383
0.6448270797729492,0.7059127807617187
0.6448270797729492,0.7059127807617187
0.6418310165405273,0.6994577407836914
0.6418310165405273,0.6994577407836914
0.6505548477172851,0.7091777801513671
0.6505548477172851,0.7091777801513671
0.6430366516113281,0.7074640274047851
0.6525232315063476,0.7074640274047851
0.6504043579101563,0.7078079223632813
0.6504043579101563,0.7078079223632813
0.6510063171386719,0.7164916992187500
0.6510063171386719,0.7164916992187500
0.6484062194824218,0.7105001449584961
0.6484062194824218,0.7105001449584961
0.6573760986328124,0.7209600448608399
0.6573760986328124,0.7209600448608399
0.6500587463378906,0.7188480377197265
0.6500587463378906,0.7188480377197265
0.6561630249023437,0.7161701202392577
0.6561630249023437,0.7161701202392577
0.6523492813110351,0.7148025512695312
0.6523492813110351,0.7148025512695312
0.6378290176391601,0.6852338790893554
0.6378290176391601,0.6852338790893554
0.6290508270263672,0.6665725708007812
0.6290508270263672,0.6665725708007812
0.6084114074707031,0.6448608398437500
0.6084114074707031,0.6448608398437500
0.6066158294677734,0.6318054199218750
0.6066158294677734,0.6318054199218750
0.6008405685424805,0.6307605743408203
0.6008405685424805,0.6307605743408203
0.5933412551879883,0.6171432495117187
0.5933412551879883,0.6171432495117187
0.5985145568847656,0.6215085983276367
0.5985145568847656,0.6215085983276367
0.5884660720825196,0.6151943206787109
0.5884660720825196,0.6151943206787109
0.5932336807250976,0.6116500854492187
0.5932336807250976,0.6116500854492187
0.5914987564086914,0.6166631698608398
0.5914987564086914,0.6166631698608398
0.5867952346801758,0.6071439743041992
0.5867952346801758,0.6071439743041992
0.5936210632324218,0.6141271591186523
0.5936210632324218,0.6141271591186523
0.5848285675048828,0.6097818374633789
0.5848285675048828,0.6097818374633789
0.5906507492065429,0.6078895568847656
0.5906507492065429,0.6078895568847656
0.5899246215820312,0.6142267227172852
0.5899246215820312,0.6142267227172852
0.5858922958374023,0.6060831069946289
0.5858922958374023,0.6060831069946289
0.5936479568481445,0.6146696090698242
0.5936479568481445,0.6146696090698242
0.5858968734741211,0.6122920989990234
0.5858968734741211,0.6122920989990234
0.5932113647460937,0.6127859115600586
0.5932113647460937,0.6127859115600586
0.5942012786865234,0.6224710464477539
0.5942012786865234,0.6224710464477539
0.5924589157104492,0.6177658081054688
0.5924589157104492,0.6177658081054688
0.6026132583618163,0.6303440093994140
0.6026132583618163,0.6303440093994140
0.5972997665405273,0.6319639205932617
0.5972997665405273,0.6319639205932617
0.6069231033325195,0.6364986419677734
0.6069231033325195,0.6364986419677734
0.6100662231445312,0.6491632461547852
0.6100662231445312,0.6491632461547852
0.6099100112915039,0.6469688415527344
0.6099100112915039,0.6469688415527344
0.6209907531738281,0.6608270645141602
0.6209907531738281,0.6608270645141602
0.6159358978271484,0.6624000549316406
0.6159358978271484,0.6624000549316406
0.6249544143676757,0.6656307220458985
0.6249544143676757,0.6656307220458985
0.6267665863037110,0.6760831832885742
0.6267665863037110,0.6760831832885742
0.6247255325317382,0.6708932876586914
0.6247255325317382,0.6708932876586914
0.6340009689331054,0.6815723419189453
0.6340009689331054,0.6815723419189453
0.6269491195678710,0.6800262451171875
0.6269491195678710,0.6800262451171875
0.6342721939086914,0.6806962966918945
0.6342721939086914,0.6806962966918945
0.6348838806152344,0.6893697738647461
0.6348838806152344,0.6893697738647461
0.6319072723388671,0.6829456329345703
0.6319072723388671,0.6829456329345703
0.6404645919799804,0.6927486419677734
0.6404645919799804,0.6927486419677734
0.6330516815185546,0.6906755447387695
0.6330516815185546,0.6906755447387695
0.6402082443237305,0.6912076950073242
0.6402082443237305,0.6912076950073242
0.6405040740966796,0.6995304107666015
0.6405040740966796,0.6995304107666015
0.6375915527343750,0.6927028656005859
0.6375915527343750,0.6927028656005859
0.6458873748779297,0.7023038864135742
0.6458873748779297,0.7023038864135742
0.6384098052978515,0.6999864578247070
0.6475341796874999,0.6999864578247070
0.6455394744873046,0.7003252029418945
0.6455394744873046,0.7003252029418945
0.6455566406250000,0.7082473754882812
0.6455566406250000,0.7082473754882812
0.6424335479736328,0.7013334274291992
0.6424335479736328,0.7013334274291992
0.6507534027099610,0.7108577728271485
0.6507534027099610,0.7108577728271485
0.6433256149291992,0.7084304809570312
0.6433256149291992,0.7084304809570312
0.6503917694091796,0.7088882446289062
0.6503917694091796,0.7088882446289062
0.6508655548095703,0.7169374465942383
0.6508655548095703,0.7169374465942383
0.6477848052978515,0.7100320816040039
0.6477848052978515,0.7100320816040039
0.6558059692382813,0.7186729431152343
0.6558059692382813,0.7186729431152343
0.6469024658203125,0.7127185821533203
0.6469024658203125,0.7127185821533203
0.6498189926147461,0.7041801452636719
0.6498189926147461,0.7041801452636719
0.6405967712402344,0.6934930801391601
0.6405967712402344,0.6934930801391601
0.6221906661987304,0.6599985122680664
0.6221906661987304,0.6599985122680664
0.6158769607543945,0.6472469329833984
0.6158769607543945,0.6472469329833984
0.5983457565307617,0.6296304702758789
0.5983457565307617,0.6296304702758789
0.5979961395263672,0.6187311172485351
0.5979961395263672,0.6187311172485351
0.5925870895385742,0.6184484481811523
0.5925870895385742,0.6184484481811523
0.5854722976684570,0.6105503082275391
0.5915616989135742,0.6100187301635742
0.5908727645874023,0.6100187301635742
0.5882211685180664,0.6086900711059570
0.5864067077636719,0.6016765594482422
0.5876684188842773,0.6044729232788085
0.5813615798950195,0.5994215011596680
0.5803688049316406,0.6012611389160156
0.5812482833862305,0.6047384262084960
0.5880695343017578,0.6124368667602539
0.5914958953857422,0.6124368667602539
0.5852365493774414,0.6061277389526367
0.5852365493774414,0.6061277389526367
0.5938962936401367,0.6161630630493163
0.5938962936401367,0.6161630630493163
0.5872381210327148,0.6149087905883789
0.5872381210327148,0.6149087905883789
0.5950412750244141,0.6168130874633789
0.5950412750244141,0.6168130874633789
0.5963441848754882,0.6264209747314453
0.5963441848754882,0.6264209747314453
0.5947328567504883,0.6219966888427734
0.5947328567504883,0.6219966888427734
0.6046091079711914,0.6339420318603516
0.6046091079711914,0.6339420318603516
0.5989042282104492,0.6342264175415039
0.5989042282104492,0.6342264175415039
0.6074157714843750,0.6373895645141602
0.6074157714843750,0.6373895645141602
0.6090963363647460,0.6480033874511718
0.6090963363647460,0.6480033874511718
0.6077527999877930,0.6436397552490234
0.6077527999877930,0.6436397552490234
0.6175065994262695,0.6552898406982421
0.6175065994262695,0.6552898406982421
0.6115282058715820,0.6551530838012695
0.6115282058715820,0.6551530838012695
0.6194618225097656,0.6572576522827148
0.6194618225097656,0.6572576522827148
0.6207538604736328,0.6670663833618163
0.6207538604736328,0.6670663833618163
0.6189519882202148,0.6620927810668945
0.6189519882202148,0.6620927810668945
0.6282297134399414,0.6733308792114258
0.6282297134399414,0.6733308792114258
0.6219760894775390,0.6725280761718749
0.6219760894775390,0.6725280761718749
0.6296716690063476,0.6743453979492188
0.6296716690063476,0.6743453979492188
0.6308046340942383,0.6838943481445312
0.6308046340942383,0.6838943481445312
0.6289192199707031,0.6785648345947265
0.6289192199707031,0.6785648345947265
0.6380710601806641,0.6895196914672851
0.6380710601806641,0.6895196914672851
0.6316686630249023,0.6884559631347656
0.6316686630249023,0.6884559631347656
0.6392189025878906,0.6899499893188477
0.6392189025878906,0.6899499893188477
0.6402254104614258,0.6988563537597656
0.6402254104614258,0.6988563537597656
0.6376859664916992,0.6931766510009766
0.6376859664916992,0.6931766510009766
0.6464086532592773,0.7030523300170898
0.6464086532592773,0.7030523300170898
0.6393058776855468,0.7008287429809570
0.6393058776855468,0.7008287429809570
0.6460252761840820,0.7011074066162110
0.6460252761840820,0.7011074066162110
0.6462009429931640,0.7088024139404296
0.6494836807250977,0.7088024139404296
0.6430000305175781,0.7019371032714844
0.6430000305175781,0.7019371032714844
0.6463468551635742,0.7045251846313476
0.6463468551635742,0.7045251846313476
0.6512311935424805,0.7139837265014648
0.6512311935424805,0.7139837265014648
0.6443326950073242,0.7064546585083008
0.6443326950073242,0.7064546585083008
0.6519710540771484,0.7118036270141601
0.6519710540771484,0.7118036270141601
0.6463514328002929,0.7127283096313476
0.6463514328002929,0.7127283096313476
0.6457660675048827,0.7027147293090820
0.6457660675048827,0.7027147293090820
0.6457071304321289,0.7022363662719726
0.6457071304321289,0.7022363662719726
0.6291807174682617,0.6753868103027344
0.6291807174682617,0.6753868103027344
0.6223108291625976,0.6563976287841796
0.6223108291625976,0.6563976287841796
0.6049449920654296,0.6402894973754882
0.6049449920654296,0.6402894973754882
0.5981420516967774,0.6221929550170898
0.5981420516967774,0.6221929550170898
0.5969295501708984,0.6223783493041992
0.5969295501708984,0.6223783493041992
0.5859729766845703,0.6086030960083008
0.5859729766845703,0.6086030960083008
0.5909099578857422,0.6099369049072265
0.5909099578857422,0.6099369049072265
0.5838655471801758,0.6088823318481446
0.5838655471801758,0.6088823318481446
0.5839233398437500,0.6009149551391602
0.5839233398437500,0.6009149551391602
0.5873039245605468,0.6078283309936523
0.5873039245605468,0.6078283309936523
0.5794189453124999,0.5988544464111328
0.5794189453124999,0.5988544464111328
0.5799860000610352,0.6037107467651367
0.5799860000610352,0.6037107467651367
0.5818250656127929,0.6058948516845702
0.5889856338500976,0.6058948516845702
0.5837528228759765,0.6011581420898438
0.5837528228759765,0.6011581420898438
0.5889627456665039,0.6109926223754882
0.5889627456665039,0.6109926223754882
0.5830472946166992,0.6046606063842773
0.5830472946166992,0.6046606063842773
0.5918254852294922,0.6116048812866210
0.5918254852294922,0.6116048812866210
0.5877124786376953,0.6157934188842773
0.5877124786376953,0.6157934188842773
0.5908452987670898,0.6125278472900391
0.5908452987670898,0.6125278472900391
0.5967390060424804,0.6239152908325195
0.5967390060424804,0.6239152908325195
0.5915582656860351,0.6191694259643554
0.5915582656860351,0.6191694259643554
0.6015117645263671,0.6283258438110352
0.6015117645263671,0.6283258438110352
0.5987503051757812,0.6343568801879883
0.5987503051757812,0.6343568801879883
0.6030103683471679,0.6332811355590821
0.6030103683471679,0.6332811355590821
0.6101016998291016,0.6465339660644531
0.6101016998291016,0.6465339660644531
0.6058759689331055,0.6433118820190430
0.6058759689331055,0.6433118820190430
0.6165853500366211,0.6538398742675781
0.6165853500366211,0.6538398742675781
0.6145580291748046,0.6607612609863281
0.6145580291748046,0.6607612609863281
0.6191007614135742,0.6601123809814453
0.6191007614135742,0.6601123809814453
0.6263826370239257,0.6735368728637695
0.6263826370239257,0.6735368728637695
0.6219789505004882,0.6700836181640625
0.6219789505004882,0.6700836181640625
0.6323369979858399,0.6797149658203124
0.6323369979858399,0.6797149658203124
0.6295354843139648,0.6854410171508789
0.6295354843139648,0.6854410171508789
0.6331678390502929,0.6833868026733398
0.6331678390502929,0.6833868026733398
0.6395112991333007,0.6949939727783203
0.6395112991333007,0.6949939727783203
0.6341022491455078,0.6899116516113281
0.6341022491455078,0.6899116516113281
0.6435110092163085,0.6981405258178711
0.6435110092163085,0.6981405258178711
0.6399084091186523,0.7025693893432617
0.6399084091186523,0.7025693893432617
0.6430749893188477,0.6994726181030273
0.6430749893188477,0.6994726181030273
0.6484811782836913,0.7098890304565429
0.6484811782836913,0.7098890304565429
0.6424684524536133,0.7032674789428711
0.6424684524536133,0.7032674789428711
0.6508867263793945,0.7098318099975586
0.6446050643920899,0.7098318099975586
0.6464292526245117,0.7128307342529296
0.6464292526245117,0.7128307342529296
0.6485681533813477,0.7079698562622070
0.6485681533813477,0.7079698562622070
0.6533569335937500,0.7171983718872070
0.6524900436401367,0.7171983718872070
0.6465797424316406,0.7097042083740234
0.6465797424316406,0.7097042083740234
0.6546621322631836,0.7158903121948242
0.6546621322631836,0.7158903121948242
0.6500701904296875,0.7186311721801758
0.6500701904296875,0.7186311721801758
0.6523160934448242,0.7142286300659180
0.6523160934448242,0.7142286300659180
0.6571929931640624,0.7238485336303710
0.6571929931640624,0.7238485336303710
0.6508369445800781,0.7170495986938477
0.6508369445800781,0.7170495986938477
0.6586675643920898,0.7218950271606445
0.6586675643920898,0.7218950271606445
0.6516328811645508,0.7191925048828125
0.6516328811645508,0.7191925048828125
0.6490339279174805,0.7051202774047851
0.6490339279174805,0.7051202774047851
0.6442943572998047,0.6949527740478515
0.6442943572998047,0.6949527740478515
0.6219532012939453,0.6613294601440429
0.6219532012939453,0.6613294601440429
0.6172348022460937,0.6484228134155273
0.6172348022460937,0.6484228134155273
0.6038967132568359,0.6379508972167969
0.6038967132568359,0.6379508972167969
0.6001934051513672,0.6242094039916992
0.6001934051513672,0.6242094039916992
0.6005630493164062,0.6269273757934570
0.6005630493164062,0.6269273757934570
0.5907022476196289,0.6146255493164062
0.5907022476196289,0.6146255493164062
0.5964574813842773,0.6170368194580078
0.5964574813842773,0.6170368194580078
0.5897249221801758,0.6164943695068359
0.5897249221801758,0.6164943695068359
0.5903171539306641,0.6092697143554687
0.5903171539306641,0.6092697143554687
0.5937108993530273,0.6166271209716797
0.5937108993530273,0.6166271209716797
0.5860622406005859,0.6077281951904296
0.5860622406005859,0.6077281951904296
0.5932897567749024,0.6126165390014648
0.5932897567749024,0.6126165390014648
0.5877628326416016,0.6140047073364258
0.5877628326416016,0.6140047073364258
0.5892328262329102,0.6086196899414062
0.5892328262329102,0.6086196899414062
0.5935935974121094,0.6172439575195312
0.5935935974121094,0.6172439575195312
0.5867053985595703,0.6095872879028320
0.5867053985595703,0.6095872879028320
0.5948804855346680,0.6157739639282226
0.5948804855346680,0.6157739639282226
0.5903091430664062,0.6186332702636719
0.5903091430664062,0.6186332702636719
0.5928588867187500,0.6147731781005860
0.5928588867187500,0.6147731781005860
0.5981609344482421,0.6253595352172852
0.5981609344482421,0.6253595352172852
0.5926614761352539,0.6198532104492187
0.5926614761352539,0.6198532104492187
0.6025045394897460,0.6287361145019531
0.6025045394897460,0.6287361145019531
0.5994810104370117,0.6343008041381836
0.5994810104370117,0.6343008041381836
0.6038789749145508,0.6332302093505859
0.6038789749145508,0.6332302093505859
0.6107517242431640,0.6459354400634766
0.6107517242431640,0.6459354400634766
0.6063034057617187,0.6425302505493163
0.6063034057617187,0.6425302505493163
0.6168205261230468,0.6525867462158202
0.6168205261230468,0.6525867462158202
0.6143308639526367,0.6589530944824219
0.6143308639526367,0.6589530944824219
0.6187334060668945,0.6578126907348633
0.6187334060668945,0.6578126907348633
0.6253435134887695,0.6702152252197265
0.6253435134887695,0.6702152252197265
0.6204214096069336,0.6656799316406250
0.6204214096069336,0.6656799316406250
0.6299983978271484,0.6746057510375977
0.6299983978271484,0.6746057510375977
0.6264953613281250,0.6792177200317383
0.6264953613281250,0.6792177200317383
0.6299560546874999,0.6763767242431641
0.6299560546874999,0.6763767242431641
0.6353702545166016,0.6870815277099609
0.6353702545166016,0.6870815277099609
0.6295537948608398,0.6811168670654296
0.6295537948608398,0.6811168670654296
0.6387090682983398,0.6890567779541016
0.6387090682983398,0.6890567779541016
0.6347797393798827,0.6931228637695312
0.6347797393798827,0.6931228637695312
0.6379320144653320,0.6902355194091797
0.6379320144653320,0.6902355194091797
0.6430778503417969,0.7012847900390625
0.6378547668457031,0.6957212448120117
0.6378547668457031,0.6957212448120117
0.6474597930908202,0.7042676925659179
0.6474597930908202,0.7042676925659179
0.6437696456909180,0.7086130142211914
0.6437696456909180,0.7086130142211914
0.6472040176391601,0.7060317993164062
0.6472040176391601,0.7060317993164062
0.6528219223022461,0.7170890808105469
0.6528219223022461,0.7170890808105469
0.6470746994018555,0.7112766265869140
0.6470746994018555,0.7112766265869140
0.6562889099121093,0.7192039489746094
0.6562889099121093,0.7192039489746094
0.6519865036010742,0.7226314544677734
0.6519865036010742,0.7226314544677734
0.6546175003051757,0.7184057235717773
0.6546175003051757,0.7184057235717773
0.6591024398803711,0.7274728775024414
0.6591024398803711,0.7274728775024414
0.6518783569335938,0.7183874130249023
0.6518783569335938,0.7183874130249023
0.6573806762695312,0.7179862976074218
0.6573806762695312,0.7179862976074218
0.6436426162719726,0.7029190063476562
0.6436426162719726,0.7029190063476562
0.6315313339233398,0.6720354080200195
0.6315313339233398,0.6720354080200195
0.6200443267822265,0.6561332702636719
0.6200443267822265,0.6561332702636719
0.6015953063964844,0.6308801651000976
0.6015953063964844,0.6308801651000976
0.6013275146484375,0.6246196746826171
0.6013275146484375,0.6246196746826171
0.5902708053588867,0.6175741195678711
0.5902708053588867,0.6175741195678711
0.5876152038574218,0.6056882858276367
0.5876152038574218,0.6056882858276367
0.5884300231933594,0.6092657089233399
0.5884300231933594,0.6092657089233399
0.5786430358886718,0.5970966339111328
0.5786430358886718,0.5970966339111328
0.5846529006958008,0.6000045776367188
0.5846529006958008,0.6000045776367188
0.5778316497802735,0.5994569778442382
0.5778316497802735,0.5994569778442382
0.5786962509155273,0.5927656173706054
0.5786962509155273,0.5927656173706054
0.5823062896728516,0.6002620697021485
0.5823062896728516,0.6002620697021485
0.5748687744140625,0.5915645599365235
0.5748687744140625,0.5915645599365235
0.5826828002929687,0.5972105026245117
0.5826828002929687,0.5972105026245117
0.5774002075195312,0.5992103576660156
0.5774002075195312,0.5992103576660156
0.5796489715576172,0.5945680618286132
0.5796489715576172,0.5945680618286132
0.5844417572021484,0.6042331695556641
0.5844417572021484,0.6042331695556641
0.5784152984619141,0.5976888656616210
0.5784152984619141,0.5976888656616210
0.5876358032226562,0.6057586669921875
0.5876358032226562,0.6057586669921875
0.5839536666870117,0.6100851058959961
0.5839536666870117,0.6100851058959961
0.5877399444580078,0.6079965591430664
0.5877399444580078,0.6079965591430664
0.5942625045776367,0.6204963684082031
0.5942625045776367,0.6204963684082031
0.5899606704711914,0.6170465469360351
0.5899606704711914,0.6170465469360351
0.6006362915039062,0.6276695251464843
0.6006362915039062,0.6276695251464843
0.5981346130371094,0.6340215682983398
0.5981346130371094,0.6340215682983398
0.6027711868286133,0.6330207824707031
0.6027711868286133,0.6330207824707031
0.6090373992919922,0.6450096130371094
0.6090373992919922,0.6450096130371094
0.6036872863769531,0.6396532058715820
0.6036872863769531,0.6396532058715820
0.6130577087402344,0.6479879379272461
0.6130577087402344,0.6479879379272461
0.6091775894165039,0.6519424438476562
0.6091775894165039,0.6519424438476562
0.6124935150146484,0.6490242004394531
0.6124935150146484,0.6490242004394531
0.6181114196777343,0.6599092483520508
0.6181114196777343,0.6599092483520508
0.6123510360717773,0.6539783477783203
0.6123510360717773,0.6539783477783203
0.6217941284179688,0.6622226715087890
0.6217941284179688,0.6622226715087890
0.6252038955688476,0.6688608169555664
0.6214794158935547,0.6688608169555664
0.6187299728393555,0.6673690795898437
0.6280294418334961,0.6673690795898437
0.6268781661987305,0.6699033737182617
0.6212991714477539,0.6699033737182617
0.6274623870849609,0.6788635253906250
0.6274623870849609,0.6788635253906250
0.6257812500000000,0.6738504409790039
0.6257812500000000,0.6738504409790039
0.6349994659423828,0.6848545074462891
0.6349994659423828,0.6848545074462891
0.6284877777099609,0.6834554672241211
0.6284877777099609,0.6834554672241211
0.6366920471191406,0.6859148025512695
0.6366920471191406,0.6859148025512695
0.6372402191162109,0.6950477600097656
0.6372402191162109,0.6950477600097656
0.6356128692626953,0.6897663116455078
0.6356128692626953,0.6897663116455078
0.6446582794189453,0.7004928588867188
0.6446582794189453,0.7004928588867188
0.6381546020507812,0.6987613677978516
0.6381546020507812,0.6987613677978516
0.6461151123046874,0.7009288787841796
0.6461151123046874,0.7009288787841796
0.6462186813354492,0.7094598770141601
0.6462186813354492,0.7094598770141601
0.6441141128540039,0.7034729003906249
0.6441141128540039,0.7034729003906249
0.6525186538696289,0.7132730484008789
0.6525186538696289,0.7132730484008789
0.6445507049560547,0.7083738327026367
0.6445507049560547,0.7083738327026367
0.6489543914794922,0.7033109664916992
0.6489543914794922,0.7033109664916992
0.6423185348510742,0.6976661682128906
0.6423185348510742,0.6976661682128906
0.6260662078857422,0.6656564712524414
0.6260662078857422,0.6656564712524414
0.6186962127685547,0.6510366439819336
0.6186962127685547,0.6510366439819336
0.6003335952758789,0.6317876815795899
0.6003335952758789,0.6317876815795899
0.6003049850463867,0.6220109939575195
0.6003049850463867,0.6220109939575195
0.5947122573852539,0.6219091415405273
0.5947122573852539,0.6219091415405273
0.5884380340576172,0.6097246170043945
0.5884380340576172,0.6097246170043945
0.5939638137817382,0.6149408340454101
0.5939638137817382,0.6149408340454101
0.5842655181884765,0.6081933975219727
0.5842655181884765,0.6081933975219727
0.5896842956542968,0.6063137054443359
0.5896842956542968,0.6063137054443359
0.5875362396240235,0.6113611221313476
0.5875362396240235,0.6113611221313476
0.5836423873901367,0.6023340225219727
0.5836423873901367,0.6023340225219727
0.5906393051147460,0.6100690841674804
0.5906393051147460,0.6100690841674804
0.5820877075195312,0.6051063537597656
0.5820877075195312,0.6051063537597656
0.5886869430541992,0.6049764633178710
0.5886869430541992,0.6049764633178710
0.5876260757446289,0.6114887237548828
0.5876260757446289,0.6114887237548828
0.5845596313476562,0.6040500640869141
0.5845596313476562,0.6040500640869141
0.5928091049194336,0.6135578155517578
0.5928091049194336,0.6135578155517578
0.5856445312499999,0.6108564376831055
0.5856445312499999,0.6108564376831055
0.5934906005859375,0.6128614425659179
0.5934906005859375,0.6128614425659179
0.5939569473266602,0.6216962814331054
0.5939569473266602,0.6216962814331054
0.5923810958862304,0.6166563034057617
0.5923810958862304,0.6166563034057617
0.6019083023071289,0.6280305862426757
0.6019083023071289,0.6280305862426757
0.5954669952392578,0.6268278121948242
0.5954669952392578,0.6268278121948242
0.6041095733642577,0.6298439025878906
0.6041095733642577,0.6298439025878906
0.6048643112182617,0.6395708084106445
0.6048643112182617,0.6395708084106445
0.6034996032714843,0.6347528457641601
0.6034996032714843,0.6347528457641601
0.6128826141357422,0.6457271575927734
0.6128826141357422,0.6457271575927734
0.6060047149658203,0.6434675216674804
0.6060047149658203,0.6434675216674804
0.6136465072631836,0.6448419570922851
0.6136465072631836,0.6448419570922851
0.6133563995361327,0.6524379730224609
0.6133563995361327,0.6524379730224609
0.6107448577880860,0.6453718185424805
0.6107448577880860,0.6453718185424805
0.6187213897705078,0.6544801712036132
0.6187213897705078,0.6544801712036132
0.6109525680541992,0.6505405426025390
0.6109525680541992,0.6505405426025390
0.6179883956909179,0.6511024475097656
0.6179883956909179,0.6511024475097656
0.6175884246826172,0.6584856033325195
0.6175884246826172,0.6584856033325195
0.6150032043457031,0.6517919540405274
0.6150032043457031,0.6517919540405274
0.6234792709350586,0.6617992401123046
0.6195613861083984,0.6617992401123046
0.6165229797363281,0.6594881057739258
0.6165229797363281,0.6594881057739258
0.6245561599731445,0.6618638992309570
0.6245561599731445,0.6618638992309570
0.6252061843872070,0.6711805343627929
0.6252061843872070,0.6711805343627929
0.6237413406372070,0.6665010452270508
0.6237413406372070,0.6665010452270508
0.6333406448364257,0.6782752990722656
0.6333406448364257,0.6782752990722656
0.6271001815795898,0.6775743484497070
0.6271001815795898,0.6775743484497070
0.6359951019287109,0.6813051223754882
0.6359951019287109,0.6813051223754882
0.6369174957275391,0.6910554885864257
0.6369174957275391,0.6910554885864257
0.6355167388916015,0.6863004684448242
0.6355167388916015,0.6863004684448242
0.6447944641113281,0.6973583221435546
0.6447944641113281,0.6973583221435546
0.6380184173583984,0.6956748962402344
0.6380184173583984,0.6956748962402344
0.6460899353027344,0.6981370925903320
0.6460899353027344,0.6981370925903320
0.6462862014770507,0.7068099975585938
0.6462862014770507,0.7068099975585938
0.6442279815673828,0.7007583618164063
0.6442279815673828,0.7007583618164063
0.6521427154541015,0.7088144302368163
0.6521427154541015,0.7088144302368163
0.6416702270507812,0.6992151260375976
0.6416702270507812,0.6992151260375976
0.6437673568725586,0.6907596588134766
0.6437673568725586,0.6907596588134766
0.6370279312133789,0.6873853683471679
0.6370279312133789,0.6873853683471679
0.6270383834838867,0.6670274734497070
0.6270383834838867,0.6670274734497070
0.6256502151489257,0.6606473922729492
0.6256502151489257,0.6606473922729492
0.6096158981323242,0.6445758819580077
0.6096158981323242,0.6445758819580077
0.6106607437133789,0.6361850738525391
0.6106607437133789,0.6361850738525391
0.6054731369018554,0.6366926193237304
0.6054731369018554,0.6366926193237304
0.5993488311767577,0.6242723464965820
0.5993488311767577,0.6242723464965820
0.6045982360839843,0.6293369293212890
0.6045982360839843,0.6293369293212890
0.5947025299072265,0.6225357055664062
0.5947025299072265,0.6225357055664062
0.6002620697021485,0.6206777572631835
0.6002620697021485,0.6206777572631835
0.5980859756469726,0.6256324768066406
0.5980859756469726,0.6256324768066406
0.5940948486328125,0.6165424346923828
0.5940948486328125,0.6165424346923828
0.6009675979614257,0.6238431930541992
0.6009675979614257,0.6238431930541992
0.5922334671020507,0.6187820434570312
0.5922334671020507,0.6187820434570312
0.5986289978027344,0.6181886672973632
0.5986289978027344,0.6181886672973632
0.5971887588500976,0.6246110916137695
0.5971887588500976,0.6246110916137695
0.5939174652099609,0.6166099548339844
0.5939174652099609,0.6166099548339844
0.6015941619873046,0.6251203536987304
0.6015941619873046,0.6251203536987304
0.5935747146606445,0.6212699890136718
0.5935747146606445,0.6212699890136718
0.6006088256835938,0.6221117019653321
0.6006088256835938,0.6221117019653321
0.6001682281494141,0.6297780990600585
0.6001682281494141,0.6297780990600585
0.5979177474975585,0.6233041763305663
0.5979177474975585,0.6233041763305663
0.6065156936645507,0.6336450576782227
0.6065156936645507,0.6336450576782227
0.5994403839111327,0.6313488006591796
0.5994403839111327,0.6313488006591796
0.6074775695800781,0.6336067199707031
0.6074775695800781,0.6336067199707031
0.6077608108520508,0.6423957824707031
0.6077608108520508,0.6423957824707031
0.6059640884399414,0.6366886138916016
0.6059640884399414,0.6366886138916016
0.6148040771484374,0.6471250534057617
0.6148040771484374,0.6471250534057617
0.6077058792114257,0.6444952011108398
0.6077058792114257,0.6444952011108398
0.6153116226196289,0.6462238311767577
0.6153116226196289,0.6462238311767577
0.6154054641723633,0.6545408248901367
0.6154054641723633,0.6545408248901367
0.6133621215820312,0.6486001968383789
0.6133621215820312,0.6486001968383789
0.6223285675048827,0.6590051651000977
0.6223285675048827,0.6590051651000977
0.6153041839599609,0.6569807052612304
0.6153041839599609,0.6569807052612304
0.6234094619750976,0.6593147277832031
0.6234094619750976,0.6593147277832031
0.6238323211669922,0.6684471130371094
0.6238323211669922,0.6684471130371094
0.6223371505737304,0.6633333206176758
0.6223371505737304,0.6633333206176758
0.6315027236938476,0.6742040634155273
0.6315027236938476,0.6742040634155273
0.6248359680175781,0.6723009109497070
0.6248359680175781,0.6723009109497070
0.6329401016235351,0.6748025894165038
0.6329401016235351,0.6748025894165038
0.6333492279052734,0.6838823318481445
0.6333492279052734,0.6838823318481445
0.6317012786865234,0.6787485122680664
0.6317012786865234,0.6787485122680664
0.6408771514892578,0.6898412704467773
0.6408771514892578,0.6898412704467773
0.6346401214599610,0.6886465072631835
0.6346401214599610,0.6886465072631835
0.6430206298828125,0.6917089462280274
0.6430206298828125,0.6917089462280274
0.6436952590942383,0.7010976791381835
0.6436952590942383,0.7010976791381835
0.6425365447998047,0.6965326309204102
0.6425365447998047,0.6965326309204102
0.6519241333007812,0.7081581115722656
0.6519241333007812,0.7081581115722656
0.6455606460571289,0.7066898345947266
0.6455606460571289,0.7066898345947266
0.6538370132446288,0.7096361160278321
0.6538370132446288,0.7096361160278321
0.6541969299316406,0.7184228897094727
0.6541969299316406,0.7184228897094727
0.6523870468139649,0.7130596160888671
0.6523870468139649,0.7130596160888671
0.6602537155151367,0.7203111648559570
0.6602537155151367,0.7203111648559570
0.6485298156738281,0.7087011337280273
0.6485298156738281,0.7087011337280273
0.6497720718383789,0.6990520477294921
0.6497720718383789,0.6990520477294921
0.6417703628540039,0.6928230285644531
0.6417703628540039,0.6928230285644531
0.6293581008911132,0.6695205688476562
0.6293581008911132,0.6695205688476562
0.6285564422607421,0.6652725219726562
0.6285564422607421,0.6652725219726562
0.6145591735839844,0.6521781921386719
0.6145591735839844,0.6521781921386719
0.6170534133911133,0.6459560394287109
0.6170534133911133,0.6459560394287109
0.6129369735717773,0.6479450225830078
0.6129369735717773,0.6479450225830078
0.6075262069702149,0.6366903305053710
0.6075262069702149,0.6366903305053710
0.6134485244750977,0.6424993515014649
0.6134485244750977,0.6424993515014649
0.6039379119873046,0.6362600326538086
0.6119894027709961,0.6362600326538086
0.6096147537231446,0.6348987579345703
0.6096147537231446,0.6348987579345703
0.6077848434448242,0.6402637481689453
0.6077848434448242,0.6402637481689453
0.6041559219360352,0.6319181442260742
0.6041559219360352,0.6319181442260742
0.6115539550781249,0.6402563095092774
0.6115539550781249,0.6402563095092774
0.6035322189331055,0.6361650466918946
0.6035322189331055,0.6361650466918946
0.6106178283691406,0.6369318008422852
0.6106178283691406,0.6369318008422852
0.6099821090698242,0.6443624496459961
0.6099821090698242,0.6443624496459961
0.6077133178710937,0.6383159637451171
0.6077133178710937,0.6383159637451171
0.6167919158935546,0.6490350723266601
0.6167919158935546,0.6490350723266601
0.6103214263916016,0.6472274780273437
0.6103214263916016,0.6472274780273437
0.6187414169311524,0.6504020690917969
0.6187414169311524,0.6504020690917969
0.6193593978881836,0.6598875045776367
0.6193593978881836,0.6598875045776367
0.6181989669799804,0.6558357238769531
0.6181989669799804,0.6558357238769531
0.6244571685791015,0.6630718231201171
0.6210227966308594,0.6630718231201171
0.6308721542358399,0.6757530212402344
0.6308721542358399,0.6757530212402344
0.6256364822387696,0.6708097457885742
0.6256364822387696,0.6708097457885742
0.6361032485961914,0.6806493759155273
0.6361032485961914,0.6806493759155273
0.6322448730468749,0.6851257324218750
0.6322448730468749,0.6851257324218750
0.6363876342773437,0.6828575134277344
0.6363876342773437,0.6828575134277344
0.6417663574218749,0.6938404083251953
0.6417663574218749,0.6938404083251953
0.6357198715209961,0.6872297286987304
0.6408496856689453,0.6872297286987304
0.6449460983276367,0.6953149795532226
0.6449460983276367,0.6953149795532226
0.6402391433715821,0.6988220214843750
0.6402391433715821,0.6988220214843750
0.6438091278076171,0.6956405639648438
0.6438091278076171,0.6956405639648438
0.6493000030517578,0.7067155838012695
0.6493000030517578,0.7067155838012695
0.6433799743652343,0.7006702423095703
0.6433799743652343,0.7006702423095703
0.6533226013183594,0.7098363876342774
0.6533226013183594,0.7098363876342774
0.6490900039672851,0.7141502380371093
0.6490900039672851,0.7141502380371093
0.6532487869262695,0.7120090484619140
0.6532487869262695,0.7120090484619140
0.6590503692626953,0.7234022140502929
0.6590503692626953,0.7234022140502929
0.6531463623046875,0.7173002243041992
0.6531463623046875,0.7173002243041992
0.6626724243164063,0.7256086349487304
0.6626724243164063,0.7256086349487304
0.6578927993774414,0.7286396026611328
0.6578927993774414,0.7286396026611328
0.6612745285034179,0.7249494552612304
0.6612745285034179,0.7249494552612304
0.6661502838134765,0.7348989486694336
0.6661502838134765,0.7348989486694336
0.6595756530761718,0.7274351119995117
0.6595756530761718,0.7274351119995117
0.6686010360717773,0.7346162796020508
0.6686010360717773,0.7346162796020508
0.6633287429809570,0.7370395660400391
0.6633287429809570,0.7370395660400391
0.6661096572875976,0.7320070266723633
0.6661096572875976,0.7320070266723633
0.6692413330078125,0.7381267547607422
0.6692413330078125,0.7381267547607422
0.6580776214599610,0.7206813812255859
0.6580776214599610,0.7206813812255859
0.6563873291015625,0.7070966720581054
0.6563873291015625,0.7070966720581054
0.6356082916259765,0.6837289810180663
0.6356082916259765,0.6837289810180663
0.6258991241455077,0.6602617263793945
0.6258991241455077,0.6602617263793945
0.6217758178710937,0.6569458007812500
0.6217758178710937,0.6569458007812500
0.6090625762939453,0.6401132583618164
0.6090625762939453,0.6401132583618164
0.6134410858154297,0.6404960632324218
0.6134410858154297,0.6404960632324218
0.6047195434570313,0.6373460769653320
0.6047195434570313,0.6373460769653320
0.6047206878662109,0.6288757324218750
0.6047206878662109,0.6288757324218750
0.6071027755737305,0.6345806121826172
0.6071027755737305,0.6345806121826172
0.5984041213989257,0.6239404678344727
0.5984041213989257,0.6239404678344727
0.6056001663208007,0.6285369873046874
0.6056001663208007,0.6285369873046874
0.5991537094116210,0.6288860321044921
0.5991537094116210,0.6288860321044921
0.6010488510131836,0.6232006072998046
0.6010488510131836,0.6232006072998046
0.6047698974609375,0.6313339233398437
0.6047698974609375,0.6313339233398437
0.5974388122558594,0.6227165222167969
0.5974388122558594,0.6227165222167969
0.6056911468505859,0.6291543960571289
0.6056911468505859,0.6291543960571289
0.6002117156982422,0.6309625625610351
0.6002117156982422,0.6309625625610351
0.6028913497924805,0.6268947601318359
0.6028913497924805,0.6268947601318359
0.6076492309570313,0.6365226745605469
0.6076492309570313,0.6365226745605469
0.6012920379638672,0.6296607971191406
0.6012920379638672,0.6296607971191406
0.6107122421264648,0.6379703521728516
0.6107122421264648,0.6379703521728516
0.6063571929931640,0.6418052673339844
0.6063571929931640,0.6418052673339844
0.6103042602539063,0.6393373489379882
0.6103042602539063,0.6393373489379882
0.6159061431884766,0.6507368087768555
0.6159061431884766,0.6507368087768555
0.6103872299194336,0.6452516555786133
0.6103872299194336,0.6452516555786133
0.6204042434692383,0.6543588638305664
0.6204042434692383,0.6543588638305664
0.6165739059448242,0.6586212158203125
0.6165739059448242,0.6586212158203125
0.6205478668212890,0.6564485549926757
0.6205478668212890,0.6564485549926757
0.6261812210083008,0.6675109863281250
0.6261812210083008,0.6675109863281250
0.6205072402954102,0.6616653442382813
0.6258974075317383,0.6616653442382813
0.6301929473876953,0.6705076217651367
0.6301929473876953,0.6705076217651367
0.6262830734252930,0.6744363784790038
0.6262830734252930,0.6744363784790038
0.6300172805786133,0.6718362808227539
0.6300172805786133,0.6718362808227539
0.6355745315551757,0.6830102920532226
0.6355745315551757,0.6830102920532226
0.6299348831176758,0.6772676467895508
0.6299348831176758,0.6772676467895508
0.6396486282348632,0.6861265182495117
0.6396486282348632,0.6861265182495117
0.6356786727905274,0.6904329299926758
0.6356786727905274,0.6904329299926758
0.6395965576171875,0.6883117675781250
0.6395965576171875,0.6883117675781250
0.6452510833740234,0.6995653152465821
0.6456922531127930,0.6995653152465821
0.6397092819213867,0.6939302444458008
0.6397092819213867,0.6939302444458008
0.6496685028076171,0.7030946731567382
0.6496685028076171,0.7030946731567382
0.6457883834838867,0.7076808929443359
0.6457883834838867,0.7076808929443359
0.6500415802001953,0.7058378219604492
0.6500415802001953,0.7058378219604492
0.6555725097656250,0.7168533325195312
0.6555725097656250,0.7168533325195312
0.6498355865478516,0.7105934143066406
0.6498355865478516,0.7105934143066406
0.6589776992797851,0.7188829421997071
0.6589776992797851,0.7188829421997071
0.6544240951538086,0.7218372344970703
0.6544240951538086,0.7218372344970703
0.6577188491821289,0.7183879852294922
0.6577188491821289,0.7183879852294922
0.6625614166259766,0.7285795211791992
0.6625614166259766,0.7285795211791992
0.6562585830688477,0.7218320846557617
0.6562585830688477,0.7218320846557617
0.6651969909667969,0.7292072296142578
0.6651969909667969,0.7292072296142578
0.6596906661987304,0.7302240371704102
0.6596906661987304,0.7302240371704102
0.6603361129760742,0.7212146759033203
0.6603361129760742,0.7212146759033203
0.6601112365722656,0.7211156845092773
0.6601112365722656,0.7211156845092773
0.6451606750488281,0.6976650238037109
0.6451606750488281,0.6976650238037109
0.6400337219238281,0.6804599761962891
0.6400337219238281,0.6804599761962891
0.6222043991088867,0.6633590698242188
0.6222043991088867,0.6633590698242188
0.6163415908813477,0.6462392807006836
0.6163415908813477,0.6462392807006836
0.6148521423339843,0.6466981887817382
0.6148521423339843,0.6466981887817382
0.6038434982299804,0.6326202392578125
0.6038434982299804,0.6326202392578125
0.6094110488891601,0.6346744537353516
0.6094110488891601,0.6346744537353516
0.6018505096435547,0.6334722518920898
0.6018505096435547,0.6334722518920898
0.6029216766357421,0.6264049530029296
0.6029216766357421,0.6264049530029296
0.6058788299560547,0.6334144592285156
0.6058788299560547,0.6334144592285156
0.5980401992797851,0.6237928390502929
0.5980401992797851,0.6237928390502929
0.6055309295654296,0.6290948867797851
0.6055309295654296,0.6290948867797851
0.5995800018310546,0.6298107147216797
0.5995800018310546,0.6298107147216797
0.6015901565551758,0.6242591857910156
0.5970542907714843,0.6242591857910156
0.6054010391235352,0.6326065063476562
0.6054010391235352,0.6326065063476562
0.5983812332153320,0.6243455886840820
0.5983812332153320,0.6243455886840820
0.6064910888671875,0.6307737350463867
0.6064910888671875,0.6307737350463867
0.6014110565185546,0.6326694488525391
0.6014110565185546,0.6326694488525391
0.6041032791137695,0.6286823272705078
0.6041032791137695,0.6286823272705078
0.6088932037353515,0.6384321212768554
0.6088932037353515,0.6384321212768554
0.6027935028076171,0.6320486068725586
0.6027935028076171,0.6320486068725586
0.6120718002319335,0.6402162551879883
0.6120718002319335,0.6402162551879883
0.6080240249633789,0.6440271377563477
0.6080240249633789,0.6440271377563477
0.6116884231567382,0.6415437698364258
0.6116884231567382,0.6415437698364258
0.6172811508178710,0.6523767471313476
0.6172811508178710,0.6523767471313476
0.6116392135620117,0.6465253829956055
0.6116392135620117,0.6465253829956055
0.6212162017822266,0.6548686981201172
0.6212162017822266,0.6548686981201172
0.6170917510986328,0.6586589813232422
0.6170917510986328,0.6586589813232422
0.6206377029418945,0.6558763504028320
0.6170253753662109,0.6558763504028320
0.6259552001953125,0.6665668487548828
0.6259552001953125,0.6665668487548828
0.6203956604003906,0.6608179092407226
0.6203956604003906,0.6608179092407226
0.6297603607177734,0.6691732406616211
0.6297603607177734,0.6691732406616211
0.6257034301757812,0.6730190277099609
0.6257034301757812,0.6730190277099609
0.6294244766235352,0.6703737258911132
0.6294244766235352,0.6703737258911132
0.6345966339111327,0.6811128616333008
0.6345966339111327,0.6811128616333008
0.6290113449096679,0.6751207351684571
0.6290113449096679,0.6751207351684571
0.6381826400756836,0.6834938049316406
0.6381826400756836,0.6834938049316406
0.6341377258300781,0.6876153945922852
0.6341377258300781,0.6876153945922852
0.6379537582397461,0.6852012634277344
0.6379537582397461,0.6852012634277344
0.6434337615966796,0.6963684082031250
0.6434337615966796,0.6963684082031250
0.6380149841308593,0.6908958435058593
0.6380149841308593,0.6908958435058593
0.6476549148559571,0.6998130798339843
0.6476549148559571,0.6998130798339843
0.6438520431518554,0.7040267944335937
0.6438520431518554,0.7040267944335937
0.6478311538696289,0.7018426895141602
0.6478311538696289,0.7018426895141602
0.6533575057983398,0.7127643585205078
0.6536653518676757,0.7127643585205078
0.6478992462158203,0.7074359893798828
0.6478992462158203,0.7074359893798828
0.6573474884033202,0.7160745620727539
0.6573474884033202,0.7160745620727539
0.6534879684448242,0.7202505111694336
0.6534879684448242,0.7202505111694336
0.6572639465332031,0.7180240631103515
0.6572639465332031,0.7180240631103515
0.6627840042114258,0.7289377212524414
0.6627840042114258,0.7289377212524414
0.6572582244873046,0.7232265472412109
0.6572582244873046,0.7232265472412109
0.6658372879028320,0.7292123794555664
0.6658372879028320,0.7292123794555664
0.6578670501708984,0.7248144149780273
0.6578670501708984,0.7248144149780273
0.6556074142456054,0.7111415863037109
0.6556074142456054,0.7111415863037109
0.6538696289062500,0.7093454360961914
0.6538696289062500,0.7093454360961914
0.6397762298583984,0.6883186340332031
0.6397762298583984,0.6883186340332031
0.6387565612792968,0.6797538757324219
0.6387565612792968,0.6797538757324219
0.6260719299316406,0.6700241088867187
0.6260719299316406,0.6700241088867187
0.6229740142822265,0.6571929931640624
0.6229740142822265,0.6571929931640624
0.6230106353759766,0.6598920822143555
0.6230106353759766,0.6598920822143555
0.6134576797485352,0.6476709365844726
0.6134576797485352,0.6476709365844726
0.6193353652954101,0.6506492614746093
0.6193353652954101,0.6506492614746093
0.6126857757568359,0.6499191284179687
0.6126857757568359,0.6499191284179687
0.6137008666992188,0.6434223175048828
0.6137008666992188,0.6434223175048828
0.6167804718017578,0.6505125045776367
0.6167804718017578,0.6505125045776367
0.6094711303710937,0.6420083999633789
0.6094711303710937,0.6420083999633789
0.6171483993530273,0.6477321624755860
0.6171483993530273,0.6477321624755860
0.6119201660156249,0.6494939804077148
0.6119201660156249,0.6513261795043945
0.6186555862426758,0.6450462341308594
0.6114749908447266,0.6483089447021484
0.6196695327758789,0.6483089447021484
0.6180942535400390,0.6491340637207031
0.6180942535400390,0.6491340637207031
0.6179357528686523,0.6566665649414062
0.6179357528686523,0.6566665649414062
0.6160108566284179,0.6514709472656249
0.6160108566284179,0.6514709472656249
0.6243707656860351,0.6615171432495117
0.6243707656860351,0.6615171432495117
0.6185091018676757,0.6604991912841797
0.6185091018676757,0.6604991912841797
0.6262687683105469,0.6633802413940429
0.6262687683105469,0.6633802413940429
0.6273754119873046,0.6727375030517578
0.6273754119873046,0.6727375030517578
0.6263248443603515,0.6689357757568359
0.6263248443603515,0.6689357757568359
0.6351762771606445,0.6798814773559571
0.6320428848266602,0.6798814773559571
0.6299148559570312,0.6796869277954102
0.6299148559570312,0.6796869277954102
0.6377906799316406,0.6830297470092773
0.6377906799316406,0.6830297470092773
0.6392131805419922,0.6925357818603516
0.6392131805419922,0.6925357818603516
0.6380407333374023,0.6885761260986328
0.6380407333374023,0.6885761260986328
0.6467508316040039,0.6988918304443359
0.6467508316040039,0.6988918304443359
0.6408788681030273,0.6974802017211914
0.6408788681030273,0.6974802017211914
0.6478071212768555,0.6992162704467774
0.6478071212768555,0.6992162704467774
0.6483123779296874,0.7070074081420898
0.6483123779296874,0.7070074081420898
0.6461975097656250,0.7015886306762695
0.6461975097656250,0.7015886306762695
0.6540756225585938,0.7103977203369141
0.6540756225585938,0.7103977203369141
0.6474363327026367,0.7081060409545898
0.6474363327026367,0.7081060409545898
0.6536121368408203,0.7082210540771484
0.6536121368408203,0.7082210540771484
0.6531406402587890,0.7143699645996093
0.6531406402587890,0.7143699645996093
0.6499637603759766,0.7070846557617188
0.6499637603759766,0.7070846557617188
0.6566722869873046,0.7142080307006836
0.6566722869873046,0.7142080307006836
0.6494201660156250,0.7108715057373046
0.6494201660156250,0.7108715057373046
0.6552577972412109,0.7108354568481445
0.6552577972412109,0.7108354568481445
0.6549837112426757,0.7175239562988281
0.6549837112426757,0.7175239562988281
0.6524740219116211,0.7115455627441406
0.6524740219116211,0.7115455627441406
0.6601261138916016,0.7201372146606445
0.6601261138916016,0.7201372146606445
0.6537946701049805,0.7181608200073242
0.6537946701049805,0.7181608200073242
0.6604494094848633,0.7198230743408203
0.6604494094848633,0.7198230743408203
0.6610044479370117,0.7280336380004883
0.6610044479370117,0.7280336380004883
0.6592020034790039,0.7230737686157226
0.6592020034790039,0.7230737686157226
0.6667894363403321,0.7312408447265625
0.6667894363403321,0.7312408447265625
0.6583150863647461,0.7239715576171875
0.6583150863647461,0.7239715576171875
0.6593782424926757,0.7146869659423828
0.6593782424926757,0.7146869659423828
0.6523853302001953,0.7097894668579101
0.6523853302001953,0.7097894668579101
0.6417829513549804,0.6894063949584961
0.6417829513549804,0.6894063949584961
0.6401401519775390,0.6828266143798828
0.6401401519775390,0.6828266143798828
0.6256834030151367,0.6686056137084960
0.6256834030151367,0.6686056137084960
0.6260656356811524,0.6602073669433594
0.6260656356811524,0.6602073669433594
0.6218902587890625,0.6606805801391601
0.6218902587890625,0.6606805801391601
0.6159467697143555,0.6494338989257812
0.6159467697143555,0.6494338989257812
0.6207967758178711,0.6533821105957031
0.6207967758178711,0.6533821105957031
0.6119138717651367,0.6475009918212891
0.6119138717651367,0.6475009918212891
0.6162694931030274,0.6449741363525391
0.6162694931030274,0.6449741363525391
0.6147703170776367,0.6498161315917969
0.6147703170776367,0.6498161315917969
0.6110235214233398,0.6418659210205078
0.6110235214233398,0.6418659210205078
0.6176965713500976,0.6489309310913086
0.6176965713500976,0.6489309310913086
0.6103282928466797,0.6451503753662109
0.6103282928466797,0.6451503753662109
0.6159072875976562,0.6448453903198242
0.6159072875976562,0.6448453903198242
0.6157304763793945,0.6515573501586914
0.6157304763793945,0.6515573501586914
0.6130971908569336,0.6453941345214843
0.6130971908569336,0.6453941345214843
0.6205375671386718,0.6538038253784180
0.6205375671386718,0.6538038253784180
0.6142524719238281,0.6519390106201172
0.6142524719238281,0.6519390106201172
0.6207389831542969,0.6533821105957031
0.6207389831542969,0.6533821105957031
0.6215240478515625,0.6618152618408203
0.6215240478515625,0.6618152618408203
0.6199796676635742,0.6575860977172852
0.6199796676635742,0.6575860977172852
0.6287567138671875,0.6681381225585937
0.6287567138671875,0.6681381225585937
0.6233224868774414,0.6677129745483398
0.6233224868774414,0.6677129745483398
0.6306381225585938,0.6702970504760742
0.6306381225585938,0.6702970504760742
0.6318431854248047,0.6792406082153321
0.6357919692993164,0.6792406082153321
0.6303113937377930,0.6750177383422852
0.6303113937377930,0.6750177383422852
0.6390317916870117,0.6855525970458984
0.6390317916870117,0.6855525970458984
0.6335586547851563,0.6851640701293945
0.6335586547851563,0.6851640701293945
0.6411157608032226,0.6879810333251953
0.6411157608032226,0.6879810333251953
0.6422922134399414,0.6973863601684570
0.6422922134399414,0.6973863601684570
0.6409429550170899,0.6935789108276367
0.6409429550170899,0.6935789108276367
0.6500032424926757,0.7044713973999023
0.6500032424926757,0.7044713973999023
0.6442623138427734,0.7036216735839843
0.6442623138427734,0.7036216735839843
0.6515699386596679,0.7059785842895507
0.6515699386596679,0.7059785842895507
0.6522508621215820,0.7146080017089843
0.6555547714233398,0.7146080017089843
0.6505113601684570,0.7094306945800781
0.6505113601684570,0.7094306945800781
0.6587213516235352,0.7191146850585938
0.6587213516235352,0.7191146850585938
0.6521558761596680,0.7169614791870117
0.6521558761596680,0.7169614791870117
0.6531372070312500,0.7179273605346680
0.6531372070312500,0.7179273605346680
0.6588169097900390,0.7251296997070312
0.6588169097900390,0.7251296997070312
0.6560434341430664,0.7183158874511718
0.6560434341430664,0.7183158874511718
0.6635473251342773,0.7265338897705078
0.6635473251342773,0.7265338897705078
0.6560703277587890,0.7228597640991211
0.6560703277587890,0.7228597640991211
0.6624206542968750,0.7231138229370117
0.6624206542968750,0.7231138229370117
0.6619388580322265,0.7299940109252929
0.6619388580322265,0.7299940109252929
0.6593667984008789,0.7237403869628906
0.6593667984008789,0.7237403869628906
0.6675115585327148,0.7333883285522461
0.6675115585327148,0.7333883285522461
0.6607761383056641,0.7315435409545898
0.6607761383056641,0.7315435409545898
0.6681266784667969,0.7333728790283203
0.6681266784667969,0.7333728790283203
0.6681570053100586,0.7406541824340820
0.6681570053100586,0.7406541824340820
0.6638511657714844,0.7298194885253906
0.6638511657714844,0.7298194885253906
0.6664466857910156,0.7272016525268554
0.6664466857910156,0.7272016525268554
0.6460979461669921,0.6990915298461914
0.6460979461669921,0.6990915298461914
0.6373214721679688,0.6752431869506835
0.6373214721679688,0.6752431869506835
0.6262413024902344,0.6665462493896485
0.6262413024902344,0.6665462493896485
0.6162231445312499,0.6487014770507812
0.6162231445312499,0.6487014770507812
0.6187843322753906,0.6494750976562500
0.6187843322753906,0.6494750976562500
0.6075473785400390,0.6402700424194335
0.6075473785400390,0.6402700424194335
0.6108278274536133,0.6354612350463867
0.6108278274536133,0.6354612350463867
0.6077505111694336,0.6381837844848632
0.6077505111694336,0.6381837844848632
0.6025423049926758,0.6276437759399414
0.6025423049926758,0.6276437759399414
0.6083026885986328,0.6333389282226562
0.6083026885986328,0.6333389282226562
0.5990386962890625,0.6272174835205078
0.5990386962890625,0.6272174835205078
0.6040460586547851,0.6251787185668946
0.6040460586547851,0.6251787185668946
0.6023895263671875,0.6305894851684570
0.6023895263671875,0.6305894851684570
0.5986421585083007,0.6222461700439453
0.5986421585083007,0.6222461700439453
0.6058307647705078,0.6303194046020507
0.6058307647705078,0.6303194046020507
0.5981185913085937,0.6267168045043945
0.5981185913085937,0.6267168045043945
0.6048042297363281,0.6270252227783203
0.6048042297363281,0.6270252227783203
0.6044786453247070,0.6346538543701171
0.6044786453247070,0.6346538543701171
0.6021240234374999,0.6285890579223633
0.6021240234374999,0.6285890579223633
0.6107774734497070,0.6388635635375977
0.6107774734497070,0.6388635635375977
0.6042663574218750,0.6376539230346679
0.6042663574218750,0.6376539230346679
0.6123893737792968,0.6403690338134765
0.6123893737792968,0.6403690338134765
0.6136333465576171,0.6503477096557617
0.6136333465576171,0.6503477096557617
0.6126319885253906,0.6463039398193359
0.6126319885253906,0.6463039398193359
0.6223646163940429,0.6582109451293945
0.6223646163940429,0.6582109451293945
0.6164812088012696,0.6581022262573242
0.6164812088012696,0.6581022262573242
0.6249830245971679,0.6613208770751953
0.6249830245971679,0.6613208770751953
0.6264421463012695,0.6716342926025390
0.6264421463012695,0.6716342926025390
0.6251312255859375,0.6671161651611328
0.6251312255859375,0.6671161651611328
0.6346086502075196,0.6784017562866210
0.6346086502075196,0.6784017562866210
0.6284677505493164,0.6774061203002929
0.6284677505493164,0.6774061203002929
0.6361776351928711,0.6794025421142578
0.6361776351928711,0.6794025421142578
0.6368236541748047,0.6884067535400390
0.6368236541748047,0.6884067535400390
0.6347270965576172,0.6828466415405273
0.6347270965576172,0.6828466415405273
0.6435150146484375,0.6930358886718749
0.6435150146484375,0.6930358886718749
0.6366514205932617,0.6911481857299805
0.6366514205932617,0.6911481857299805
0.6439189910888672,0.6923154830932617
0.6439189910888672,0.6923154830932617
0.6441295623779296,0.7008092880249023
0.6441295623779296,0.7008092880249023
0.6418212890625000,0.6948268890380859
0.6418212890625000,0.6948268890380859
0.6505565643310547,0.7051465988159179
0.6505565643310547,0.7051465988159179
0.6437707901000976,0.7035060882568359
0.6437707901000976,0.7035060882568359
0.6514028549194336,0.7052856445312500
0.6514028549194336,0.7052856445312500
0.6518182754516602,0.7137456893920898
0.6518182754516602,0.7137456893920898
0.6497777938842774,0.7087612152099609
0.6497777938842774,0.7087612152099609
0.6587436676025390,0.7196731567382812
0.6587436676025390,0.7196731567382812
0.6523921966552734,0.7187295913696289
0.6523921966552734,0.7187295913696289
0.6601753234863281,0.7208576202392578
0.6601753234863281,0.7208576202392578
0.6607309341430664,0.7299270629882812
0.6607309341430664,0.7299270629882812
0.6590686798095703,0.7249454498291016
0.6590686798095703,0.7249454498291016
0.6678869247436523,0.7351684570312500
0.6678869247436523,0.7351684570312500
0.6605821609497070,0.7321798324584960
0.6605821609497070,0.7321798324584960
0.6660552978515625,0.7293188095092773
0.6660552978515625,0.7293188095092773
0.6620103836059570,0.7286167144775391
0.6620103836059570,0.7286167144775391
0.6501508712768554,0.7026878356933594
0.6501508712768554,0.7026878356933594
0.6426378250122070,0.6854661941528321
0.6426378250122070,0.6854661941528321
0.6223085403442382,0.6630037307739257
0.6223085403442382,0.6630037307739257
0.6203767776489257,0.6506881713867188
0.6203767776489257,0.6506881713867188
0.6145608901977538,0.6494029998779297
0.6145608901977538,0.6494029998779297
0.6074998855590820,0.6361513137817383
0.6074998855590820,0.6361513137817383
0.6063629150390625,0.6400577545166015
0.6063629150390625,0.6310523986816406
0.6063629150390625,0.6312612533569336
0.6087667465209960,0.6370891571044922
0.6087667465209960,0.6370891571044922
0.5997762680053711,0.6261640548706054
0.5997762680053711,0.6261640548706054
0.6064842224121093,0.6294988632202149
0.6064842224121093,0.6294988632202149
0.6002735137939453,0.6304246902465820
0.6002735137939453,0.6304246902465820
0.6013412475585938,0.6237121582031250
0.6013412475585938,0.6237121582031250
0.6052808761596680,0.6319627761840820
0.6052808761596680,0.6319627761840820
0.5978296279907226,0.6236114501953125
0.5978296279907226,0.6236114501953125
0.6059640884399414,0.6294107437133789
0.6059640884399414,0.6294107437133789
0.6011610031127930,0.6320503234863281
0.6011610031127930,0.6320503234863281
0.6033193588256835,0.6274497985839843
0.6033193588256835,0.6274497985839843
0.6086408615112304,0.6377557754516602
0.6086408615112304,0.6377557754516602
0.6025983810424804,0.6313156127929688
0.6025983810424804,0.6313156127929688
0.6118572235107421,0.6390426635742187
0.6118572235107421,0.6390426635742187
0.6080142974853515,0.6436569213867187
0.6080142974853515,0.6436569213867187
0.6114967346191406,0.6409515380859375
0.6178859710693360,0.6529541015625000
0.6178859710693360,0.6529541015625000
0.6126468658447265,0.6479982376098633
0.6126468658447265,0.6479982376098633
0.6225362777709961,0.6568227767944336
0.6225362777709961,0.6568227767944336
0.6191448211669922,0.6620824813842773
0.6191448211669922,0.6620824813842773
0.6226490020751952,0.6597215652465820
0.6226490020751952,0.6597215652465820
0.6288843154907227,0.6713899612426758
0.6288843154907227,0.6713899612426758
0.6232583999633788,0.6658790588378906
0.6232583999633788,0.6658790588378906
0.6324943542480469,0.6736827850341797
0.6324943542480469,0.6736827850341797
0.6285060882568360,0.6775920867919921
0.6285060882568360,0.6775920867919921
0.6310592651367187,0.6735700607299805
0.6310592651367187,0.6735700607299805
0.6363624572753906,0.6836391448974609
0.6363624572753906,0.6836391448974609
0.6298112869262695,0.6765987396240234
0.6298112869262695,0.6765987396240234
0.6383543014526367,0.6832592010498046
0.6383543014526367,0.6832592010498046
0.6335300445556641,0.6862100601196289
0.6335300445556641,0.6862100601196289
0.6358829498291015,0.6813486099243163
0.6358829498291015,0.6813486099243163
0.6410974502563477,0.6914485931396485
0.6410974502563477,0.6914485931396485
0.6347654342651367,0.6848287582397461
0.6347654342651367,0.6848287582397461
0.6436305999755859,0.6921300888061523
0.6436305999755859,0.6921300888061523
0.6393733978271484,0.6959421157836914
0.6393733978271484,0.6959421157836914
0.6423105239868164,0.6923274993896484
0.6423105239868164,0.6923274993896484
0.6481235504150390,0.7038740158081055
0.6481235504150390,0.7038740158081055
0.6425680160522461,0.6984998703002929
0.6425680160522461,0.6984998703002929
0.6520906448364258,0.7067705154418945
0.6520906448364258,0.7067705154418945
0.6483226776123047,0.7115060806274414
0.6483226776123047,0.7115060806274414
0.6515916824340821,0.7085861206054688
0.6515916824340821,0.7085861206054688
0.6577165603637695,0.7203180313110351
0.6577165603637695,0.7203180313110351
0.6520534515380859,0.7149393081665039
0.6520534515380859,0.7149393081665039
0.6614770889282227,0.7224271774291992
0.6614770889282227,0.7224271774291992
0.6558717727661133,0.7224649429321289
0.6558717727661133,0.7224649429321289
0.6543560028076172,0.7100864410400390
0.6543560028076172,0.7100864410400390
0.6533323287963867,0.7085844039916992
0.6533323287963867,0.7085844039916992
0.6375938415527344,0.6848270416259765
0.6375938415527344,0.6848270416259765
0.6352741241455078,0.6736135482788086
0.6352741241455078,0.6736135482788086
0.6218067169189453,0.6633407592773437
0.6218067169189453,0.6633407592773437
0.6174356460571289,0.6484399795532226
0.6174356460571289,0.6484399795532226
0.6177446365356445,0.6508363723754883
0.6149986267089843,0.6508363723754883
0.6072280883789062,0.6377529144287110
0.6072280883789062,0.6377529144287110
0.6127527236938476,0.6394540786743164
0.6127527236938476,0.6394540786743164
0.6056196212768554,0.6387142181396485
0.6056196212768554,0.6387142181396485
0.6058050155639648,0.6306198120117187
0.6058050155639648,0.6306198120117187
0.6093400955200196,0.6382049560546875
0.6093400955200196,0.6382049560546875
0.6013858795166015,0.6288579940795899
0.6013858795166015,0.6288579940795899
0.6088068008422851,0.6333955764770508
0.6088068008422851,0.6333955764770508
0.6031122207641602,0.6349554061889648
0.6031122207641602,0.6349554061889648
0.6042119979858398,0.6285020828247070
0.6042119979858398,0.6285020828247070
0.6084188461303711,0.6366085052490235
0.6084188461303711,0.6366085052490235
0.6008451461791992,0.6280437469482422
0.6008451461791992,0.6280437469482422
0.6085458755493164,0.6331426620483398
0.6085458755493164,0.6331426620483398
0.6033422470092773,0.6355287551879882
0.6033422470092773,0.6355287551879882
0.6053014755249023,0.6305116653442383
0.6015432357788085,0.6305116653442383
0.6106315612792969,0.6407312393188477
0.6106315612792969,0.6407312393188477
0.6044425964355469,0.6344810485839844
0.6044425964355469,0.6344810485839844
0.6136528015136719,0.6420558929443360
0.6136528015136719,0.6420558929443360
0.6101291656494140,0.6470746994018555
0.6101291656494140,0.6470746994018555
0.6133443832397460,0.6440042495727539
0.6133443832397460,0.6440042495727539
0.6197542190551758,0.6560113906860351
0.6197542190551758,0.6560113906860351
0.6144779205322265,0.6511842727661132
0.6144779205322265,0.6511842727661132
0.6242139816284179,0.6599287033081055
0.6242139816284179,0.6599287033081055
0.6213478088378906,0.6660587310791015
0.6213478088378906,0.6660587310791015
0.6251237869262695,0.6644170761108398
0.6251237869262695,0.6644170761108398
0.6325172424316406,0.6779829025268554
0.6325172424316406,0.6779829025268554
0.6279767990112305,0.6741165161132813
0.6279767990112305,0.6741165161132813
0.6381534576416016,0.6833959579467773
0.6381534576416016,0.6833959579467773
0.6351842880249023,0.6894046783447265
0.6351842880249023,0.6894046783447265
0.6387474060058593,0.6869567871093750
0.6387474060058593,0.6869567871093750
0.6455646514892578,0.6996797561645508
0.6455646514892578,0.6996797561645508
0.6406534194946288,0.6955318450927734
0.6406534194946288,0.6955318450927734
0.6505376815795898,0.7044771194458007
0.6505376815795898,0.7044771194458007
0.6474397659301757,0.7102895736694336
0.6474397659301757,0.7102895736694336
0.6506721496582031,0.7073530197143555
0.6506721496582031,0.7073530197143555
0.6570693969726562,0.7188875198364257
0.6570693969726562,0.7188875198364257
0.6512363433837890,0.7131362915039062
0.6512363433837890,0.7131362915039062
0.6602428436279296,0.7201595306396484
0.6602428436279296,0.7201595306396484
0.6558866500854492,0.7236843109130859
0.6558866500854492,0.7236843109130859
0.6576959609985351,0.7180801391601562
0.6576959609985351,0.7180801391601562
0.6625288009643554,0.7275060653686524
0.6625288009643554,0.7275060653686524
0.6557418823242187,0.7202098846435546
0.6557418823242187,0.7202098846435546
0.6638116836547852,0.7259462356567382
0.6638116836547852,0.7259462356567382
0.6591567993164062,0.7291460037231445
0.6591567993164062,0.7291460037231445
0.6608001708984375,0.7233438491821289
0.6608001708984375,0.7233438491821289
0.6647037506103516,0.7299802780151367
0.6647037506103516,0.7299802780151367
0.6540372848510742,0.7141759872436523
0.6540372848510742,0.7141759872436523
0.6540967941284179,0.7037349700927734
0.6540967941284179,0.7037349700927734
0.6361066818237304,0.6836408615112305
0.6361066818237304,0.6836408615112305
0.6254945755004883,0.6590978622436523
0.6254945755004883,0.6590978622436523
0.6217494964599609,0.6557378768920898
0.6217494964599609,0.6557378768920898
0.6090522766113281,0.6394540786743164
0.6090522766113281,0.6394540786743164
0.6130439758300781,0.6385637283325195
0.6130439758300781,0.6385637283325195
0.6051767349243163,0.6365753173828125
0.6051767349243163,0.6365753173828125
0.6041667938232421,0.6269748687744140
0.6041667938232421,0.6269748687744140
0.6069803237915039,0.6329549789428711
0.6069803237915039,0.6329549789428711
0.5983892440795898,0.6227159500122070
0.5983892440795898,0.6227159500122070
0.6048362731933593,0.6258573532104492
0.6048362731933593,0.6258573532104492
0.5985603332519531,0.6266012191772461
0.5985603332519531,0.6266012191772461
0.5989374160766602,0.6192975997924804
0.5989374160766602,0.6192975997924804
0.6029937744140624,0.6271436691284179
0.6029937744140624,0.6271436691284179
0.5954109191894531,0.6188146591186523
0.5954109191894531,0.6188146591186523
0.6031082153320312,0.6238969802856446
0.6031082153320312,0.6238969802856446
0.5981843948364257,0.6270206451416015
0.5981843948364257,0.6270206451416015
0.6000343322753906,0.6217414855957031
0.6000343322753906,0.6217414855957031
0.6056470870971680,0.6325801849365235
0.6056470870971680,0.6325801849365235
0.5998151779174804,0.6270870208740235
0.5998151779174804,0.6270870208740235
0.6094734191894531,0.6352855682373046
0.6035219192504883,0.6352855682373046
0.6065380096435546,0.6415752410888672
0.6065380096435546,0.6415752410888672
0.6102664947509765,0.6396297454833985
0.6102664947509765,0.6396297454833985
0.6177663803100586,0.6535863876342773
0.6177663803100586,0.6535863876342773
0.6136104583740234,0.6509313583374023
0.6136104583740234,0.6509313583374023
0.6244480133056640,0.6609266281127929
0.6244480133056640,0.6609266281127929
0.6222845077514648,0.6681278228759765
0.6222845077514648,0.6681278228759765
0.6257955551147460,0.6658309936523438
0.6257955551147460,0.6658309936523438
0.6325687408447266,0.6775348663330077
0.6325687408447266,0.6775348663330077
0.6267711639404296,0.6716617584228516
0.6267711639404296,0.6716617584228516
0.6355373382568359,0.6781665802001953
0.6355373382568359,0.6781665802001953
0.6311376571655273,0.6821559906005860
0.6311376571655273,0.6821559906005860
0.6333114624023437,0.6771057128906249
0.6333114624023437,0.6771057128906249
0.6389928817749023,0.6876079559326171
0.6389928817749023,0.6876079559326171
0.6327701568603515,0.6814807891845703
0.6327701568603515,0.6814807891845703
0.6416107177734375,0.6882024765014648
0.6416107177734375,0.6882024765014648
0.6377717971801757,0.6931045532226562
0.6377717971801757,0.6931045532226562
0.6404096603393554,0.6890241622924804
0.6404096603393554,0.6890241622924804
0.6466541290283203,0.7005580902099610
0.6466541290283203,0.7005580902099610
0.6408061981201172,0.6952245712280273
0.6408061981201172,0.6952245712280273
0.6500495910644531,0.7025882720947265
0.6500495910644531,0.7025882720947265
0.6464807510375976,0.7078205108642578
0.6464807510375976,0.7078205108642578
0.6492279052734374,0.7041978836059570
0.6492279052734374,0.7041978836059570
0.6557413101196289,0.7161191940307617
0.6557413101196289,0.7161191940307617
0.6500204086303710,0.7110054016113281
0.6500204086303710,0.7110054016113281
0.6593484878540039,0.7184537887573242
0.6593484878540039,0.7184537887573242
0.6558471679687500,0.7236225128173828
0.6558471679687500,0.7236225128173828
0.6583797454833984,0.7197813034057617
0.6583797454833984,0.7197813034057617
0.6645618438720703,0.7309066772460937
0.6645618438720703,0.7309066772460937
0.6585931777954102,0.7250816345214843
0.6585931777954102,0.7250816345214843
0.6673313140869140,0.7307842254638671
0.6673313140869140,0.7307842254638671
0.6615240097045898,0.7312305450439452
0.6615240097045898,0.7312305450439452
0.6496164321899414,0.7058469772338867
0.6496164321899414,0.7067310333251953
0.6408514022827149,0.6793132781982422
0.6408514022827149,0.6793132781982422
0.6273187637329102,0.6662681579589843
0.6273187637329102,0.6662681579589843
0.6143234252929687,0.6446456909179688
0.6143234252929687,0.6446456909179688
0.6158060073852539,0.6430097579956054
0.6158060073852539,0.6430097579956054
0.6028432846069336,0.6329521179199219
0.6028432846069336,0.6329521179199219
0.6054050445556640,0.6255872726440429
0.6054050445556640,0.6255872726440429
0.6022962570190430,0.6282108306884765
0.6022962570190430,0.6282108306884765
0.5958772659301758,0.6165676116943359
0.5958772659301758,0.6165676116943359
0.6018894195556640,0.6220848083496093
0.6018894195556640,0.6220848083496093
0.5923776626586914,0.6174991607666015
0.5923776626586914,0.6174991607666015
0.5977890014648437,0.6146844863891602
0.5977890014648437,0.6146844863891602
0.5971040725708008,0.6208997726440429
0.5971040725708008,0.6208997726440429
0.5926786422729492,0.6123676300048828
0.5926786422729492,0.6123676300048828
0.6005950927734375,0.6204814910888672
0.6005950927734375,0.6204814910888672
0.5924766540527343,0.6182161331176758
0.5924766540527343,0.6182161331176758
0.5994249343872070,0.6174121856689453
0.5994249343872070,0.6174121856689453
0.5999473571777344,0.6254339218139648
0.5999473571777344,0.6254339218139648
0.5964019775390624,0.6181915283203124
0.5964019775390624,0.6181915283203124
0.6049449920654296,0.6275882720947266
0.6049449920654296,0.6275882720947266
0.5975824356079101,0.6270303726196289
0.5975824356079101,0.6270303726196289
0.6055406570434571,0.6278068542480468
0.6055406570434571,0.6278068542480468
0.6071622848510742,0.6375720977783202
0.6071622848510742,0.6375720977783202
0.6047058105468750,0.6326517105102539
0.6047058105468750,0.6326517105102539
0.6146009445190429,0.6441226959228515
0.6146009445190429,0.6441226959228515
0.6085447311401367,0.6451452255249023
0.6085447311401367,0.6451452255249023
0.6170431137084961,0.6472526550292969
0.6170431137084961,0.6472526550292969
0.6191591262817383,0.6580621719360351
0.6191591262817383,0.6580621719360351
0.6171998977661133,0.6537740707397460
0.6171998977661133,0.6537740707397460
0.6273033142089843,0.6656845092773437
0.6273033142089843,0.6656845092773437
0.6212957382202148,0.6669530868530273
0.6212957382202148,0.6669530868530273
0.6299411773681640,0.6692110061645508
0.6299411773681640,0.6692110061645508
0.6323942184448242,0.6805440902709960
0.6323942184448242,0.6805440902709960
0.6305271148681640,0.6762468338012695
0.6305271148681640,0.6762468338012695
0.6405509948730469,0.6879192352294922
0.6405509948730469,0.6879192352294922
0.6343603134155273,0.6890407562255859
0.6343603134155273,0.6890407562255859
0.6426000595092773,0.6906652450561523
0.6374319076538085,0.6906652450561523
0.6446617126464843,0.7014707565307617
0.6446617126464843,0.7014707565307617
0.6423419952392578,0.6966127395629883
0.6423419952392578,0.6966127395629883
0.6521415710449219,0.7078662872314453
0.6521415710449219,0.7078662872314453
0.6455755233764648,0.7081655502319336
0.6455755233764648,0.7081655502319336
0.6533946990966797,0.7087406158447266
0.6533946990966797,0.7087406158447266
0.6545860290527343,0.7179616928100586
0.6545860290527343,0.7179616928100586
0.6511934280395507,0.7111450195312500
0.6511934280395507,0.7111450195312500
0.6597970962524414,0.7199918746948242
0.6597970962524414,0.7199918746948242
0.6517782211303711,0.7181299209594726
0.6517782211303711,0.7181299209594726
0.6586257934570312,0.7169883728027343
0.6586257934570312,0.7169883728027343
0.6590955734252929,0.7248538970947266
0.6590955734252929,0.7248538970947266
0.6552824020385742,0.7179244995117188
0.6552824020385742,0.7179244995117188
0.6638391494750976,0.7268468856811523
0.6638391494750976,0.7268468856811523
0.6561395645141601,0.7256675720214844
0.6561395645141601,0.7256675720214844
0.6630065917968749,0.7240762710571289
0.6630065917968749,0.7240762710571289
0.6618392944335937,0.7279712677001953
0.6618392944335937,0.7279712677001953
0.6528785705566406,0.7092922210693359
0.6528785705566406,0.7092922210693359
0.6493515014648438,0.6951124191284179
0.6493515014648438,0.6951124191284179
0.6264919281005860,0.6693140029907226
0.6264919281005860,0.6693140029907226
0.6222198486328124,0.6514623641967773
0.6222198486328124,0.6514623641967773
0.6151479721069336,0.6478185653686523
0.6151479721069336,0.6478185653686523
0.6059371948242187,0.6320972442626953
0.6059371948242187,0.6320972442626953
0.6103517532348632,0.6345548629760742
0.6103517532348632,0.6345548629760742
0.5993116378784179,0.6278606414794922
0.5993116378784179,0.6278606414794922
0.6033473968505859,0.6224710464477539
0.6033473968505859,0.6224710464477539
0.6016450881958008,0.6268529891967773
0.6016450881958008,0.6268529891967773
0.5958503723144531,0.6163930892944336
0.5958503723144531,0.6163930892944336
0.6024530410766601,0.6222536087036132
0.6024530410766601,0.6222536087036132
0.5930128097534180,0.6182853698730468
0.5930128097534180,0.6182853698730468
0.5985174179077148,0.6152967453002930
0.5985174179077148,0.6152967453002930
0.5979143142700195,0.6215297698974609
0.5979143142700195,0.6215297698974609
0.5931541442871093,0.6128940582275391
0.5931541442871093,0.6128940582275391
0.6007799148559571,0.6202182769775391
0.6007799148559571,0.6202182769775391
0.5923027038574219,0.6180868148803711
0.6014116287231445,0.6180868148803711
0.5989151000976562,0.6167060852050781
0.5989151000976562,0.6167060852050781
0.5997728347778321,0.6253549575805664
0.5997728347778321,0.6253549575805664
0.5965473175048828,0.6192249298095703
0.5965473175048828,0.6192249298095703
0.6057168960571289,0.6297077178955078
0.6057168960571289,0.6297077178955078
0.5993957519531250,0.6306472778320312
0.5993957519531250,0.6306472778320312
0.6078437805175781,0.6326889038085938
0.6078437805175781,0.6326889038085938
0.6106653213500977,0.6444396972656250
0.6106653213500977,0.6444396972656250
0.6090402603149414,0.6411540985107421
0.6090402603149414,0.6411540985107421
0.6198978424072266,0.6539520263671875
0.6198978424072266,0.6539520263671875
0.6146032333374023,0.6568296432495117
0.6146032333374023,0.6568296432495117
0.6240423202514648,0.6597885131835938
0.6240423202514648,0.6597885131835938
0.6270755767822266,0.6717035293579101
0.6270755767822266,0.6717035293579101
0.6251701354980469,0.6677318572998047
0.6251701354980469,0.6677318572998047
0.6353170394897460,0.6787227630615235
0.6353170394897460,0.6787227630615235
0.6285799026489257,0.6794317245483398
0.6285799026489257,0.6794317245483398
0.6366142272949219,0.6798414230346680
0.6366142272949219,0.6798414230346680
0.6379560470581055,0.6892118453979492
0.6379560470581055,0.6892118453979492
0.6347660064697266,0.6829587936401367
0.6347660064697266,0.6829587936401367
0.6434520721435547,0.6917827606201171
0.6434520721435547,0.6917827606201171
0.6356260299682617,0.6909633636474609
0.6356260299682617,0.6909633636474609
0.6427139282226563,0.6898315429687499
0.6427139282226563,0.6898315429687499
0.6433834075927735,0.6979351043701172
0.6433834075927735,0.6979351043701172
0.6394094467163086,0.6909416198730468
0.6394094467163086,0.6909416198730468
0.6480955123901367,0.6997861862182617
0.6480955123901367,0.6997861862182617
0.6403673171997070,0.6989679336547852
0.6403673171997070,0.6989679336547852
0.6475616455078125,0.6987098693847656
0.6420495986938476,0.6987098693847656
0.6490224838256836,0.7080207824707031
0.6490224838256836,0.7080207824707031
0.6457735061645508,0.7023588180541992
0.6457735061645508,0.7023588180541992
0.6551170349121094,0.7125589370727539
0.6551170349121094,0.7125589370727539
0.6482311248779297,0.7132495880126953
0.6482311248779297,0.7132495880126953
0.6562139511108398,0.7143035888671875
0.6562139511108398,0.7143035888671875
0.6584100723266602,0.7248762130737304
0.6584100723266602,0.7248762130737304
0.6556589126586914,0.7200382232666015
0.6556589126586914,0.7200382232666015
0.6647500991821289,0.7286264419555664
0.6647500991821289,0.7286264419555664
0.6541557312011719,0.7201538085937500
0.6541557312011719,0.7201538085937500
0.6504341125488281,0.6965435028076171
0.6504341125488281,0.6965435028076171
0.6342138290405274,0.6761037826538085
0.6342138290405274,0.6761037826538085
0.6169492721557617,0.6489727020263671
0.6169492721557617,0.6489727020263671
0.6162935256958008,0.6436054229736328
0.6162935256958008,0.6436054229736328
0.6022390365600586,0.6332067489624024
0.6022390365600586,0.6332067489624024
0.6044694900512695,0.6248090744018554
0.6044694900512695,0.6248090744018554
0.6019861221313476,0.6276483535766602
0.6019861221313476,0.6276483535766602
0.5951826095581054,0.6160789489746094
0.5951826095581054,0.6160789489746094
0.6012290954589844,0.6206640243530274
0.6012290954589844,0.6206640243530274
0.5911668777465821,0.6162031173706054
0.5911668777465821,0.6162031173706054
0.5961713790893555,0.6118989944458008
0.5961713790893555,0.6118989944458008
0.5955642700195313,0.6176559448242187
0.5955642700195313,0.6176559448242187
0.5900962829589843,0.6081327438354492
0.5900962829589843,0.6081327438354492
0.5972654342651367,0.6147165298461914
0.5972654342651367,0.6147165298461914
0.5884197235107421,0.6119270324707031
0.5973970413208007,0.6119270324707031
0.5944885253906250,0.6092050552368163
0.5944885253906250,0.6092050552368163
0.5947711944580077,0.6166013717651367
0.5947711944580077,0.6166013717651367
0.5904304504394531,0.6088697433471679
0.5904304504394531,0.6088697433471679
0.5989019393920898,0.6170986175537109
0.5989019393920898,0.6170986175537109
0.5911062240600585,0.6164348602294921
0.5911062240600585,0.6164348602294921
0.5985425949096680,0.6159170150756835
0.5985425949096680,0.6159170150756835
0.6002563476562500,0.6257246017456054
0.6002563476562500,0.6257246017456054
0.5974359512329102,0.6203567504882812
0.5974359512329102,0.6203567504882812
0.6072486877441406,0.6305757522583008
0.6072486877441406,0.6305757522583008
0.6007118225097656,0.6319627761840820
0.6007118225097656,0.6319627761840820
0.6088697433471679,0.6327009201049805
0.6088697433471679,0.6327009201049805
0.6111368179321289,0.6430984497070312
0.6111368179321289,0.6430984497070312
0.6083112716674804,0.6380802154541015
0.6083112716674804,0.6380802154541015
0.6179895401000977,0.6481195449829101
0.6179895401000977,0.6481195449829101
0.6109073638916015,0.6488084793090820
0.6109073638916015,0.6488084793090820
0.6187957763671875,0.6490980148315429
0.6187957763671875,0.6490980148315429
0.6207830429077148,0.6591613769531249
0.6207830429077148,0.6591613769531249
0.6175249099731445,0.6533180236816406
0.6175249099731445,0.6533180236816406
0.6268999099731445,0.6627851486206054
0.6268999099731445,0.6627851486206054
0.6194211959838867,0.6628864288330077
0.6194211959838867,0.6628864288330077
0.6268077850341797,0.6625843048095703
0.6268077850341797,0.6625843048095703
0.6284259796142578,0.6718122482299804
0.6284259796142578,0.6718122482299804
0.6248296737670899,0.6658367156982422
0.6248296737670899,0.6658367156982422
0.6342407226562500,0.6755973815917968
0.6342407226562500,0.6755973815917968
0.6271390914916992,0.6762937545776367
0.6271390914916992,0.6762937545776367
0.6351093292236328,0.6767183303833008
0.6351093292236328,0.6767183303833008
0.6374364852905273,0.6873584747314453
0.6374364852905273,0.6873584747314453
0.6346069335937500,0.6826698303222656
0.6346069335937500,0.6826698303222656
0.6403284072875977,0.6888187408447265
0.6403284072875977,0.6888187408447265
0.6474145889282227,0.7012195587158203
0.6470088958740234,0.7012195587158203
0.6426612854003906,0.6980850219726562
0.6426612854003906,0.6980850219726562
0.6524047851562500,0.7047889709472656
0.6524047851562500,0.7047889709472656
0.6493148803710938,0.7118385314941406
0.6493148803710938,0.7118385314941406
0.6515722274780273,0.7079509735107422
0.6515722274780273,0.7079509735107422
0.6587711334228515,0.7195724487304688
0.6587711334228515,0.7195724487304688
0.6529981613159179,0.7158239364624023
0.6596059799194336,0.7158239364624023
0.6614690780639648,0.7186380386352539
0.6614690780639648,0.7186380386352539
0.6525741577148437,0.7130310058593750
0.6525741577148437,0.7130310058593750
0.6419448852539062,0.6840608596801757
0.6419448852539062,0.6840608596801757
0.6330471038818359,0.6693317413330078
0.6330471038818359,0.6693317413330078
0.6146244049072266,0.6464092254638671
0.6146244049072266,0.6464092254638671
0.6149723052978515,0.6389934539794921
0.6149723052978515,0.6389934539794921
0.6052248001098632,0.6353342056274414
0.6052248001098632,0.6353342056274414
0.6022092819213867,0.6229980468749999
0.6022092819213867,0.6229980468749999
0.6050519943237305,0.6277805328369140
0.6050519943237305,0.6277805328369140
0.5954538345336914,0.6179729461669922
0.5954538345336914,0.6179729461669922
0.6016965866088867,0.6186773300170898
0.6016965866088867,0.6186773300170898
0.5953250885009765,0.6202480316162109
0.5953250885009765,0.6202480316162109
0.5944879531860351,0.6115505218505859
0.5944879531860351,0.6115505218505859
0.5993070602416992,0.6190326690673827
0.5993070602416992,0.6190326690673827
0.5911628723144531,0.6118114471435546
0.5911628723144531,0.6118114471435546
0.5988744735717774,0.6149665832519531
0.5988744735717774,0.6149665832519531
0.5939466476440429,0.6187734603881836
0.6005664825439453,0.6187734603881836
0.5944593429565429,0.6121576309204101
0.5944593429565429,0.6121576309204101
0.6005802154541016,0.6216899871826171
0.6005802154541016,0.6216899871826171
0.5937881469726562,0.6166151046752929
0.5937881469726562,0.6166151046752929
0.6027860641479492,0.6217334747314452
0.6027860641479492,0.6217334747314452
0.5993791580200195,0.6280466079711914
0.5993791580200195,0.6280466079711914
0.6015495300292969,0.6237287521362305
0.6015495300292969,0.6237287521362305
0.6088857650756836,0.6357021331787109
0.6088857650756836,0.6357021331787109
0.6034870147705078,0.6326694488525391
0.6034870147705078,0.6326694488525391
0.6134920120239258,0.6394363403320312
0.6134920120239258,0.6394363403320312
0.6107797622680664,0.6471319198608398
0.6107797622680664,0.6471319198608398
0.6136247634887695,0.6439933776855469
0.6136247634887695,0.6439933776855469
0.6217002868652344,0.6569034576416015
0.6217002868652344,0.6569034576416015
0.6165990829467773,0.6546100616455078
0.6165990829467773,0.6546100616455078
0.6268592834472656,0.6618616104125976
0.6268592834472656,0.6618616104125976
0.6242219924926757,0.6694513320922851
0.6242219924926757,0.6694513320922851
0.6266819000244140,0.6656976699829101
0.6266819000244140,0.6656976699829101
0.6341005325317383,0.6769998550415038
0.6341005325317383,0.6769998550415038
0.6280815124511718,0.6733057022094726
0.6280815124511718,0.6733057022094726
0.6373329162597656,0.6787273406982421
0.6373329162597656,0.6787273406982421
0.6338161468505860,0.6848241806030273
0.6338161468505860,0.6848241806030273
0.6356122970581054,0.6801366806030273
0.6356122970581054,0.6801366806030273
0.6428798675537110,0.6913364410400390
0.6428798675537110,0.6913364410400390
0.6367664337158203,0.6877584457397461
0.6367664337158203,0.6877584457397461
0.6464715957641601,0.6938123703002930
0.6464715957641601,0.6938123703002930
0.6431888580322266,0.7006267547607422
0.6431888580322266,0.7006267547607422
0.6452270507812500,0.6964473724365234
0.6452270507812500,0.6964473724365234
0.6525209426879882,0.7079092025756836
0.6525209426879882,0.7079092025756836
0.6465860366821289,0.7044754028320312
0.6465860366821289,0.7044754028320312
0.6557212829589844,0.7100589752197265
0.6557212829589844,0.7100589752197265
0.6521976470947265,0.7160951614379882
0.6521976470947265,0.7160951614379882
0.6537317276000977,0.7110820770263672
0.6537317276000977,0.7110820770263672
0.6606445312500000,0.7217651367187500
0.6606445312500000,0.7217651367187500
0.6541763305664062,0.7175674438476562
0.6541763305664062,0.7175674438476562
0.6631381988525390,0.7225656509399414
0.6631381988525390,0.7225656509399414
0.6592437744140625,0.7277000427246093
0.6592437744140625,0.7277000427246093
0.6587968826293945,0.7185825347900391
0.6587968826293945,0.7185825347900391
0.6608882904052734,0.7182535171508789
0.6608882904052734,0.7182535171508789
0.6424043655395507,0.6901977539062499
0.6424043655395507,0.6901977539062499
0.6345325469970703,0.6676294326782226
0.6345325469970703,0.6676294326782226
0.6181308746337890,0.6541694641113281
0.6181308746337890,0.6541694641113281
0.6107093811035156,0.6355499267578125
0.6107093811035156,0.6355499267578125
0.6111940383911133,0.6360385894775390
0.6111940383911133,0.6360385894775390
0.5997722625732421,0.6242580413818359
0.5997722625732421,0.6242580413818359
0.6049398422241211,0.6227148056030273
0.6049398422241211,0.6227148056030273
0.5978776931762695,0.6230649948120117
0.5978776931762695,0.6230649948120117
0.5962434768676758,0.6130611419677734
0.5962434768676758,0.6130611419677734
0.6004943847656250,0.6194400787353516
0.6004943847656250,0.6194400787353516
0.5918701171874999,0.6116832733154297
0.5918701171874999,0.6116832733154297
0.5987623214721679,0.6131057739257812
0.5987623214721679,0.6131057739257812
0.5931707382202148,0.6158226013183593
0.5931707382202148,0.6158226013183593
0.5926740646362304,0.6075914382934570
0.5926740646362304,0.6075914382934570
0.5979057312011719,0.6156085968017578
0.5979057312011719,0.6156085968017578
0.5901208877563476,0.6094951629638672
0.5901208877563476,0.6094951629638672
0.5980888366699219,0.6128522872924804
0.5980888366699219,0.6128522872924804
0.5938842773437499,0.6177835464477539
0.5938842773437499,0.6177835464477539
0.5949588775634765,0.6122789382934570
0.5949588775634765,0.6122789382934570
0.6019781112670898,0.6232509613037109
0.6019781112670898,0.6232509613037109
0.5961736679077149,0.6204803466796874
0.5961736679077149,0.6204803466796874
0.6062398910522461,0.6271802902221679
0.6062398910522461,0.6271802902221679
0.6040718078613281,0.6355733871459961
0.6040718078613281,0.6355733871459961
0.6068710327148438,0.6332948684692382
0.6068710327148438,0.6332948684692382
0.6157585144042969,0.6469877243041992
0.6157585144042969,0.6469877243041992
0.6111511230468750,0.6465465545654296
0.6111511230468750,0.6465465545654296
0.6223154067993164,0.6548938751220703
0.6223154067993164,0.6548938751220703
0.6205570220947265,0.6639667510986328
0.6205570220947265,0.6639667510986328
0.6233871459960937,0.6612012863159179
0.6233871459960937,0.6612012863159179
0.6314455032348633,0.6732793807983398
0.6314455032348633,0.6732793807983398
0.6256050109863281,0.6701974868774414
0.6256050109863281,0.6701974868774414
0.6350400924682617,0.6754348754882812
0.6350400924682617,0.6754348754882812
0.6316148757934570,0.6816015243530273
0.6316148757934570,0.6816015243530273
0.6328622817993164,0.6761747360229492
0.6328622817993164,0.6761747360229492
0.6397624969482422,0.6864297866821288
0.6397624969482422,0.6864297866821288
0.6330242156982422,0.6820140838623047
0.6330242156982422,0.6820140838623047
0.6418870925903321,0.6864280700683594
0.6418870925903321,0.6864280700683594
0.6382890701293945,0.6922456741333007
0.6382890701293945,0.6922456741333007
0.6393362045288086,0.6870935440063476
0.6393362045288086,0.6870935440063476
0.6465803146362304,0.6977983474731445
0.6465803146362304,0.6977983474731445
0.6401596069335938,0.6943393707275390
0.6401596069335938,0.6943393707275390
0.6494956970214844,0.6994136810302735
0.6494956970214844,0.6994136810302735
0.6462570190429687,0.7058492660522461
0.6462570190429687,0.7058492660522461
0.6476583480834961,0.7011434555053710
0.6476583480834961,0.7011434555053710
0.6550363540649414,0.7120611190795898
0.6550363540649414,0.7120611190795898
0.6488313674926758,0.7088973999023437
0.6488313674926758,0.7088973999023437
0.6580329895019531,0.7139282226562500
0.6580329895019531,0.7139282226562500
0.6549116134643554,0.7204851150512696
0.6549116134643554,0.7204851150512696
0.6563003540039062,0.7157878875732422
0.6563003540039062,0.7157878875732422
0.6635404586791992,0.7262809753417968
0.6635404586791992,0.7262809753417968
0.6569686889648437,0.7220197677612304
0.6569686889648437,0.7220197677612304
0.6642522811889648,0.7222887039184570
0.6642522811889648,0.7222887039184570
0.6548131942749024,0.7144878387451171
0.6548131942749024,0.7144878387451171
0.6413955688476562,0.6817033767700195
0.6413955688476562,0.6817033767700195
0.6315113067626953,0.6655952453613281
0.6315113067626953,0.6655952453613281
0.6131807327270508,0.6438257217407226
0.6131807327270508,0.6438257217407226
0.6135234832763672,0.6350177764892578
0.6135234832763672,0.6350177764892578
0.6037302017211914,0.6309494018554688
0.6037302017211914,0.6309494018554688
0.5996126174926758,0.6179065704345703
0.5996126174926758,0.6179065704345703
0.6024175643920898,0.6214593887329102
0.6024175643920898,0.6214593887329102
0.5922534942626952,0.6118314743041992
0.5922534942626952,0.6118314743041992
0.5978158950805664,0.6110761642456054
0.5978158950805664,0.6110761642456054
0.5915731430053711,0.6123762130737305
0.5915731430053711,0.6123762130737305
0.5899446487426757,0.6032564163208007
0.5899446487426757,0.6032564163208007
0.5947963714599609,0.6098682403564453
0.5923290252685547,0.6098682403564453
0.5863666534423828,0.6032495498657227
0.5924995422363281,0.6032495498657227
0.5936290740966796,0.6049226760864258
0.5936290740966796,0.6049226760864258
0.5887229919433593,0.6086597442626953
0.5887229919433593,0.6086597442626953
0.5886199951171874,0.6014883041381835
0.5886199951171874,0.6014883041381835
0.5947471618652344,0.6100845336914062
0.5947471618652344,0.6100845336914062
0.5876981735229492,0.6057369232177734
0.5944307327270507,0.6057369232177734
0.5963899612426757,0.6094757080078125
0.5895732879638672,0.6094757080078125
0.5928668975830078,0.6155691146850586
0.5928668975830078,0.6155691146850586
0.5942024230957031,0.6111116409301758
0.5942024230957031,0.6111116409301758
0.6009447097778320,0.6224819183349609
0.6009447097778320,0.6224819183349609
0.5963979721069336,0.6204277038574219
0.6039247512817383,0.6204277038574219
0.6061557769775391,0.6261457443237305
0.6061557769775391,0.6261457443237305
0.6038698196411133,0.6338624954223633
0.6038698196411133,0.6338624954223633
0.6057558059692383,0.6302072525024414
0.6057558059692383,0.6302072525024414
0.6135549545288086,0.6416673660278320
0.6135549545288086,0.6416673660278320
0.6077848434448242,0.6391679763793945
0.6077848434448242,0.6391679763793945
0.6171787261962890,0.6440975189208984
0.6171787261962890,0.6440975189208984
0.6142713546752929,0.6507808685302734
0.6142713546752929,0.6507808685302734
0.6153699874877929,0.6461740493774414
0.6153699874877929,0.6461740493774414
0.6229087829589843,0.6570024490356445
0.6229087829589843,0.6570024490356445
0.6168359756469727,0.6543102264404297
0.6168359756469727,0.6543102264404297
0.6264741897583007,0.6596591949462890
0.6264741897583007,0.6596591949462890
0.6238494873046875,0.6670640945434571
0.6238494873046875,0.6670640945434571
0.6239027023315430,0.6700864791870117
0.6337715148925781,0.6700864791870117
0.6316589355468750,0.6703765869140624
0.6316589355468750,0.6703765869140624
0.6345542907714844,0.6809097290039062
0.6345542907714844,0.6809097290039062
0.6310976028442382,0.6761278152465821
0.6310976028442382,0.6761278152465821
0.6409006118774414,0.6852962493896484
0.6409006118774414,0.6852962493896484
0.6337102890014649,0.6865871429443359
0.6337102890014649,0.6865871429443359
0.6409801483154297,0.6857591629028320
0.6409801483154297,0.6857591629028320
0.6434543609619140,0.6954946517944336
0.6434543609619140,0.6954946517944336
0.6392538070678710,0.6894922256469727
0.6392538070678710,0.6894922256469727
0.6484582901000976,0.6978984832763672
0.6484582901000976,0.6978984832763672
0.6411031723022461,0.6987567901611328
0.6411031723022461,0.6987567901611328
0.6480440139770508,0.6977445602416992
0.6480440139770508,0.6977445602416992
0.6505325317382812,0.7072729110717774
0.6505325317382812,0.7072729110717774
0.6462696075439452,0.7013660430908203
0.6462696075439452,0.7013660430908203
0.6556102752685546,0.7096744537353515
0.6556102752685546,0.7096744537353515
0.6479038238525391,0.7094444274902344
0.6479038238525391,0.7094444274902344
0.6523452758789062,0.7027015686035156
0.6523452758789062,0.7027015686035156
0.6484542846679687,0.6994405746459961
0.6484542846679687,0.6994405746459961
0.6339094161987304,0.6746778488159180
0.6339094161987304,0.6746778488159180
0.6309608459472656,0.6627393722534179
0.6309608459472656,0.6627393722534179
0.6131286621093750,0.6471857070922852
0.6131286621093750,0.6471857070922852
0.6115665435791016,0.6329389572143554
0.6115665435791016,0.6329389572143554
0.6075834274291992,0.6321556091308593
0.6075834274291992,0.6321556091308593
0.5982032775878906,0.6182607650756836
0.5982032775878906,0.6182607650756836
0.6033285140991210,0.6200094223022461
0.6033285140991210,0.6200094223022461
0.5924131393432617,0.6153116226196289
0.5924131393432617,0.6153116226196289
0.5963401794433594,0.6092531204223632
0.5896699905395507,0.6092531204223632
0.5959081649780273,0.6144687652587890
0.5959081649780273,0.6144687652587890
0.5894771575927734,0.6047550201416015
0.5894771575927734,0.6047550201416015
0.5966423034667968,0.6097200393676757
0.5966423034667968,0.6097200393676757
0.5873394012451172,0.6076990127563476
0.5873394012451172,0.6076990127563476
0.5925584793090820,0.6039115905761718
0.5925584793090820,0.6039115905761718
0.5935901641845703,0.6109628677368164
0.5935901641845703,0.6109628677368164
0.5880895614624023,0.6029983520507812
0.5880895614624023,0.6029983520507812
0.5963350296020508,0.6097915649414062
0.5963350296020508,0.6097915649414062
0.5883602142333985,0.6096714019775390
0.5883602142333985,0.6096714019775390
0.5947500228881836,0.6080892562866210
0.5947500228881836,0.6080892562866210
0.5972236633300781,0.6176542282104492
0.5972236633300781,0.6176542282104492
0.5934059143066406,0.6126377105712890
0.5934059143066406,0.6126377105712890
0.6034360885620117,0.6224367141723632
0.6034360885620117,0.6224367141723632
0.5973398208618164,0.6255277633666992
0.5973398208618164,0.6255277633666992
0.6055303573608398,0.6269845962524414
0.6055303573608398,0.6269845962524414
0.6097812652587891,0.6392045974731445
0.6097812652587891,0.6392045974731445
0.6072744369506836,0.6364053726196289
0.6072744369506836,0.6364053726196289
0.6184776306152343,0.6479564666748047
0.6184776306152343,0.6479564666748047
0.6129478454589844,0.6521066665649414
0.6129478454589844,0.6521066665649414
0.6214633941650390,0.6536544799804688
0.6214633941650390,0.6536544799804688
0.6253217697143555,0.6657308578491211
0.6253217697143555,0.6657308578491211
0.6223102569580078,0.6617414474487304
0.6223102569580078,0.6617414474487304
0.6327426910400390,0.6718139648437500
0.6327426910400390,0.6718139648437500
0.6264163970947265,0.6741519927978515
0.6264163970947265,0.6741519927978515
0.6335403442382812,0.6736621856689453
0.6335403442382812,0.6736621856689453
0.6365289688110352,0.6838359832763672
0.6365289688110352,0.6838359832763672
0.6325309753417968,0.6783885955810547
0.6325309753417968,0.6783885955810547
0.6417778015136718,0.6869338989257813
0.6417778015136718,0.6869338989257813
0.6347270965576172,0.6883117675781250
0.6347270965576172,0.6883117675781250
0.6415660858154296,0.6875387191772461
0.6415660858154296,0.6875387191772461
0.6440076828002930,0.6970865249633789
0.6440076828002930,0.6970865249633789
0.6397996902465820,0.6911499023437500
0.6397996902465820,0.6911499023437500
0.6490419387817382,0.6993988037109374
0.6490419387817382,0.6993988037109374
0.6416467666625977,0.7003549575805664
0.6416467666625977,0.7003549575805664
0.6484331130981446,0.6993284225463867
0.6484331130981446,0.6993284225463867
0.6511877059936523,0.7091440200805664
0.6511877059936523,0.7091440200805664
0.6471176147460938,0.7039049148559570
0.6471176147460938,0.7039049148559570
0.6566488265991210,0.7126361846923828
0.6566488265991210,0.7126361846923828
0.6496147155761719,0.7143430709838867
0.6496147155761719,0.7143430709838867
0.6566579818725585,0.7138813018798827
0.6566579818725585,0.7138813018798827
0.6594663619995117,0.7237335205078125
0.6594663619995117,0.7237335205078125
0.6545648574829102,0.7159252166748047
0.6545648574829102,0.7159252166748047
0.6596946716308594,0.7141685485839844
0.6596946716308594,0.7141685485839844
0.6406894683837890,0.6916797637939452
0.6406894683837890,0.6916797637939452
0.6301877975463867,0.6615629196166992
0.6301877975463867,0.6615629196166992
0.6189371109008789,0.6498859405517577
0.6189371109008789,0.6498859405517577
0.6048585891723632,0.6291097640991211
0.6048585891723632,0.6291097640991211
0.6070724487304687,0.6265645980834961
0.6070724487304687,0.6265645980834961
0.5946607589721680,0.6194847106933593
0.5946607589721680,0.6194847106933593
0.5970605850219727,0.6115505218505859
0.5970605850219727,0.6115505218505859
0.5959568023681641,0.6152292251586914
0.5959568023681641,0.6152292251586914
0.5885038375854492,0.6044116973876953
0.5885038375854492,0.6044116973876953
0.5950836181640625,0.6082311630249023
0.5853738784790039,0.6052316665649414
0.5853738784790039,0.6052316665649414
0.5898159027099609,0.6004852294921875
0.5898159027099609,0.6004852294921875
0.5903921127319336,0.6066158294677734
0.5903921127319336,0.6066158294677734
0.5841373443603516,0.5978033065795898
0.5841373443603516,0.5978033065795898
0.5920280456542969,0.6036764144897461
0.5920280456542969,0.6036764144897461
0.5833929061889648,0.6025903701782226
0.5833929061889648,0.6025903701782226
0.5889867782592774,0.5998878479003906
0.5889867782592774,0.5998878479003906
0.5910684585571289,0.6081699371337891
0.5910684585571289,0.6081699371337891
0.5863380432128906,0.6018785476684571
0.5863380432128906,0.6018785476684571
0.5956809997558593,0.6103374481201171
0.5956809997558593,0.6103374481201171
0.5890130996704102,0.6123802185058593
0.5890130996704102,0.6123802185058593
0.5966548919677734,0.6127761840820313
0.5966548919677734,0.6127761840820313
0.6003519058227539,0.6240869522094726
0.6003519058227539,0.6240869522094726
0.5974502563476562,0.6204454421997070
0.5974502563476562,0.6204454421997070
0.6080371856689453,0.6309408187866211
0.6080371856689453,0.6309408187866211
0.6021526336669921,0.6342298507690429
0.6021526336669921,0.6342298507690429
0.6100639343261719,0.6348621368408203
0.6100639343261719,0.6348621368408203
0.6137306213378906,0.6460172653198242
0.6166276931762695,0.6460172653198242
0.6102773666381835,0.6414768218994140
0.6102773666381835,0.6414768218994140
0.6203985214233398,0.6511219024658202
0.6203985214233398,0.6511219024658202
0.6138095855712891,0.6530313491821289
0.6138095855712891,0.6530313491821289
0.6208087921142578,0.6524608612060546
0.6208087921142578,0.6524608612060546
0.6235095977783203,0.6619474411010742
0.6235095977783203,0.6619474411010742
0.6192283630371094,0.6560308456420898
0.6192283630371094,0.6560308456420898
0.6283418655395507,0.6642345428466797
0.6283418655395507,0.6642345428466797
0.6209203720092773,0.6651809692382812
0.6209203720092773,0.6651809692382812
0.6276357650756835,0.6640285491943360
0.6276357650756835,0.6640285491943360
0.6302124023437500,0.6735843658447266
0.6302124023437500,0.6735843658447266
0.6260210037231445,0.6682188034057617
0.6260210037231445,0.6682188034057617
0.6357782363891601,0.6771411895751953
0.6357782363891601,0.6771411895751953
0.6291355133056641,0.6792789459228515
0.6291355133056641,0.6792789459228515
0.6364316940307617,0.6794466018676758
0.6364316940307617,0.6794466018676758
0.6399187088012696,0.6902538299560547
0.6399187088012696,0.6902538299560547
0.6367092132568359,0.6863199234008789
0.6367092132568359,0.6863199234008789
0.6470237731933594,0.6961303710937500
0.6470237731933594,0.6961303710937500
0.6406448364257812,0.6986852645874023
0.6406448364257812,0.6986852645874023
0.6479536056518554,0.6988386154174805
0.6479536056518554,0.6988386154174805
0.6511505126953124,0.7093637466430663
0.6511505126953124,0.7093637466430663
0.6473539352416992,0.7043048858642578
0.6473539352416992,0.7043048858642578
0.6569120407104492,0.7129056930541992
0.6569120407104492,0.7129056930541992
0.6494985580444336,0.7128890991210938
0.6494985580444336,0.7128890991210938
0.6537986755371094,0.7064718246459961
0.6537986755371094,0.7064718246459961
0.6499065399169922,0.7019027709960938
0.6499065399169922,0.7019027709960938
0.6319564819335938,0.6709682464599609
0.6319564819335938,0.6709682464599609
0.6254459381103515,0.6543119430541992
0.6254459381103515,0.6543119430541992
0.6067691802978515,0.6380155563354492
0.6067691802978515,0.6380155563354492
0.6053169250488281,0.6244880676269531
0.6053169250488281,0.6244880676269531
0.6017612457275391,0.6248136520385742
0.6017612457275391,0.6248136520385742
0.5927856445312499,0.6116952896118164
0.5927856445312499,0.6116952896118164
0.5982278823852539,0.6137952804565430
0.5913316726684570,0.6137952804565430
0.5877433776855469,0.6099586486816406
0.5877433776855469,0.6099586486816406
0.5915502548217774,0.6043830871582031
0.5915502548217774,0.6043830871582031
0.5916120529174804,0.6097452163696289
0.5916120529174804,0.6097452163696289
0.5849962234497070,0.6003742218017578
0.5849962234497070,0.6003742218017578
0.5924028396606446,0.6054840087890625
0.5924028396606446,0.6054840087890625
0.5834518432617187,0.6040088653564453
0.5834518432617187,0.6040088653564453
0.5885524749755859,0.6003433227539062
0.5885524749755859,0.6003433227539062
0.5897443771362304,0.6076080322265625
0.5897443771362304,0.6076080322265625
0.5844137191772460,0.6000143051147461
0.5844137191772460,0.6000143051147461
0.5928588867187500,0.6070363998413085
0.5928588867187500,0.6070363998413085
0.5851295471191406,0.6073951721191406
0.5851295471191406,0.6073951721191406
0.5914083480834961,0.6055692672729492
0.5862865447998047,0.6055692672729492
0.5938905715942383,0.6149190902709961
0.5938905715942383,0.6149190902709961
0.5899435043334961,0.6099288940429687
0.5899435043334961,0.6099288940429687
0.5998723983764648,0.6192523956298828
0.5998723983764648,0.6192523956298828
0.5936845779418946,0.6219938278198242
0.5936845779418946,0.6219938278198242
0.6013732910156250,0.6229625701904297
0.6013732910156250,0.6229625701904297
0.6053209304809570,0.6346326828002929
0.6053209304809570,0.6346326828002929
0.6023975372314453,0.6317813873291015
0.6023975372314453,0.6317813873291015
0.6133998870849610,0.6427494049072265
0.6088119506835937,0.6393436431884766
0.6164079666137695,0.6520208358764649
0.6164079666137695,0.6478998184204101
0.6127578735351562,0.6515110015869140
0.6127578735351562,0.6515110015869140
0.6232315063476562,0.6576719284057617
0.6232315063476562,0.6576719284057617
0.6214450836181641,0.6656948089599609
0.6214450836181641,0.6656948089599609
0.6228349685668945,0.6621706008911132
0.6228349685668945,0.6621706008911132
0.6307594299316406,0.6730688095092773
0.6307594299316406,0.6730688095092773
0.6246992111206054,0.6705820083618164
0.6246992111206054,0.6705820083618164
0.6339723587036132,0.6748592376708984
0.6339723587036132,0.6748592376708984
0.6312417984008789,0.6812250137329101
0.6312417984008789,0.6812250137329101
0.6317647933959961,0.6760751724243164
0.6317647933959961,0.6760751724243164
0.6388790130615234,0.6858839035034180
0.6388790130615234,0.6858839035034180
0.6323524475097656,0.6828123092651367
0.6323524475097656,0.6828123092651367
0.6411094665527344,0.6867382049560546
0.6411094665527344,0.6867382049560546
0.6380956649780273,0.6927085876464844
0.6380956649780273,0.6927085876464844
0.6383405685424804,0.6875026702880859
0.6383405685424804,0.6875026702880859
0.6453409194946289,0.6971117019653320
0.6453409194946289,0.6971117019653320
0.6387462615966797,0.6939262390136719
0.6387462615966797,0.6939262390136719
0.6473745346069336,0.6977085113525391
0.6473745346069336,0.6977085113525391
0.6443807601928710,0.7037572860717773
0.6443807601928710,0.7037572860717773
0.6448728561401367,0.6987030029296875
0.6448728561401367,0.6987030029296875
0.6518388748168945,0.7082788467407226
0.6518388748168945,0.7082788467407226
0.6449632644653320,0.7046190261840820
0.6449632644653320,0.7046190261840820
0.6527446746826172,0.7055574417114258
0.6527446746826172,0.7055574417114258
0.6459377288818359,0.7035633087158203
0.6459377288818359,0.7035633087158203
0.6379045486450196,0.6813148498535156
0.6379045486450196,0.6813148498535156
0.6298931121826171,0.6640851974487304
0.6298931121826171,0.6640851974487304
0.6086139678955078,0.6387496948242187
0.6086139678955078,0.6387496948242187
0.6070312500000000,0.6270063400268554
0.6070312500000000,0.6270063400268554
0.5966863632202148,0.6220069885253906
0.5966863632202148,0.6220069885253906
0.5918437957763671,0.6085767745971680
0.5918437957763671,0.6085767745971680
0.5947099685668945,0.6119716644287109
0.5947099685668945,0.6119716644287109
0.5849767684936523,0.6034727096557617
0.5849767684936523,0.6034727096557617
0.5908870697021484,0.6027322769165039
0.5832223892211914,0.6027322769165039
0.5855306625366211,0.6048231124877930
0.5855306625366211,0.6048231124877930
0.5836761474609374,0.5960769653320312
0.5836761474609374,0.5960769653320312
0.5885576248168946,0.6026063919067383
0.5885576248168946,0.6026063919067383
0.5801593780517578,0.5965719223022461
0.5801593780517578,0.5965719223022461
0.5872261047363281,0.5976814270019531
0.5872261047363281,0.5976814270019531
0.5828298568725586,0.6015352249145508
0.5828298568725586,0.6015352249145508
0.5821775436401367,0.5945995330810546
0.5821775436401367,0.5945995330810546
0.5882537841796874,0.6028152465820312
0.5882537841796874,0.6028152465820312
0.5809667587280273,0.5987302780151367
0.5809667587280273,0.5987302780151367
0.5895338058471680,0.6021171569824219
0.5895338058471680,0.6021171569824219
0.5866109848022460,0.6085504531860352
0.5866109848022460,0.6085504531860352
0.5877445220947265,0.6047704696655273
0.5877445220947265,0.6047704696655273
0.5957691192626953,0.6162111282348632
0.5957691192626953,0.6162111282348632
0.5905488967895508,0.6155267715454101
0.5905488967895508,0.6155267715454101
0.6009635925292969,0.6220298767089844
0.6009635925292969,0.6220298767089844
0.6001253128051758,0.6316938400268555
0.6001253128051758,0.6316938400268555
0.6028089523315430,0.6304275512695312
0.6028089523315430,0.6304275512695312
0.6121438980102539,0.6441146850585937
0.6115877151489257,0.6441146850585937
0.6078884124755859,0.6445352554321289
0.6078884124755859,0.6445352554321289
0.6186607360839843,0.6513988494873046
0.6186607360839843,0.6513988494873046
0.6173578262329101,0.6599378585815430
0.6173578262329101,0.6599378585815430
0.6190790176391602,0.6568937301635742
0.6190790176391602,0.6568937301635742
0.6271762847900391,0.6679870605468750
0.6271762847900391,0.6679870605468750
0.6211275100708008,0.6655963897705078
0.6211275100708008,0.6655963897705078
0.6302215576171875,0.6699216842651367
0.6302215576171875,0.6699216842651367
0.6275608062744140,0.6764162063598632
0.6275608062744140,0.6764162063598632
0.6281318664550781,0.6716657638549804
0.6281318664550781,0.6716657638549804
0.6351602554321288,0.6812330245971679
0.6351602554321288,0.6812330245971679
0.6284957885742187,0.6782152175903320
0.6284957885742187,0.6782152175903320
0.6371961593627929,0.6820186614990235
0.6371961593627929,0.6820186614990235
0.6342824935913086,0.6880050659179687
0.6342824935913086,0.6880050659179687
0.6348575592041016,0.6832849502563476
0.6348575592041016,0.6832849502563476
0.6420833587646484,0.6933923721313476
0.6420833587646484,0.6933923721313476
0.6360700607299804,0.6912586212158203
0.6433599472045898,0.6912586212158203
0.6454067230224609,0.6957590103149414
0.6454067230224609,0.6957590103149414
0.6427373886108398,0.7025871276855469
0.6427373886108398,0.7025871276855469
0.6438343048095703,0.6983997344970703
0.6438343048095703,0.6983997344970703
0.6512100219726562,0.7088075637817383
0.6512100219726562,0.7088075637817383
0.6452053070068359,0.7064958572387695
0.6452053070068359,0.7064958572387695
0.6543537139892578,0.7108280181884765
0.6543537139892578,0.7108280181884765
0.6515876770019531,0.7169340133666992
0.6515876770019531,0.7169340133666992
0.6517330169677734,0.7108760833740234
0.6517330169677734,0.7108760833740234
0.6568141937255859,0.7157987594604492
0.6568141937255859,0.7157987594604492
0.6440305709838867,0.6991258621215820
0.6440305709838867,0.6991258621215820
0.6393928527832031,0.6777545928955078
0.6393928527832031,0.6777545928955078
0.6194578170776367,0.6561126708984375
0.6194578170776367,0.6561126708984375
0.6070758819580078,0.6317922592163085
0.6070758819580078,0.6317922592163085
0.6050600051879883,0.6276941299438477
0.6050600051879883,0.6276941299438477
0.5919021606445313,0.6144327163696289
0.5919021606445313,0.6144327163696289
0.5954423904418945,0.6106292724609375
0.5954423904418945,0.6106292724609375
0.5885055541992187,0.6101079940795898
0.5885055541992187,0.6101079940795898
0.5855129241943359,0.5998100280761719
0.5855129241943359,0.5998100280761719
0.5893381118774413,0.6046302795410156
0.5893381118774413,0.6046302795410156
0.5800935745239257,0.5971475601196289
0.5800935745239257,0.5971475601196289
0.5863889694213867,0.5971567153930664
0.5863889694213867,0.5971567153930664
0.5813667297363281,0.5997814178466797
0.5813667297363281,0.5997814178466797
0.5800243377685547,0.5918008804321289
0.5800243377685547,0.5918008804321289
0.5850877761840820,0.5986381530761719
0.5850877761840820,0.5986381530761719
0.5771347045898437,0.5930952072143555
0.5771347045898437,0.5930952072143555
0.5847301483154297,0.5947374343872071
0.5847301483154297,0.5947374343872071
0.5807413101196289,0.5992292404174805
0.5807413101196289,0.5992292404174805
0.5805845260620117,0.5929321289062500
0.5805845260620117,0.5929321289062500
0.5869274139404297,0.6016004562377929
0.5869274139404297,0.6016004562377929
0.5802406311035156,0.5984275817871093
0.5802406311035156,0.5984275817871093
0.5893043518066406,0.6026166915893555
0.5893043518066406,0.6026166915893555
0.5869377136230468,0.6096181869506836
0.5869377136230468,0.6096181869506836
0.5881656646728516,0.6059812545776367
0.5881656646728516,0.6059812545776367
0.5960105895996094,0.6172285079956055
0.5960105895996094,0.6172285079956055
0.5906066894531250,0.6158397674560546
0.5906066894531250,0.6158397674560546
