REDsignal,IRsignal
0.5396364212036132,0.4852586746215820
0.5242910385131836,0.4852586746215820
0.5367565155029297,0.5030090332031250
0.5513134002685547,0.5030090332031250
0.5305446624755860,0.4779716491699219
0.5212188720703125,0.4779716491699219
0.5505203247070313,0.5049757003784180
0.5456909179687500,0.5049757003784180
0.5230630874633789,0.4917308807373046
0.5363817214965820,0.4917308807373046
0.5472696304321288,0.4950450897216797
0.5327322006225585,0.4950450897216797
0.5417798995971680,0.5119050979614258
0.5556816101074219,0.5119050979614258
0.5355245590209960,0.4867870330810546
0.5264905929565430,0.4867870330810546
0.5524618148803710,0.5118839263916015
0.5483402252197266,0.5118839263916015
0.5305000305175781,0.4992221832275390
0.5443313598632812,0.4992221832275390
0.5525007247924805,0.5021066665649414
0.5369596481323242,0.5021066665649414
0.5465200424194335,0.5186983108520508
0.5598855972290039,0.5186983108520508
0.5365911483764648,0.4924272537231445
0.5275405883789063,0.4924272537231445
0.5587972640991211,0.5186107635498046
0.5552124023437500,0.5186107635498046
0.5340322494506836,0.5052097320556640
0.5472278594970703,0.5052097320556640
0.5561027526855469,0.5090160369873047
0.5403711318969726,0.5090160369873047
0.5467288970947265,0.5244987487792968
0.5608509063720702,0.5244987487792968
0.5426136016845703,0.4988468170166016
0.5338388442993164,0.4988468170166016
0.5621120452880859,0.5236198425292968
0.5568288803100586,0.5236198425292968
0.5349489212036133,0.5045574188232421
0.5455741882324219,0.5045574188232421
0.5486658096313476,0.4956933975219726
0.5286684036254883,0.4956933975219726
0.5358695983886719,0.4975376129150391
0.5465749740600586,0.4975376129150391
0.5218809127807617,0.4608718872070312
0.5096471786499023,0.4608718872070312
0.5370225906372070,0.4807170867919922
0.5301738739013672,0.4807170867919922
0.5054580688476562,0.4608015060424804
0.5177604675292968,0.4608015060424804
0.5278730392456055,0.4614784240722656
0.5117437362670898,0.4614784240722656
0.5201425552368164,0.4757406234741210
0.5339441299438477,0.4757406234741210
0.5129911422729492,0.4483348846435547
0.5029008865356445,0.4483348846435547
0.5295942306518554,0.4727308273315429
0.5247207641601562,0.4727308273315429
0.5056743621826172,0.4567262649536132
0.5197294235229492,0.4567262649536132
0.5274198532104492,0.4590047836303711
0.5107875823974609,0.4590047836303711
0.5201316833496094,0.4745201110839843
0.5339464187622071,0.4745201110839843
0.5104614257812500,0.4465930938720703
0.5010051727294922,0.4465930938720703
0.5320758819580078,0.4727508544921875
0.5277465820312500,0.4727508544921875
0.5066740036010742,0.4571096420288085
0.5198781967163085,0.4571096420288085
0.5285133361816406,0.4607837677001953
0.5122381210327148,0.4607837677001953
0.5187784194946289,0.4765457153320312
0.5333152770996094,0.4765457153320312
0.5150756835937500,0.4516256332397461
0.5065212249755859,0.4516256332397461
0.5353345870971680,0.4789684295654297
0.5311449050903320,0.4789684295654297
0.5329971313476562,0.4860929489135742
0.5307821273803711,0.4860929489135742
0.5276126861572266,0.4858034133911133
0.5276126861572266,0.4891313552856445
0.5413335800170899,0.4891313552856445
0.5443181991577148,0.4928712844848633
0.5443181991577148,0.4988851547241211
0.5443181991577148,0.4950542449951172
0.5174388885498047,0.4811416625976562
0.5311254501342774,0.4811416625976562
0.5432756423950195,0.4877391815185547
0.5282924652099609,0.4877391815185547
0.5369401931762695,0.5053087234497070
0.5521368026733399,0.5053087234497070
0.5320083618164062,0.4812984466552734
0.5221458435058594,0.4812984466552734
0.5489713668823242,0.5076862335205078
0.5450757980346680,0.5076862335205078
0.5265518188476562,0.4934131622314453
0.5401428222656249,0.4934131622314453
0.5495344161987304,0.4981933593750000
0.5339504241943359,0.4981933593750000
0.5430536270141602,0.5146957397460937
0.5574148178100585,0.5146957397460937
0.5348556518554687,0.4891330718994140
0.5253856658935546,0.4891330718994140
0.5564163208007812,0.5153743743896484
0.5533676147460938,0.5153743743896484
0.5316747665405274,0.4998327255249023
0.5440286636352539,0.4998327255249023
0.5538682937622070,0.5043365478515625
0.5380931854248047,0.5043365478515625
0.5435251235961914,0.5186296463012695
0.5578079223632812,0.5186296463012695
0.5401697158813477,0.4934566497802734
0.5309263229370117,0.4934566497802734
0.5588430404663086,0.5184362411499023
0.5545898437500000,0.5184362411499023
0.5336254119873046,0.5023630142211913
0.5450574874877929,0.5023630142211913
0.5520709991455078,0.5054037094116210
0.5365997314453125,0.5054037094116210
0.5468044281005859,0.5203926086425781
0.5618156433105469,0.5203926086425781
0.5406932830810547,0.4939990997314453
0.5299953460693360,0.4939990997314453
0.5575836181640624,0.5158893585205078
0.5516578674316406,0.5158893585205078
0.5253124237060547,0.4892520904541016
0.5338239669799805,0.4892520904541016
0.5420408248901367,0.4815233230590820
0.5236501693725586,0.4815233230590820
0.5287662506103515,0.4873552322387695
0.5409862518310546,0.4873552322387695
0.5194272994995117,0.4561752319335937
0.5075769424438477,0.4561752319335937
0.5325496673583984,0.4763185501098632
0.5276636123657227,0.4763185501098632
0.5076301574707031,0.4563823699951172
0.5192195892333984,0.4563823699951172
0.5280607223510742,0.4589550018310546
0.5117963790893555,0.4589550018310546
0.5196687698364257,0.4726650238037109
0.5335372924804688,0.4726650238037109
0.5102342605590821,0.4452518463134765
0.4998195648193359,0.4452518463134765
0.5304422378540039,0.4706491470336914
0.5267812728881835,0.4706491470336914
0.5046735763549804,0.4525005340576171
0.5161634445190429,0.4525005340576171
0.5260986328125000,0.4573688507080078
0.5100225448608399,0.4573688507080078
0.5157995223999023,0.4714302062988281
0.5307249069213867,0.4714302062988281
0.5124858856201172,0.4463842391967773
0.5030284881591797,0.4463842391967773
0.5312639236450195,0.4724596023559570
0.5276229858398437,0.4724596023559570
0.5065080642700195,0.4554891586303711
0.5185192108154296,0.4554891586303711
0.5264671325683593,0.4604484558105468
0.5110673904418945,0.4604484558105468
0.5214786529541016,0.4763214111328125
0.5374265670776367,0.4763214111328125
0.5172574996948242,0.4526098251342773
0.5069932937622070,0.4526098251342773
0.5362020492553711,0.4802261352539062
0.5328002929687500,0.4802261352539062
0.5093233108520507,0.4641168594360351
0.5218677520751953,0.4641168594360351
0.5351240158081054,0.4727079391479492
0.5210088729858399,0.4727079391479492
0.5289287567138672,0.4903535842895508
0.5449253082275390,0.4903535842895508
0.5258531570434570,0.4687551498413086
0.5160587310791015,0.4687551498413086
0.5427886962890625,0.4961185455322266
0.5397697448730469,0.4961185455322266
0.5212532043457031,0.4812520980834961
0.5339641571044922,0.4812520980834961
0.5447010040283203,0.4889001846313477
0.5298442840576172,0.4889001846313477
0.5382328033447266,0.5057132720947265
0.5535787582397461,0.5057132720947265
0.5319305419921875,0.4822408676147460
0.5222167968750000,0.4822408676147460
0.5529739379882812,0.5093976974487304
0.5506662368774414,0.5093976974487304
0.5288835525512695,0.4928558349609375
0.5405284881591796,0.4928558349609375
0.5516710281372070,0.4999288558959961
0.5362203598022460,0.4999288558959961
0.5413204193115234,0.5145572662353516
0.5566543579101563,0.5145572662353516
0.5391626358032227,0.4910717010498047
0.5294208526611328,0.4910717010498047
0.5576196670532226,0.5174812316894531
0.5539575576782226,0.5174812316894531
0.5323797225952148,0.4999036788940430
0.5435977935791015,0.4999036788940430
0.5520566940307617,0.5057567596435547
0.5364933013916016,0.5057567596435547
0.5464056015014648,0.5211496353149414
0.5625400543212891,0.5211496353149414
0.5420837402343750,0.4967926025390625
0.5318189620971679,0.4967926025390625
0.5608657836914063,0.5232404708862305
0.5572614669799805,0.5232404708862305
0.5330812454223632,0.5036075592041015
0.5449853897094726,0.5036075592041015
0.5578742980957031,0.5099206924438476
0.5426467895507813,0.5099206924438476
0.5498708724975586,0.5241806030273437
0.5650028228759766,0.5241806030273437
0.5450214385986328,0.4989303588867187
0.5337421417236328,0.4989303588867187
0.5592550277709961,0.5219232559204101
0.5544456481933594,0.5219232559204101
0.5326332092285156,0.4966060638427734
0.5419029235839844,0.4966060638427734
0.5482429504394531,0.4905532836914062
0.5276481628417968,0.4905532836914062
0.5310802459716797,0.4910408020019531
0.5424688339233398,0.4910408020019531
0.5172019958496094,0.4565288543701171
0.5042713165283202,0.4565288543701171
0.5333971023559571,0.4769554138183594
0.5286312103271484,0.4769554138183594
0.5250772476196289,0.4767866134643555
0.5250772476196289,0.4767866134643555
0.5250772476196289,0.4783498764038085
0.5068319320678710,0.4481992721557617
0.5082744598388672,0.4481992721557617
0.5282381057739257,0.4650283813476562
0.5282381057739257,0.4650283813476562
0.5070230484008789,0.4626342773437500
0.5070230484008789,0.4626342773437500
0.5177169799804687,0.4538738250732421
0.5177169799804687,0.4538738250732421
0.5238698959350586,0.4714719772338867
0.5238698959350586,0.4714719772338867
0.5067787170410156,0.4471527099609375
0.5067787170410156,0.4471527099609375
0.5299192428588867,0.4651199340820312
0.5299192428588867,0.4651199340820312
0.5073274612426758,0.4679426193237304
0.5073274612426758,0.4679426193237304
0.5187578201293945,0.4517383575439453
0.5187578201293945,0.4517383575439453
0.5244421005249024,0.4742952346801758
0.5244421005249024,0.4742952346801758
0.5091922760009765,0.4511535644531250
0.5091922760009765,0.4511535644531250
0.5316558837890625,0.4747890472412109
0.5316558837890625,0.4747890472412109
0.5105072021484375,0.4698320388793945
0.5105072021484375,0.4698320388793945
0.5229612350463867,0.4599266052246094
0.5229612350463867,0.4599266052246094
0.5310510635375977,0.4844083786010742
0.5310510635375977,0.4844083786010742
0.5153320312499999,0.4670751571655273
0.5153320312499999,0.4670751571655273
0.5393154144287109,0.4834316253662109
0.5393154144287109,0.4834316253662109
0.5184099197387695,0.4843683242797852
0.5184099197387695,0.4843683242797852
0.5325634002685546,0.4754241943359375
0.5325634002685546,0.4754241943359375
0.5397296905517578,0.5035726547241210
0.5397296905517578,0.5035726547241210
0.5248008728027344,0.4773239135742187
0.5248008728027344,0.4773239135742187
0.5475522994995117,0.4965042114257812
0.5475522994995117,0.4965042114257812
0.5278324127197266,0.4958473205566406
0.5278324127197266,0.4958473205566406
0.5387426376342773,0.4897911071777343
0.5387426376342773,0.4897911071777343
0.5452228546142578,0.5069360733032227
0.5452228546142578,0.5069360733032227
0.5283159255981446,0.4833572387695312
0.5283159255981446,0.4833572387695312
0.5521957397460937,0.5019201278686524
0.5416334152221679,0.5019201278686524
0.5299896240234375,0.5045608520507813
0.5299896240234375,0.5045608520507813
0.5414091110229492,0.4884160995483398
0.5414091110229492,0.4884160995483398
0.5468461990356445,0.5095338821411133
0.5468461990356445,0.5095338821411133
0.5315139770507812,0.4858245849609375
0.5315139770507812,0.4858245849609375
0.5529132843017578,0.5081480026245117
0.5529132843017578,0.5081480026245117
0.5310127258300781,0.5006034851074218
0.5310127258300781,0.5006034851074218
0.5410629272460937,0.4886398315429688
0.5410629272460937,0.4886398315429688
0.5475837707519531,0.5091625213623047
0.5475837707519531,0.5091625213623047
0.5305303573608399,0.4887405395507812
0.5305303573608399,0.4887405395507812
0.5521224975585938,0.5007728576660156
0.5521224975585938,0.5007728576660156
0.5296731948852539,0.4963525772094726
0.5296731948852539,0.4963525772094726
0.5397972106933594,0.4814718246459961
0.5397972106933594,0.4814718246459961
0.5406412124633789,0.5001113891601562
0.5406412124633789,0.5001113891601562
0.5189300537109375,0.4618623733520508
0.5189300537109375,0.4618623733520508
0.5351457595825195,0.4733316421508789
0.5351457595825195,0.4733316421508789
0.5113992691040039,0.4658329010009765
0.5113992691040039,0.4658329010009765
0.5192304611206054,0.4555315017700195
0.5192304611206054,0.4555315017700195
0.5226202011108398,0.4697965621948242
0.5226202011108398,0.4697965621948242
0.5057075500488281,0.4443729400634766
0.5057075500488281,0.4443729400634766
0.5279880523681640,0.4621747970581054
0.5279880523681640,0.4621747970581054
0.5059175491333008,0.4634250640869140
0.5257347106933593,0.4634250640869140
0.5172157287597656,0.4480041503906250
0.5172157287597656,0.4480041503906250
0.5218379974365234,0.4691780090332031
0.5218379974365234,0.4691780090332031
0.5077749252319336,0.4458217620849609
0.5077749252319336,0.4458217620849609
0.5295141220092773,0.4692117691040039
0.5295141220092773,0.4692117691040039
0.5086830139160156,0.4626308441162109
0.5086830139160156,0.4626308441162109
0.5203582763671875,0.4526584625244141
0.5203582763671875,0.4526584625244141
0.5266153335571289,0.4750991821289062
0.5266153335571289,0.4750991821289062
0.5112567901611328,0.4576435089111328
0.5112567901611328,0.4576435089111328
0.5343595504760742,0.4739204406738281
0.5343595504760742,0.4739204406738281
0.5135250091552734,0.4736612319946289
0.5135250091552734,0.4736612319946289
0.5280796051025390,0.4662614822387695
0.5280796051025390,0.4662614822387695
0.5342044830322266,0.4952156066894531
0.5342044830322266,0.4952156066894531
0.5205265045166015,0.4699241638183593
0.5205265045166015,0.4699241638183593
0.5441144943237305,0.4921337127685547
0.5441144943237305,0.4921337127685547
0.5251710891723632,0.4919895172119140
0.5251710891723632,0.4919895172119140
0.5375432968139648,0.4885276794433593
0.5375432968139648,0.4885276794433593
0.5435720443725586,0.5071203231811523
0.5435720443725586,0.5071203231811523
0.5282793045043945,0.4846538543701172
0.5282793045043945,0.4846538543701172
0.5528360366821289,0.5060972213745117
0.5528360366821289,0.5060972213745117
0.5317199707031249,0.5088878631591797
0.5317199707031249,0.5088878631591797
0.5443593978881835,0.4951932907104492
0.5443593978881835,0.4951932907104492
0.5495607376098632,0.5172683715820312
0.5495607376098632,0.5172683715820312
0.5350742340087891,0.4931774139404297
0.5350742340087891,0.4931774139404297
0.5576328277587891,0.5185461044311523
0.5576328277587891,0.5185461044311523
0.5354284286499024,0.5101707458496093
0.5354284286499024,0.5101707458496093
0.5471523284912109,0.4995872497558593
0.5471523284912109,0.4995872497558593
0.5521974563598633,0.5209310531616210
0.5521974563598633,0.5209310531616210
0.5348201751708984,0.4988159179687500
0.5348201751708984,0.4988159179687500
0.5577289581298828,0.5145624160766601
0.5577289581298828,0.5145624160766601
0.5344848632812500,0.5091859817504882
0.5344848632812500,0.5091859817504882
0.5474452972412109,0.4975845336914062
0.5324106216430664,0.4975845336914062
0.5504602432250977,0.5212411880493164
0.5579589843750000,0.5212411880493164
0.5336151123046875,0.4894895553588867
0.5336151123046875,0.4894895553588867
0.5557760238647461,0.5090663909912109
0.5557760238647461,0.5090663909912109
0.5313486099243164,0.5016746520996094
0.5313486099243164,0.5016746520996094
0.5437362670898437,0.4926921844482421
0.5437362670898437,0.4926921844482421
0.5448789596557617,0.5047657012939453
0.5448789596557617,0.5047657012939453
0.5233325958251953,0.4687585830688477
0.5233325958251953,0.4687585830688477
0.5412025451660156,0.4812726974487305
0.5412025451660156,0.4812726974487305
0.5124681472778320,0.4740983963012695
0.5124681472778320,0.4740983963012695
0.5220983505249023,0.4551807403564453
0.5220983505249023,0.4551807403564453
0.5232490539550781,0.4737190246582031
0.5232490539550781,0.4737190246582031
0.5071432113647460,0.4467218399047851
0.5071432113647460,0.4467218399047851
0.5282924652099609,0.4698623657226562
0.5282924652099609,0.4698623657226562
0.5058855056762696,0.4610137939453125
0.5058855056762696,0.4610137939453125
0.5175601959228515,0.4511335372924805
0.5175601959228515,0.4511335372924805
0.5226985931396484,0.4724510192871094
0.5226985931396484,0.4724510192871094
0.5072410583496093,0.4528020858764648
0.5072410583496093,0.4528020858764648
0.5297967910766601,0.4686298370361328
0.5297967910766601,0.4686298370361328
0.5081554412841797,0.4654186248779297
0.5081554412841797,0.4654186248779297
0.5220743179321289,0.4571376800537109
0.5220743179321289,0.4571376800537109
0.5261650085449219,0.4835626602172851
0.5261650085449219,0.4835626602172851
0.5123519897460938,0.4559246063232422
0.5123519897460938,0.4559246063232422
0.5355812072753906,0.4778675079345703
0.5355812072753906,0.4778675079345703
0.5166921615600586,0.4764186859130859
0.5166921615600586,0.4764186859130859
0.5294603347778321,0.4746047973632812
0.5294603347778321,0.4746047973632812
0.5352664947509765,0.4936111450195312
0.5352664947509765,0.4936111450195312
0.5214099884033203,0.4719148635864258
0.5214099884033203,0.4719148635864258
0.5466945648193359,0.4949626922607422
0.5466945648193359,0.4949626922607422
0.5264419555664063,0.4979221343994140
0.5264419555664063,0.4979221343994140
0.5392919540405273,0.4858457565307617
0.5392919540405273,0.4858457565307617
0.5441602706909180,0.5075397491455078
0.5441602706909180,0.5075397491455078
0.5306911468505859,0.4840433120727539
0.5306911468505859,0.4840433120727539
0.5526546478271485,0.5095224380493164
0.5526546478271485,0.5095224380493164
0.5313697814941406,0.5000679016113281
0.5313697814941406,0.5000679016113281
0.5419097900390625,0.4903924942016601
0.5419097900390625,0.4903924942016601
0.5466344833374023,0.5097661972045898
0.5466344833374023,0.5097661972045898
0.5305601119995117,0.4877437591552734
0.5305601119995117,0.4877437591552734
0.5513391494750977,0.5006326675415039
0.5513391494750977,0.5006326675415039
0.5287204742431640,0.4934137344360351
0.5287204742431640,0.4934137344360351
0.5396953582763672,0.4819587707519531
0.5396953582763672,0.4819587707519531
0.5416299819946289,0.5043142318725585
0.5416299819946289,0.5043142318725585
0.5262989044189453,0.4738712310791016
0.5262989044189453,0.4738712310791016
0.5471986770629883,0.4931636810302734
0.5471986770629883,0.4931636810302734
0.5268985748291015,0.4887817382812500
0.5268985748291015,0.4887817382812500
0.5381372451782226,0.4848678588867187
0.5381372451782226,0.4848678588867187
0.5423921585083008,0.5015207290649414
0.5423921585083008,0.5015207290649414
0.5276126861572266,0.4781038284301757
0.5276126861572266,0.4781038284301757
0.5512870788574219,0.4999374389648437
0.5512870788574219,0.4999374389648437
0.5303312301635742,0.5015087127685547
0.5303312301635742,0.5015087127685547
0.5429500579833985,0.4893476486206054
0.5429500579833985,0.4893476486206054
0.5457607269287109,0.5089874267578125
0.5457607269287109,0.5089874267578125
0.5308462142944336,0.4802787780761719
0.5308462142944336,0.4802787780761719
0.5474115371704101,0.4961494445800781
0.5474115371704101,0.4961494445800781
0.5198123931884765,0.4766687393188476
0.5198123931884765,0.4766687393188476
0.5261386871337891,0.4607110977172851
0.5261386871337891,0.4607110977172851
0.5264024734497070,0.4762996673583984
0.5264024734497070,0.4762996673583984
0.5093376159667968,0.4532827377319336
0.5093376159667968,0.4532827377319336
0.5299364089965820,0.4669847488403320
0.5299364089965820,0.4669847488403320
0.5068983078002930,0.4611202239990234
0.5068983078002930,0.4611202239990234
0.5196498870849610,0.4523374557495117
0.5196498870849610,0.4523374557495117
0.5220520019531250,0.4766092300415039
0.5220520019531250,0.4766092300415039
0.5075408935546875,0.4476036071777343
0.5075408935546875,0.4476036071777343
0.5298620223999023,0.4684089660644531
0.5298620223999023,0.4684089660644531
0.5101043701171875,0.4644012451171875
0.5101043701171875,0.4644012451171875
0.5224021911621094,0.4613096237182617
0.5224021911621094,0.4613096237182617
0.5263767242431641,0.4781301498413086
0.5263767242431641,0.4781301498413086
0.5123033523559570,0.4549386978149414
0.5123033523559570,0.4549386978149414
0.5369968414306641,0.4779155731201172
0.5369968414306641,0.4779155731201172
0.5166555404663086,0.4800710678100586
0.5166555404663086,0.4800710678100586
0.5303855895996094,0.4701719284057617
0.5303855895996094,0.4701719284057617
0.5387134552001953,0.4822374343872070
0.5387134552001953,0.4822374343872070
0.5290157318115234,0.4964796066284179
0.5475975036621094,0.4964796066284179
0.5312742233276367,0.4804023742675781
0.5208360671997070,0.4804023742675781
0.5462911605834960,0.5064056396484374
0.5456766128540039,0.5064056396484374
0.5231019973754882,0.4866210937500000
0.5340665817260742,0.4866210937500000
0.5494834899902343,0.4997062683105469
0.5340311050415039,0.4997062683105469
0.5377201080322266,0.5116733551025391
0.5572883605957031,0.5116733551025391
0.5366540908813476,0.4915065765380859
0.5247207641601562,0.4915065765380859
0.5556987762451172,0.5177209854125976
0.5545177459716797,0.5177209854125976
0.5281259536743164,0.4940179824829101
0.5386047363281250,0.4940179824829101
0.5536062240600585,0.5051816940307617
0.5373613357543945,0.5051816940307617
0.5374900817871093,0.5136692047119140
0.5560426712036133,0.5136692047119140
0.5391317367553711,0.4920129776000977
0.5274398803710937,0.4920129776000977
0.5542465209960937,0.5143884658813477
0.5518718719482422,0.5143884658813477
0.5256895065307617,0.4888795852661132
0.5347772598266601,0.4888795852661132
0.5471775054931640,0.4962759017944336
0.5307117462158203,0.4962759017944336
0.5342319488525390,0.5041351318359375
0.5535083770751953,0.5041351318359375
0.5344728469848633,0.4826580047607422
0.5221527099609374,0.4826580047607422
0.5512687683105468,0.5070928573608399
0.5490503311157227,0.5070928573608399
0.5202781677246093,0.4812755584716797
0.5311162948608398,0.4812755584716797
0.5486646652221679,0.4934383392333984
0.5323957443237305,0.4934383392333984
0.5338748931884766,0.5027818679809570
0.5529144287109374,0.5027818679809570
0.5350484848022461,0.4828411102294922
0.5222723007202148,0.4828411102294922
0.5479625701904297,0.5065446853637695
0.5461303710937500,0.5065446853637695
0.5223106384277344,0.4828056335449218
0.5327339172363281,0.4828056335449218
0.5471340179443359,0.4925125122070312
0.5307003021240234,0.4925125122070312
0.5311243057250976,0.4978832244873047
0.5468233108520507,0.4978832244873047
0.5244392395019531,0.4696844100952148
0.5108459472656249,0.4696844100952148
0.5376726150512695,0.4861066818237305
0.5348104476928711,0.4861066818237305
0.5075489044189453,0.4588972091674804
0.5150259017944335,0.4588972091674804
0.5297790527343750,0.4655988693237305
0.5141836166381836,0.4655988693237305
0.5121271133422851,0.4713575363159179
0.5291645050048828,0.4713575363159179
0.5140932083129882,0.4507713317871094
0.5034839630126953,0.4507713317871094
0.5290901184082031,0.4730272293090820
0.5276327133178711,0.4730272293090820
0.5024059295654296,0.4507513046264648
0.5104631423950196,0.4507513046264648
0.5236415863037109,0.4598533630371093
0.5099155426025390,0.4598533630371093
0.5128807067871094,0.4691196441650390
0.5311363220214843,0.4691196441650390
0.5140090942382812,0.4509372711181641
0.5033843994140624,0.4509372711181641
0.5300291061401367,0.4749544143676758
0.5289905548095702,0.4749544143676758
0.5012111663818359,0.4523311614990234
0.5100231170654297,0.4523311614990234
0.5283651351928711,0.4634811401367187
0.5155088424682617,0.4634811401367187
0.5160610198974609,0.4737464904785156
0.5339744567871093,0.4737464904785156
0.5185798645019531,0.4567714691162109
0.5079116821289062,0.4567714691162109
0.5318635940551758,0.4804962158203125
0.5317193984985351,0.4804962158203125
0.5090234756469726,0.4605840682983398
0.5185993194580077,0.4605840682983398
0.5360898971557617,0.4730232238769531
0.5220428466796875,0.4730232238769531
0.5232021331787109,0.4853502273559570
0.5418594360351562,0.4853502273559570
0.5236633300781249,0.4681823730468750
0.5134878158569336,0.4681823730468750
0.5425603866577148,0.4935047149658203
0.5430438995361327,0.4935047149658203
0.5173976898193359,0.4730175018310547
0.5261569976806640,0.4730175018310547
0.5428110122680664,0.4846881866455078
0.5287244796752929,0.4846881866455078
0.5266284942626953,0.4929697036743164
0.5448394775390625,0.4929697036743164
0.5303375244140625,0.4737350463867187
0.5198844909667969,0.4737350463867187
0.5453985214233398,0.4959434509277343
0.5442844390869140,0.4959434509277343
0.5187377929687500,0.4730518341064453
0.5266370773315430,0.4730518341064453
0.5399866104125977,0.4816732406616211
0.5255567550659179,0.4816732406616211
0.5276000976562499,0.4900371551513671
0.5461635589599609,0.4900371551513671
0.5293167114257812,0.4714696884155273
0.5178920745849609,0.4714696884155273
0.5444892883300781,0.4950954437255859
0.5431566238403320,0.4950954437255859
0.5149303436279297,0.4725734710693359
0.5235923767089844,0.4725734710693359
0.5423955917358398,0.4836427688598632
0.5290975570678711,0.4836427688598632
0.5283931732177735,0.4932518005371094
0.5467712402343750,0.4932518005371094
0.5310602188110352,0.4760484695434570
0.5203863143920898,0.4760484695434570
0.5443645477294922,0.4988599777221679
0.5438667297363281,0.4988599777221679
0.5209213256835937,0.4783813476562500
0.5302207946777343,0.4783813476562500
0.5467906951904297,0.4901939392089844
0.5329061508178711,0.4901939392089844
0.5327802658081054,0.5001995086669921
0.5510616302490234,0.5001995086669921
0.5330234527587890,0.4826076507568359
0.5222883224487305,0.4826076507568359
0.5510627746582031,0.5072319030761718
0.5513053894042969,0.5072319030761718
0.5252460479736328,0.4869575500488281
0.5340328216552734,0.4869575500488281
0.5510873794555664,0.4993789672851562
0.5368915557861328,0.4993789672851562
0.5335979461669922,0.5068679809570312
0.5515846252441406,0.5068679809570312
0.5369579315185546,0.4854623794555664
0.5244655609130859,0.4854623794555664
0.5474584579467773,0.4996496200561523
0.5434261322021484,0.4996496200561523
0.5146362304687500,0.4666374206542969
0.5191062927246094,0.4666374206542969
0.5311426162719727,0.4686635971069336
0.5152496337890625,0.4686635971069336
0.5149177551269531,0.4721746444702148
0.5326297760009765,0.4721746444702148
0.5153234481811523,0.4513463973999023
0.5036796569824219,0.4513463973999023
0.5296033859252930,0.4731679916381836
0.5284240722656249,0.4731679916381836
0.5005176544189452,0.4497213363647461
0.5086446762084961,0.4497213363647461
0.5270484924316406,0.4604089736938476
0.5136657714843750,0.4604089736938476
0.5120630264282227,0.4691453933715820
0.5305681228637695,0.4691453933715820
0.5152782440185547,0.4520473480224609
0.5040893554687500,0.4520473480224609
0.5284166336059570,0.4749898910522461
0.5283645629882813,0.4749898910522461
0.5047897338867188,0.4536254882812500
0.5142837524414062,0.4536254882812500
0.5308044433593749,0.4659599304199218
0.5170114517211913,0.4659599304199218
0.5164398193359375,0.4758533477783203
0.5356544494628906,0.4758533477783203
0.5182010650634765,0.4580543518066406
0.5074213027954101,0.4580543518066406
0.5366689682006835,0.4833515167236328
0.5374420166015624,0.4833515167236328
0.5117225646972656,0.4619178771972656
0.5215982437133789,0.4619178771972656
0.5387598037719726,0.4761039733886718
0.5227466583251953,0.4761039733886718
0.5198146820068359,0.4847362518310547
0.5400598526000976,0.4847362518310547
0.5261404037475585,0.4674825668334961
0.5154899597167969,0.4674825668334961
0.5422113418579101,0.4923448562622070
0.5418640136718750,0.4923448562622070
0.5162950515747070,0.4701702117919921
0.5249942779541016,0.4701702117919921
0.5395986557006835,0.4811782836914062
0.5244512557983398,0.4811782836914062
0.5244243621826171,0.4889053344726562
0.5446203231811523,0.4889053344726562
0.5280818939208984,0.4700317382812500
0.5157491683959960,0.4700317382812500
0.5435405731201172,0.4939647674560547
0.5423521041870117,0.4939647674560547
0.5139404296875000,0.4678556442260742
0.5238361358642578,0.4678556442260742
0.5432790756225586,0.4820898056030273
0.5262027740478515,0.4820898056030273
0.5235231399536132,0.4890129089355468
0.5454969406127930,0.4890129089355468
0.5288915634155273,0.4696844100952148
0.5146110534667968,0.4696844100952148
0.5410600662231445,0.4927494049072265
0.5402423858642578,0.4927494049072265
0.5155385971069336,0.4680599212646484
0.5255001068115234,0.4680599212646484
0.5426279067993164,0.4816320419311523
0.5263286590576172,0.4816320419311523
0.5238859176635742,0.4893831253051757
0.5447536468505859,0.4893831253051757
0.5265707015991211,0.4710674285888672
0.5144176483154297,0.4710674285888672
0.5444612503051758,0.4960601806640625
0.5443954467773438,0.4960601806640625
0.5186828613281250,0.4751455307006835
0.5280693054199218,0.4751455307006835
0.5457904815673827,0.4892429351806640
0.5317749023437500,0.4892429351806640
0.5273620605468750,0.4983404159545898
0.5474996566772461,0.4983404159545898
0.5349729537963867,0.4831689834594726
0.5249673843383789,0.4831689834594726
0.5515789031982422,0.5086183547973633
0.5516927719116210,0.5086183547973633
0.5272676467895507,0.4890146255493164
0.5354410171508789,0.4890146255493164
0.5503177642822266,0.5011425018310547
0.5371353149414062,0.5011425018310547
0.5365625381469726,0.5098875045776367
0.5558904647827149,0.5098875045776367
0.5401885986328124,0.4916009902954102
0.5280218124389648,0.4916009902954102
0.5520744323730469,0.5076936721801758
0.5484638214111328,0.5076936721801758
0.5176797866821289,0.4737642288208008
0.5212881088256835,0.4737642288208008
0.5373304367065429,0.4741436004638672
0.5220731735229492,0.4741436004638672
0.5168535232543945,0.4756267547607422
0.5335081100463867,0.4756267547607422
0.5182222366333008,0.4545764923095703
0.5060382843017578,0.4545764923095703
0.5283382415771484,0.4730512619018554
0.5279193878173828,0.4730512619018554
0.5047039031982422,0.4503913879394531
0.5122266769409179,0.4503913879394531
0.5287851333618164,0.4600593566894531
0.5153532028198242,0.4600593566894531
0.5117116928100586,0.4670413970947265
0.5296789169311523,0.4670413970947265
0.5127679824829101,0.4481323242187500
0.5015756607055664,0.4481323242187500
0.5294975280761719,0.4701381683349609
0.5300279617309570,0.4701381683349609
0.5040739059448242,0.4479515075683594
0.5117654800415039,0.4479515075683594
0.5290306091308593,0.4586963653564453
0.5149400711059570,0.4586963653564453
0.5087854385375976,0.4647989273071289
0.5279571533203125,0.4647989273071289
0.5153612136840821,0.4477266311645507
0.5043851852416992,0.4477266311645507
0.5300067901611328,0.4706331253051758
0.5304307937622070,0.4706331253051758
0.5053321838378906,0.4495382308959961
0.5147872924804687,0.4603986740112305
0.5130214691162109,0.4685056686401367
0.5333221435546874,0.4685056686401367
0.5187097549438476,0.4527935028076172
0.5069721221923827,0.4527935028076172
0.5339916229248046,0.4774412155151367
0.5341867446899414,0.4774412155151367
0.5067392349243164,0.4568475723266601
0.5151689529418945,0.4568475723266601
0.5355972290039063,0.4701828002929687
0.5227729797363281,0.4701828002929687
0.5184482574462891,0.4795211791992187
0.5386877059936523,0.4795211791992187
0.5248929977416992,0.4647628784179687
0.5131296157836914,0.4647628784179687
0.5374752044677734,0.4879360198974609
0.5381315231323242,0.4879360198974609
0.5153612136840821,0.4675334930419922
0.5242887496948242,0.4675334930419922
0.5421535491943359,0.4805042266845703
0.5286169052124023,0.4805042266845703
0.5247425079345703,0.4888595581054687
0.5444475173950195,0.4888595581054687
0.5283067703247070,0.4721385955810546
0.5167098999023437,0.4721385955810546
0.5451696395874023,0.4957723617553711
0.5464273452758789,0.4957723617553711
0.5396787643432617,0.5027681350708008
0.5396787643432617,0.5027681350708008
0.5273809432983398,0.4734180450439453
0.5218648910522461,0.4734180450439453
0.5490835189819335,0.4966844558715820
0.5490835189819335,0.4966844558715820
0.5268276214599609,0.4900588989257812
0.5268276214599609,0.4900588989257812
0.5431039810180663,0.4909309387207031
0.5431039810180663,0.4909309387207031
0.5426078796386719,0.5056657791137695
0.5426078796386719,0.5056657791137695
0.5299976348876952,0.4817218780517578
0.5299976348876952,0.4817218780517578
0.5534849166870117,0.5054666519165039
0.5534849166870117,0.5054666519165039
0.5308525085449218,0.5034101486206054
0.5308525085449218,0.5034101486206054
0.5482372283935547,0.4958616256713867
0.5482372283935547,0.4958616256713867
0.5477617263793945,0.5150568008422851
0.5477617263793945,0.5150568008422851
0.5368291854858398,0.4913841247558594
0.5368291854858398,0.4913841247558594
0.5584018707275390,0.5184522628784179
0.5584018707275390,0.5184522628784179
0.5358581542968750,0.5061578750610352
0.5358581542968750,0.5061578750610352
0.5498817443847656,0.4980548858642578
0.5498817443847656,0.4980548858642578
0.5455129623413085,0.5062328338623047
0.5455129623413085,0.5062328338623047
0.5255933761596679,0.4727657318115234
0.5255933761596679,0.4727657318115234
0.5398727416992187,0.4805213928222656
0.5398727416992187,0.4805213928222656
0.5127399444580077,0.4666648864746094
0.5127399444580077,0.4666648864746094
0.5274965286254882,0.4586723327636719
0.5274965286254882,0.4586723327636719
0.5240913391113281,0.4777055740356445
0.5240913391113281,0.4777055740356445
0.5107749938964844,0.4465272903442383
0.5107749938964844,0.4465272903442383
0.5309738159179688,0.4674768447875977
0.5309738159179688,0.4674768447875977
0.5079345703125000,0.4583290100097656
0.5079345703125000,0.4583290100097656
0.5245325088500976,0.4571336746215820
0.5245325088500976,0.4571336746215820
0.5227952957153320,0.4707338333129882
0.5227952957153320,0.4707338333129882
0.5103687286376953,0.4447843551635742
0.5103687286376953,0.4447843551635742
0.5327344894409179,0.4677400588989258
0.5327344894409179,0.4677400588989258
0.5078384399414062,0.4634925842285156
0.5078384399414062,0.4634925842285156
0.5261266708374023,0.4560556411743164
0.5261266708374023,0.4560556411743164
0.5238658905029296,0.4754762649536133
0.5238658905029296,0.4754762649536133
0.5130220413208008,0.4504766464233398
0.5130220413208008,0.4504766464233398
0.5360424041748046,0.4791561126708984
0.5360424041748046,0.4791561126708984
0.5110198974609375,0.4670728683471679
0.5110198974609375,0.4670728683471679
0.5310253143310547,0.4647113800048828
0.5310253143310547,0.4647113800048828
0.5306299209594726,0.4846555709838867
0.5306299209594726,0.4846555709838867
0.5188184738159179,0.4633197784423828
0.5188184738159179,0.4633197784423828
0.5416683197021485,0.4834882736206054
0.5416683197021485,0.4834882736206054
0.5169816970825195,0.4755592346191406
0.5169816970825195,0.4755592346191406
0.5371135711669922,0.4731330871582031
0.5371135711669922,0.4731330871582031
0.5342056274414062,0.4955366134643555
0.5342056274414062,0.4955366134643555
0.5231494903564453,0.4657356262207031
0.5231494903564453,0.4657356262207031
0.5458534240722656,0.4900697708129882
0.5458534240722656,0.4900697708129882
0.5217905044555664,0.4820806503295898
0.5217905044555664,0.4820806503295898
0.5398527145385742,0.4832027435302734
0.5398527145385742,0.4832027435302734
0.5381555557250977,0.4978889465332031
0.5381555557250977,0.4978889465332031
0.5259429931640625,0.4731697082519531
0.5259429931640625,0.4731697082519531
0.5492420196533203,0.4968664169311523
0.5492420196533203,0.4968664169311523
0.5254909515380859,0.4935882568359375
0.5254909515380859,0.4935882568359375
0.5436344146728516,0.4864305496215820
0.5436344146728516,0.4864305496215820
0.5418268203735351,0.5046695709228516
0.5418268203735351,0.5046695709228516
0.5313325881958008,0.4804006576538086
0.5313325881958008,0.4804006576538086
0.5525373458862305,0.5079425811767578
0.5525373458862305,0.5079425811767578
0.5296045303344726,0.4962118148803711
0.5296045303344726,0.4962118148803711
0.5470533370971680,0.4933038711547851
0.5470533370971680,0.4933038711547851
0.5470144271850585,0.5125047683715820
0.5470144271850585,0.5125047683715820
0.5355125427246094,0.4918807983398437
0.5355125427246094,0.4918807983398437
0.5577690124511718,0.5107921600341797
0.5577690124511718,0.5107921600341797
0.5342411041259766,0.5025793075561523
0.5342411041259766,0.5025793075561523
0.5526506423950195,0.4983449935913086
0.5526506423950195,0.4983449935913086
0.5481462478637695,0.5159030914306640
0.5481462478637695,0.5159030914306640
0.5312799453735352,0.4750871658325195
0.5312799453735352,0.4750871658325195
0.5438364028930663,0.4845033645629883
0.5438364028930663,0.4845033645629883
0.5146179199218750,0.4669561386108398
0.5146179199218750,0.4669561386108398
0.5281614303588867,0.4617444992065429
0.5281614303588867,0.4617444992065429
0.5228302001953125,0.4710130691528320
0.5228302001953125,0.4710130691528320
0.5094800949096679,0.4430168151855469
0.5094800949096679,0.4430168151855469
0.5305601119995117,0.4648338317871094
0.5305601119995117,0.4648338317871094
0.5054145812988281,0.4596302032470703
0.5224199295043945,0.4596302032470703
0.5239385604858399,0.4519672393798828
0.5239385604858399,0.4519672393798828
0.5205144882202148,0.4692615509033203
0.5205144882202148,0.4692615509033203
0.5102251052856445,0.4434717178344726
0.5102251052856445,0.4434717178344726
0.5311506271362304,0.4709770202636718
0.5311506271362304,0.4709770202636718
0.5071575164794921,0.4583513259887695
0.5071575164794921,0.4583513259887695
0.5256929397583008,0.4541730880737305
0.5256929397583008,0.4541730880737305
0.5241062164306640,0.4738128662109375
0.5241062164306640,0.4738128662109375
0.5131238937377930,0.4530149459838867
0.5131238937377930,0.4530149459838867
0.5353408813476562,0.4733745574951171
0.5353408813476562,0.4733745574951171
0.5120098114013671,0.4669057846069335
0.5120098114013671,0.4669057846069335
0.5332099914550781,0.4660360336303710
0.5332099914550781,0.4660360336303710
0.5317983627319336,0.4906528472900391
0.5317983627319336,0.4906528472900391
0.5220748901367187,0.4635995864868164
0.5220748901367187,0.4635995864868164
0.5446500778198242,0.4893218994140625
0.5446500778198242,0.4893218994140625
0.5224594116210938,0.4831918716430664
0.5224594116210938,0.4831918716430664
0.5415309906005860,0.4869850158691406
0.5415309906005860,0.4869850158691406
0.5397256851196289,0.5014549255371094
0.5397256851196289,0.5014549255371094
0.5285911560058594,0.4776998519897461
0.5285911560058594,0.4776998519897461
0.5518129348754882,0.5023132324218750
0.5518129348754882,0.5023132324218750
0.5281774520874023,0.4992136001586914
0.5281774520874023,0.4992136001586914
0.5473445892333985,0.4934028625488281
0.5330194473266602,0.4934028625488281
0.5452709197998047,0.5116189956665039
0.5452709197998047,0.5116189956665039
0.5358146667480469,0.4874124526977539
0.5358146667480469,0.4874124526977539
0.5569364547729492,0.5153858184814453
0.5569364547729492,0.5153858184814453
0.5337810516357422,0.5031469345092773
0.5337810516357422,0.5031469345092773
0.5516378402709960,0.5008838653564452
0.5516378402709960,0.5008838653564452
0.5504791259765625,0.5185335159301757
0.5504791259765625,0.5185335159301757
0.5393777847290039,0.4984153747558593
0.5393777847290039,0.4984153747558593
0.5602077484130860,0.5168066024780273
0.5536668777465820,0.5168066024780273
0.5364217758178711,0.5085691452026367
0.5364217758178711,0.5085691452026367
0.5554698944091797,0.5064393997192382
0.5554698944091797,0.5064393997192382
0.5522237777709961,0.5284320831298828
0.5522237777709961,0.5284320831298828
0.5418193817138671,0.4986219406127930
0.5418193817138671,0.4986219406127930
0.5623197555541992,0.5219615936279297
0.5623197555541992,0.5219615936279297
0.5397108078002929,0.5133584976196289
0.5552982330322266,0.5133584976196289
0.5580322265625000,0.5151123046875000
0.5580322265625000,0.5151123046875000
0.5545257568359375,0.5270536422729492
0.5545257568359375,0.5270536422729492
0.5421060562133789,0.4975233078002930
0.5421060562133789,0.4975233078002930
0.5591405868530274,0.5109861373901367
0.5591405868530274,0.5109861373901367
0.5258766174316406,0.4898637771606445
0.5258766174316406,0.4898637771606445
0.5365751266479492,0.4704053878784180
0.5365751266479492,0.4704053878784180
0.5274473190307617,0.4800069808959961
0.5274473190307617,0.4800069808959961
0.5145933151245117,0.4490747451782227
0.5145933151245117,0.4490747451782227
0.5330434799194336,0.4733299255371093
0.5330434799194336,0.4733299255371093
0.5069675445556641,0.4578151702880859
0.5069675445556641,0.4578151702880859
0.5249370574951172,0.4540025711059570
0.5249370574951172,0.4540025711059570
0.5217000961303710,0.4709953308105468
0.5217000961303710,0.4709953308105468
0.5103435516357422,0.4489648818969726
0.5103435516357422,0.4489648818969726
0.5312850952148437,0.4685485839843750
0.5312850952148437,0.4685485839843750
0.5061710357666015,0.4595598220825195
0.5061710357666015,0.4595598220825195
0.5270244598388671,0.4578746795654297
0.5270244598388671,0.4578746795654297
0.5235031127929687,0.4798130035400390
0.5235031127929687,0.4798130035400390
0.5137744903564453,0.4507410049438476
0.5137744903564453,0.4507410049438476
0.5354438781738281,0.4757062911987304
0.5354438781738281,0.4757062911987304
0.5124332427978515,0.4677400588989258
0.5124332427978515,0.4677400588989258
0.5325702667236328,0.4718576431274414
0.5325702667236328,0.4718576431274414
0.5301967620849609,0.4872642517089844
0.5301967620849609,0.4872642517089844
0.5205287933349609,0.4638656616210937
0.5205287933349609,0.4638656616210937
0.5444618225097656,0.4908634185791015
0.5444618225097656,0.4908634185791015
0.5208509445190429,0.4884372711181640
0.5208509445190429,0.4884372711181640
0.5420557022094726,0.4849365234375000
0.5420557022094726,0.4849365234375000
0.5395906448364257,0.5041929244995117
0.5395906448364257,0.5041929244995117
0.5311059951782227,0.4800899505615234
0.5311059951782227,0.4800899505615234
0.5523977279663086,0.5097484588623047
0.5523977279663086,0.5097484588623047
0.5284646987915039,0.4963994979858398
0.5284646987915039,0.4963994979858398
0.5474132537841797,0.4951538085937500
0.5474132537841797,0.4951538085937500
0.5454666137695312,0.5123949050903320
0.5454666137695312,0.5123949050903320
0.5348642349243163,0.4912691116333008
0.5348642349243163,0.4912691116333008
0.5554836273193359,0.5096597671508789
0.5554836273193359,0.5096597671508789
0.5307392120361328,0.4997674942016601
0.5307392120361328,0.4997674942016601
0.5507171630859374,0.4978408813476562
0.5354032516479492,0.4978408813476562
0.5464233398437500,0.5189054489135742
0.5464233398437500,0.5189054489135742
0.5363491058349609,0.4873477935791015
0.5363491058349609,0.4873477935791015
0.5556804656982421,0.5102102279663085
0.5556804656982421,0.5102102279663085
0.5325525283813476,0.5000638961791992
0.5325525283813476,0.5000638961791992
0.5511852264404297,0.5029506683349609
0.5511852264404297,0.5029506683349609
0.5471700668334961,0.5138385772705077
0.5471700668334961,0.5138385772705077
0.5366569519042969,0.4868288040161133
0.5366569519042969,0.4868288040161133
0.5575160980224609,0.5096752166748046
0.5575160980224609,0.5096752166748046
0.5317960739135742,0.5041986465454101
0.5317960739135742,0.5041986465454101
0.5507915496826171,0.4955692291259766
0.5507915496826171,0.4955692291259766
0.5399133682250976,0.4972223281860351
0.5329542160034180,0.4972223281860351
0.5281654357910156,0.4949277877807617
0.5453853607177734,0.4949277877807617
0.5312650680541992,0.4712339401245117
0.5152318954467773,0.4712339401245117
0.5343875885009766,0.4852581024169922
0.5349008560180664,0.4852581024169922
0.5118535995483399,0.4577642440795898
0.5162401199340820,0.4577642440795898
0.5334428787231446,0.4666179656982422
0.5195348739624023,0.4666179656982422
0.5100385665893554,0.4686292648315429
0.5293762207031250,0.4686292648315429
0.5150413513183594,0.4521640777587890
0.5023429870605468,0.4521640777587890
0.5289287567138672,0.4741390228271484
0.5324872970581055,0.4741390228271484
0.5084959030151367,0.4532341003417968
0.5139410018920898,0.4532341003417968
0.5329771041870117,0.4666322708129882
0.5203897476196289,0.4666322708129882
0.5085983276367188,0.4694057464599609
0.5293069839477539,0.4694057464599609
0.5208234786987305,0.4555704116821289
0.5089771270751953,0.4555704116821289
0.5329250335693360,0.4794284820556640
0.5356773376464844,0.4794284820556640
0.5127880096435546,0.4593435287475586
0.5179573059082031,0.4593435287475586
0.5339012145996094,0.4722169876098632
0.5217407226562499,0.4722169876098632
0.5154064178466796,0.4774950027465820
0.5369848251342774,0.4774950027465820
0.5256088256835937,0.4655107498168945
0.5136125564575195,0.4655107498168945
0.5382968902587890,0.4909543991088867
0.5414291381835937,0.4909543991088867
0.5160530090332031,0.4710960388183594
0.5221298217773437,0.4710960388183594
0.5440000534057617,0.4859996795654297
0.5332283020019531,0.4859996795654297
0.5243322372436523,0.4936878204345703
0.5451776504516601,0.4936878204345703
0.5353580474853515,0.4826637268066406
0.5234338760375976,0.4826637268066406
0.5450448989868164,0.5071397781372070
0.5489341735839843,0.5071397781372070
0.5289419174194335,0.4881740570068359
0.5354255676269531,0.4881740570068359
0.5539987564086913,0.5029872894287110
0.5425083160400390,0.5029872894287110
0.5338205337524414,0.5092535018920898
0.5540491104125976,0.5092535018920898
0.5407350540161132,0.4952802658081055
0.5286952972412109,0.4952802658081055
0.5550258636474609,0.5181747436523437
0.5588562011718750,0.5181747436523437
0.5355880737304687,0.4983169555664062
0.5405570983886718,0.4983169555664062
0.5596172332763671,0.5111366271972656
0.5469926834106446,0.5111366271972656
0.5347789764404297,0.5141967773437500
0.5548650741577148,0.5141967773437500
0.5462968826293945,0.4994985580444335
0.5343795776367187,0.4994985580444335
0.5571424484252929,0.5221967697143555
0.5602666854858398,0.5221967697143555
0.5373350143432617,0.5013404846191406
0.5420499801635742,0.5013404846191406
0.5579120635986328,0.5122432708740234
0.5457653045654297,0.5122432708740234
0.5384124755859375,0.5147878646850585
0.5592710494995117,0.5147878646850585
0.5476444244384765,0.4999116897583007
0.5344161987304688,0.4999116897583007
0.5577175140380859,0.5212062835693360
0.5601093292236328,0.5212062835693360
0.5337970733642577,0.4973258972167969
0.5384513854980468,0.4973258972167969
0.5587898254394531,0.5079545974731445
0.5465984344482422,0.5079545974731445
0.5357357025146484,0.5102182388305664
0.5558578491210937,0.5102182388305664
0.5445390701293945,0.4947183609008789
0.5305561065673828,0.4947183609008789
0.5511726379394531,0.5146739959716796
0.5540485382080078,0.5146739959716796
0.5325027465820312,0.4908205032348633
0.5375999450683594,0.4908205032348633
0.5551082611083984,0.5012334823608399
0.5408895492553710,0.5012334823608399
0.5300113677978515,0.4993474960327148
0.5482938766479492,0.4993474960327148
0.5314910888671874,0.4744766235351562
0.5153022766113281,0.4744766235351562
0.5387924194335937,0.4886941909790039
0.5401617050170898,0.4886941909790039
0.5144113540649414,0.4614286422729492
0.5178909301757812,0.4614286422729492
0.5354621887207031,0.4707921981811523
0.5213195800781250,0.4707921981811523
0.5084146499633789,0.4706731796264648
0.5286375045776367,0.4706731796264648
0.5194078445434570,0.4541902542114258
0.5068450927734375,0.4541902542114258
0.5298551559448242,0.4770355224609375
0.5327207565307617,0.4770355224609375
0.5097444534301757,0.4554199218750000
0.5142637252807617,0.4554199218750000
0.5305355072021484,0.4679529190063476
0.5183109283447266,0.4679529190063476
0.5110061645507812,0.4715486526489258
0.5324289321899414,0.4715486526489258
0.5211215972900390,0.4583364486694336
0.5084747314453125,0.4583364486694336
0.5323465347290038,0.4823867797851562
0.5354776382446289,0.4823867797851562
0.5103115081787110,0.4604793548583984
0.5151781082153321,0.4604793548583984
0.5366855621337890,0.4741155624389648
0.5255584716796875,0.4741155624389648
0.5156084060668945,0.4790405273437500
0.5362867355346680,0.4790405273437500
0.5262605667114257,0.4666460037231445
0.5130941390991210,0.4666460037231445
0.5344997406005859,0.4902076721191406
0.5387031555175781,0.4902076721191406
0.5182685852050781,0.4701942443847656
0.5240512847900390,0.4701942443847656
0.5431291580200195,0.4857501983642578
0.5316209793090820,0.4857501983642578
0.5226121902465820,0.4917686462402344
0.5433019638061524,0.4917686462402344
0.5308124542236328,0.4787881851196289
0.5189855575561523,0.4787881851196289
0.5449882507324219,0.5029672622680664
0.5497690200805664,0.5029672622680664
0.5271034240722656,0.4842161178588867
0.5320060729980468,0.4842161178588867
0.5518621444702149,0.4985504150390625
0.5399631500244141,0.4985504150390625
0.5275846481323242,0.5016998291015625
0.5478515625000000,0.5016998291015625
0.5400186538696289,0.4876607894897461
0.5280509948730469,0.4876607894897461
0.5500694274902344,0.5100059509277344
0.5535615921020508,0.5100059509277344
0.5308284759521484,0.4888195037841797
0.5341266632080078,0.4888195037841797
0.5505363464355468,0.4989257812500000
0.5384811401367188,0.4989257812500000
0.5301979064941406,0.5001279830932617
0.5505037307739258,0.5001279830932617
0.5393377304077148,0.4850721359252930
0.5258983612060547,0.4850721359252930
0.5485239028930664,0.5059988021850585
0.5512018203735352,0.5059988021850585
0.5253438949584961,0.4820634841918945
0.5290254592895508,0.4820634841918945
0.5499944686889648,0.4927436828613281
0.5380399703979492,0.4927436828613281
0.5271223068237304,0.4944866180419922
0.5471488952636718,0.4944866180419922
0.5368108749389648,0.4803880691528320
0.5232313156127929,0.4803880691528320
0.5434398651123047,0.5013765335083008
0.5470590591430664,0.5013765335083008
0.5263532638549805,0.4796150207519531
0.5312049865722656,0.4796150207519531
0.5502502441406250,0.4940277099609375
0.5379873275756836,0.4940277099609375
0.5285751342773437,0.4980096817016602
0.5490600585937500,0.4980096817016602
0.5364166259765625,0.4847116470336914
0.5239442825317383,0.4847116470336914
0.5493272781372071,0.5084821701049804
0.5542814254760742,0.5084821701049804
0.5309343338012695,0.4891582489013672
0.5358369827270507,0.4891582489013672
0.5557594299316406,0.5047468185424805
0.5438198089599610,0.5047468185424805
0.5313537597656249,0.5063793182373046
0.5519937515258789,0.5063793182373046
0.5434518814086914,0.4901121139526367
0.5295152664184570,0.4901121139526367
0.5498273849487304,0.5061710357666015
0.5508184432983398,0.5061710357666015
0.5253662109375000,0.4757205963134765
0.5261569976806640,0.4757205963134765
0.5406772613525390,0.4810192108154296
0.5267429351806641,0.4810192108154296
0.5173576354980468,0.4784145355224609
0.5370283126831055,0.4784145355224609
0.5250869750976562,0.4621398925781250
0.5112962722778320,0.4621398925781250
0.5337575912475586,0.4836296081542968
0.5368371963500976,0.4836296081542968
0.5110925674438477,0.4600021362304687
0.5148553848266602,0.4600021362304687
0.5362867355346680,0.4727130889892578
0.5250423431396484,0.4727130889892578
0.5145572662353516,0.4762464523315429
0.5347211837768554,0.4762464523315429
0.5249021530151367,0.4630342483520508
0.5120264053344726,0.4630342483520508
0.5318693161010742,0.4852655410766601
0.5360984802246094,0.4852655410766601
0.5155815124511719,0.4644075393676758
0.5203022003173828,0.4644075393676758
0.5391300201416015,0.4790336608886718
0.5277191162109375,0.4790336608886718
0.5181735992431641,0.4834138870239257
0.5384078979492187,0.4834138870239257
0.5260459899902343,0.4699956893920898
0.5138105392456055,0.4699956893920898
0.5387884140014648,0.4937227249145508
0.5439439773559570,0.4937227249145508
0.5213516235351562,0.4753074645996094
0.5257295608520508,0.4753074645996094
0.5461812973022461,0.4917068481445312
0.5347801208496094,0.4917068481445312
0.5230768203735351,0.4964378356933594
0.5445711135864257,0.4964378356933594
0.5375638961791992,0.4856019973754883
0.5262468338012695,0.4856019973754883
0.5487527847290039,0.5117334365844727
0.5539260864257812,0.5117334365844727
0.5318881988525390,0.4932884216308593
0.5362346649169921,0.4932884216308593
0.5538162231445313,0.5080181121826172
0.5424888610839843,0.5080181121826172
0.5347658157348633,0.5114301681518555
0.5567201614379883,0.5114301681518555
0.5464221954345703,0.4997783660888672
0.5333810806274414,0.4997783660888672
0.5561004638671875,0.5232530593872070
0.5602380752563476,0.5232530593872070
0.5347675323486328,0.5011539459228516
0.5390819549560547,0.5011539459228516
0.5607364654541015,0.5144428253173828
0.5492311477661133,0.5144428253173828
0.5380777359008789,0.5165399551391602
0.5590438842773438,0.5165399551391602
0.5488843917846680,0.5021684646606445
0.5351875305175781,0.5021684646606445
0.5548490524291992,0.5222053527832031
0.5587829589843750,0.5222053527832031
0.5368520736694335,0.4974792480468750
0.5411201477050781,0.4974792480468750
0.5599502563476563,0.5103481292724609
0.5468662261962890,0.5103481292724609
0.5361110687255859,0.5104024887084960
0.5565055847167969,0.5104024887084960
0.5430307388305664,0.4934629440307617
0.5288675308227538,0.4934629440307617
0.5529790878295898,0.5140462875366211
0.5571201324462890,0.5140462875366211
0.5321943283081054,0.4904674530029297
0.5360836029052735,0.4904674530029297
0.5556209564208984,0.5044893264770508
0.5421129226684570,0.5044893264770508
0.5288578033447265,0.5048109054565429
0.5502719879150391,0.5048109054565429
0.5416482925415039,0.4900611877441406
0.5287153244018554,0.4900611877441406
0.5512315750122070,0.5138008117675781
0.5551334381103515,0.5138008117675781
0.5322692871093749,0.4921274185180664
0.5361248016357422,0.4921274185180664
0.5534934997558594,0.5067192077636719
0.5416648864746093,0.5067192077636719
0.5335945129394531,0.5086309432983398
0.5552827835083007,0.5086309432983398
0.5439359664916992,0.4941312789916992
0.5297933578491211,0.4941312789916992
0.5509511947631835,0.5126644134521484
0.5525482177734374,0.5126644134521484
0.5242023468017578,0.4810649871826171
0.5251035690307617,0.4810649871826171
0.5452526092529296,0.4875818252563476
0.5319826126098632,0.4875818252563476
0.5194747924804687,0.4849874496459960
0.5383724212646485,0.4849874496459960
0.5277351379394531,0.4681297302246094
0.5131742477416992,0.4681297302246094
0.5319282531738281,0.4873718261718750
0.5362804412841796,0.4873718261718750
0.5146780014038086,0.4642484664916992
0.5187555313110351,0.4642484664916992
0.5379959106445312,0.4788522720336914
0.5262731552124024,0.4788522720336914
0.5161256790161133,0.4813562393188476
0.5365024566650390,0.4813562393188476
0.5241725921630859,0.4670648574829102
0.5114593505859375,0.4670648574829102
0.5354284286499024,0.4891954421997070
0.5407865524291992,0.4891954421997070
0.5176013946533203,0.4949506759643554
0.5289699554443359,0.4949506759643554
0.5141504287719726,0.4650255203247070
0.5175121307373046,0.4650255203247070
0.5412694931030273,0.4902580261230469
0.5412694931030273,0.4902580261230469
0.5190422058105468,0.4781473159790039
0.5190422058105468,0.4781473159790039
0.5400192260742187,0.4865427017211914
0.5400192260742187,0.4865427017211914
0.5350931167602538,0.4983186721801758
0.5350931167602538,0.4983186721801758
0.5289567947387696,0.4742111206054687
0.5289567947387696,0.4742111206054687
0.5492334365844727,0.5001686096191406
0.5492334365844727,0.5001686096191406
0.5252866744995117,0.4934263229370117
0.5252866744995117,0.4934263229370117
0.5464817047119140,0.4913286209106445
0.5464817047119140,0.4913286209106445
0.5400627136230468,0.5070184707641602
0.5400627136230468,0.5070184707641602
0.5346302032470703,0.4813058853149414
0.5346302032470703,0.4813058853149414
0.5526741027832031,0.5091957092285156
0.5526741027832031,0.5091957092285156
0.5279262542724609,0.4900062561035156
0.5279262542724609,0.4900062561035156
0.5479671478271484,0.4908107757568359
0.5479671478271484,0.4908107757568359
0.5419029235839844,0.5052560806274414
0.5419029235839844,0.5052560806274414
0.5338371276855468,0.4837371826171875
0.5338371276855468,0.4837371826171875
0.5517580032348632,0.5029804229736328
0.5517580032348632,0.5029804229736328
0.5257696151733399,0.4886621475219726
0.5257696151733399,0.4886621475219726
0.5474596023559570,0.4911312103271484
0.5474596023559570,0.4911312103271484
0.5406040191650391,0.5110742568969726
0.5406040191650391,0.5110742568969726
0.5339527130126953,0.4810935974121093
0.5339527130126953,0.4810935974121093
0.5527994155883789,0.5061098098754883
0.5527994155883789,0.5061098098754883
0.5293487548828125,0.4925113677978515
0.5293487548828125,0.4925113677978515
0.5501661300659180,0.5003093719482422
0.5501661300659180,0.5003093719482422
0.5443496704101562,0.5119119644165039
0.5443496704101562,0.5119119644165039
0.5373184204101562,0.4874427795410156
0.5373184204101562,0.4874427795410156
0.5573163986206054,0.5132274627685547
0.5573163986206054,0.5132274627685547
0.5326669692993163,0.5052274703979492
0.5326669692993163,0.5052274703979492
0.5538722991943359,0.5043296813964844
0.5538722991943359,0.5043296813964844
0.5478040695190429,0.5209093093872070
0.5478040695190429,0.5209093093872070
0.5423069000244141,0.4971902847290039
0.5423069000244141,0.4971902847290039
0.5603668212890625,0.5265569686889648
0.5603668212890625,0.5265569686889648
0.5351697921752929,0.5060829162597656
0.5351697921752929,0.5060829162597656
0.5518192291259766,0.5015985488891601
0.5518192291259766,0.5015985488891601
0.5404214859008789,0.5059141159057617
0.5404214859008789,0.5059141159057617
0.5274707794189453,0.4765949249267578
0.5274707794189453,0.4765949249267578
0.5421564102172851,0.4909418106079101
0.5421564102172851,0.4909418106079101
0.5153285980224609,0.4733379364013672
0.5153285980224609,0.4733379364013672
0.5352121353149414,0.4741979598999023
0.5352121353149414,0.4741979598999023
0.5278638839721680,0.4928964614868164
0.5278638839721680,0.4928964614868164
0.5211055755615234,0.4630674362182617
0.5211055755615234,0.4630674362182617
0.5387998580932617,0.4878364562988281
0.5387998580932617,0.4878364562988281
0.5158533096313477,0.4736755371093750
0.5158533096313477,0.4736755371093750
0.5363187789916992,0.4812967300415039
0.5363187789916992,0.4812967300415039
0.5301858901977539,0.4925519943237304
0.5441585540771484,0.4925519943237304
0.5243700027465820,0.4681949615478516
0.5243700027465820,0.4681949615478516
0.5439205169677734,0.4936449050903320
0.5439205169677734,0.4936449050903320
0.5196590423583984,0.4840581893920898
0.5196590423583984,0.4840581893920898
0.5417272567749023,0.4844467163085937
0.5417272567749023,0.4844467163085937
0.5349946975708008,0.5011384963989257
0.5349946975708008,0.5011384963989257
0.5311071395874023,0.4772140502929687
0.5311071395874023,0.4772140502929687
0.5502393722534179,0.5076496124267578
0.5502393722534179,0.5076496124267578
0.5264883041381836,0.4892532348632812
0.5264883041381836,0.4892532348632812
0.5485502243041992,0.4933937072753906
0.5485502243041992,0.4933937072753906
0.5417278289794921,0.5086790084838867
0.5417278289794921,0.5086790084838867
0.5351978302001953,0.4870233535766602
0.5351978302001953,0.4870233535766602
0.5534608840942382,0.5068462371826171
0.5534608840942382,0.5068462371826171
0.5268356323242187,0.4900348663330078
0.5268356323242187,0.4900348663330078
0.5481937408447265,0.4921897888183593
0.5481937408447265,0.4921897888183593
0.5394344329833984,0.5098875045776367
0.5394344329833984,0.5098875045776367
0.5317903518676758,0.4780906677246093
0.5317903518676758,0.4780906677246093
0.5491144180297851,0.5016157150268554
0.5491144180297851,0.5016157150268554
0.5235471725463867,0.4844421386718750
0.5235471725463867,0.4844421386718750
0.5439182281494140,0.4921205520629883
0.5439182281494140,0.4921205520629883
0.5369115829467773,0.5031251907348633
0.5369115829467773,0.5031251907348633
0.5303478240966797,0.4780723571777343
0.5303478240966797,0.4780723571777343
0.5504127502441406,0.5039937973022460
0.5504127502441406,0.5039937973022460
0.5258085250854492,0.4937713623046875
0.5258085250854492,0.4937713623046875
0.5478967666625977,0.4947326660156250
0.5478967666625977,0.4947326660156250
0.5418434143066406,0.5117757797241210
0.5418434143066406,0.5117757797241210
0.5373006820678711,0.4888458251953125
0.5373006820678711,0.4888458251953125
0.5562183380126953,0.5202135086059571
0.5562183380126953,0.5202135086059571
0.5325262069702148,0.5018749237060547
0.5325262069702148,0.5018749237060547
0.5534671783447266,0.5074584960937499
0.5534671783447266,0.5074584960937499
0.5486761093139648,0.5242006301879882
0.5486761093139648,0.5242006301879882
0.5428373336791992,0.5046667098999024
0.5428373336791992,0.5046667098999024
0.5612091064453125,0.5249444961547851
0.5612091064453125,0.5249444961547851
0.5361162185668945,0.5066928863525391
0.5361162185668945,0.5066928863525391
0.5536863327026367,0.5024013519287109
0.5536863327026367,0.5024013519287109
0.5401479721069335,0.5111692428588867
0.5401479721069335,0.5111692428588867
0.5294826507568359,0.4743352890014648
0.5294826507568359,0.4743352890014648
0.5432893753051757,0.4934881210327148
0.5432893753051757,0.4934881210327148
0.5176843643188477,0.4742603302001953
0.5176843643188477,0.4742603302001953
0.5370855331420898,0.4810100555419922
0.5370855331420898,0.4810100555419922
0.5294168472290038,0.4896348953247070
0.5294168472290038,0.4896348953247070
0.5230150222778320,0.4641866683959961
0.5230150222778320,0.4641866683959961
0.5413610458374023,0.4884183883666992
0.5413610458374023,0.4884183883666992
0.5161233901977539,0.4762533187866211
0.5161233901977539,0.4762533187866211
0.5370368957519531,0.4754756927490234
0.5370368957519531,0.4754756927490234
0.5290323257446289,0.4900188446044922
0.5290323257446289,0.4900188446044922
0.5246858596801758,0.4654724121093750
0.5246858596801758,0.4654724121093750
0.5418691635131836,0.4946348190307617
0.5418691635131836,0.4946348190307617
0.5176992416381836,0.4739707946777343
0.5176992416381836,0.4739707946777343
0.5386447906494141,0.4789123535156250
0.5386447906494141,0.4789123535156250
0.5329101562499999,0.4944271087646484
0.5329101562499999,0.4944271087646484
0.5274433135986328,0.4754659652709960
0.5274433135986328,0.4754659652709960
0.5462888717651367,0.4969865798950195
0.5430261611938476,0.4969865798950195
0.5217979431152343,0.4818288803100585
0.5217979431152343,0.4818288803100585
0.5451948165893554,0.4885808944702148
0.5451948165893554,0.4885808944702148
0.5385354995727539,0.5102949142456055
0.5385354995727539,0.5102949142456055
0.5339086532592773,0.4826128005981445
0.5339086532592773,0.4826128005981445
0.5525075912475585,0.5094852447509766
0.5525075912475585,0.5094852447509766
0.5294054031372070,0.4939350128173828
0.5294054031372070,0.4939350128173828
0.5506519317626953,0.5050220489501953
0.5506519317626953,0.5050220489501953
0.5442890167236328,0.5159849166870117
0.5442890167236328,0.5159849166870117
0.5393800735473633,0.4924221038818359
0.5393800735473633,0.4924221038818359
0.5584917068481445,0.5183212280273437
0.5584917068481445,0.5183212280273437
0.5334291458129883,0.5054780960083007
0.5334291458129883,0.5054780960083007
0.5553234100341796,0.5064222335815429
0.5553234100341796,0.5064222335815429
0.5474693298339843,0.5210248947143554
0.5474693298339843,0.5210248947143554
0.5427801132202148,0.4966964721679688
0.5427801132202148,0.4966964721679688
0.5599605560302734,0.5269775390625000
0.5599605560302734,0.5269775390625000
0.5346130371093750,0.5044853210449218
0.5346130371093750,0.5044853210449218
0.5552845001220703,0.5103263854980469
0.5552845001220703,0.5103263854980469
0.5487035751342774,0.5251705169677734
0.5487035751342774,0.5251705169677734
0.5434061050415039,0.5057247161865234
0.5434061050415039,0.5057247161865234
0.5611616134643554,0.5265935897827149
0.5611616134643554,0.5265935897827149
0.5364068984985352,0.5092821121215820
0.5364068984985352,0.5092821121215820
0.5585941314697266,0.5150819778442383
0.5585941314697266,0.5150819778442383
0.5509082794189453,0.5340791702270508
0.5509082794189453,0.5340791702270508
0.5460216522216796,0.5053956985473632
0.5460216522216796,0.5053956985473632
0.5626670837402343,0.5295925140380859
0.5626670837402343,0.5295925140380859
0.5380365371704101,0.5089033126831054
0.5380365371704101,0.5089033126831054
0.5550882339477539,0.5103361129760742
0.5550882339477539,0.5103361129760742
0.5414171218872070,0.5092655181884765
0.5414171218872070,0.5092655181884765
0.5311162948608398,0.4767786026000976
0.5311162948608398,0.4767786026000976
0.5453950881958007,0.4965202331542968
0.5453950881958007,0.4965202331542968
0.5173942565917968,0.4793907165527344
0.5173942565917968,0.4793907165527344
0.5376577377319336,0.4782251358032226
0.5376577377319336,0.4782251358032226
0.5281574249267578,0.4911203384399414
0.5281574249267578,0.4911203384399414
0.5242429733276367,0.4662752151489258
0.5242429733276367,0.4662752151489258
0.5412071228027343,0.4951223373413086
0.5412071228027343,0.4951223373413086
0.5160907745361328,0.4721511840820312
0.5160907745361328,0.4721511840820312
0.5378419876098632,0.4779161453247070
0.5378419876098632,0.4779161453247070
0.5302825927734375,0.4920970916748046
0.5302825927734375,0.4920970916748046
0.5254617691040039,0.4721586227416992
0.5254617691040039,0.4721586227416992
0.5432945251464844,0.4937238693237305
0.5432945251464844,0.4937238693237305
0.5175195693969726,0.4753337860107422
0.5175195693969726,0.4753337860107422
0.5408529281616211,0.4824560165405273
0.5408529281616211,0.4824560165405273
0.5326641082763671,0.5016975402832031
0.5326641082763671,0.5016975402832031
0.5286437988281250,0.4740165710449218
0.5286437988281250,0.4740165710449218
0.5470298767089844,0.5005113601684570
0.5470298767089844,0.5005113601684570
0.5223752975463867,0.4820114135742187
0.5223752975463867,0.4820114135742187
0.5443136215209960,0.4932563781738281
0.5443136215209960,0.4932563781738281
0.5363925933837891,0.5033752441406250
0.5363925933837891,0.5033752441406250
0.5313114166259766,0.4793123245239257
0.5313114166259766,0.4793123245239257
0.5505249023437500,0.5052743911743164
0.5505249023437500,0.5052743911743164
0.5249673843383789,0.4907592773437500
0.5249673843383789,0.4907592773437500
0.5472181320190429,0.4931247711181641
0.5472181320190429,0.4931247711181641
0.5520206451416015,0.5074121475219726
0.5520206451416015,0.5084300994873047
0.5351457595825195,0.4836650848388672
0.5246040344238281,0.4836650848388672
0.5525356292724609,0.5142116546630859
0.5525356292724609,0.5142116546630859
0.5272762298583984,0.4908948898315429
0.5272762298583984,0.4908948898315429
0.5485187530517578,0.4980308532714843
0.5485187530517578,0.4980308532714843
0.5418680191040038,0.5129138946533203
0.5418680191040038,0.5129138946533203
0.5372343063354492,0.4946920394897460
0.5372343063354492,0.4946920394897460
0.5554756164550781,0.5161651611328125
0.5522220611572265,0.5161651611328125
0.5302156448364258,0.4975175857543945
0.5302156448364258,0.4975175857543945
0.5536422729492188,0.5052864074707031
0.5536422729492188,0.5052864074707031
0.5453979492187500,0.5250217437744140
0.5453979492187500,0.5250217437744140
0.5418107986450195,0.4975101470947265
0.5418107986450195,0.4975101470947265
0.5591777801513672,0.5238773345947265
0.5591777801513672,0.5238773345947265
0.5353620529174804,0.5056777954101562
0.5353620529174804,0.5056777954101562
0.5574571609497070,0.5176357269287110
0.5574571609497070,0.5176357269287110
0.5495326995849609,0.5275360107421875
0.5495326995849609,0.5275360107421875
0.5454196929931641,0.5041460037231446
0.5454196929931641,0.5041460037231446
0.5638343811035156,0.5292903900146484
0.5638343811035156,0.5292903900146484
0.5371484756469727,0.5117019653320313
0.5371484756469727,0.5117019653320313
0.5550579071044922,0.5049613952636719
0.5550579071044922,0.5049613952636719
0.5399110794067382,0.5079431533813477
0.5399110794067382,0.5079431533813477
0.5321119308471679,0.4764804840087891
0.5321119308471679,0.4764804840087891
0.5449384689331055,0.5000015258789062
0.5449384689331055,0.5000015258789062
0.5170177459716797,0.4717340469360352
0.5170177459716797,0.4717340469360352
0.5370391845703125,0.4757022857666016
0.5370391845703125,0.4757022857666016
0.5281328201293946,0.4876756668090820
0.5281328201293946,0.4876756668090820
0.5234659194946288,0.4672714233398437
0.5234659194946288,0.4672714233398437
0.5404907226562500,0.4877540588378906
0.5404907226562500,0.4877540588378906
0.5145578384399414,0.4676427841186523
0.5145578384399414,0.4676427841186523
0.5377882003784179,0.4744674682617187
0.5221876144409180,0.4744674682617187
0.5287015914916992,0.4925651550292969
0.5287015914916992,0.4925651550292969
0.5248237609863281,0.4644372940063476
0.5248237609863281,0.4644372940063476
0.5417083740234375,0.4898860931396484
0.5417083740234375,0.4898860931396484
0.5169210433959961,0.4705747604370117
0.5169210433959961,0.4705747604370117
0.5387981414794921,0.4831953048706055
0.5387981414794921,0.4831953048706055
0.5305624008178711,0.4928615570068359
0.5305624008178711,0.4928615570068359
0.5264739990234375,0.4708190917968750
0.5264739990234375,0.4708190917968750
0.5455146789550781,0.4976943969726562
0.5455146789550781,0.4976943969726562
0.5208538055419921,0.4841136932373047
0.5208538055419921,0.4841136932373047
0.5446283340454101,0.4896080017089843
0.5446283340454101,0.4896080017089843
0.5375867843627929,0.5056085586547852
0.5375867843627929,0.5056085586547852
0.5363914489746093,0.4855150222778320
0.5363914489746093,0.4855150222778320
0.5545200347900391,0.5181243896484374
0.5545200347900391,0.5181243896484374
0.5303415298461914,0.4957248687744140
0.5303415298461914,0.4957248687744140
0.5526929855346679,0.5050168991088867
0.5526929855346679,0.5050168991088867
0.5460124969482422,0.5199256896972656
0.5460124969482422,0.5199256896972656
0.5422903060913086,0.5028316497802734
0.5422903060913086,0.5028316497802734
0.5596172332763671,0.5239671707153321
0.5596172332763671,0.5239671707153321
0.5343172073364257,0.5044944763183593
0.5343172073364257,0.5044944763183593
0.5572340011596679,0.5123519897460938
0.5572340011596679,0.5123519897460938
0.5518054962158203,0.5218694686889648
0.5386362075805664,0.5191823959350585
0.5583543777465820,0.5191823959350585
0.5519290924072265,0.5075037002563476
0.5393400192260742,0.5075037002563476
0.5576374053955078,0.5292961120605468
0.5641742706298828,0.5292961120605468
0.5423675537109375,0.5066333770751953
0.5424591064453125,0.5066333770751953
0.5613510131835937,0.5233612060546875
0.5511611938476563,0.5233612060546875
0.5419595718383788,0.5204669952392578
0.5622081756591797,0.5204669952392578
0.5535770416259765,0.5107206344604492
0.5399042129516601,0.5107206344604492
0.5588396072387695,0.5319534301757812
0.5649925231933594,0.5319534301757812
0.5405124664306641,0.5079156875610351
0.5412294387817382,0.5079156875610351
0.5647304534912109,0.5259035110473632
0.5551288604736327,0.5259035110473632
0.5436103820800781,0.5245290756225586
0.5635013580322266,0.5245290756225586
0.5553222656250000,0.5130088806152343
0.5408151626586913,0.5130088806152343
0.5563602447509766,0.5288017272949218
0.5607009887695312,0.5288017272949218
0.5365310668945312,0.4924644470214843
0.5334680557250976,0.4924644470214843
0.5510541915893554,0.4991180419921875
0.5371742248535156,0.4991180419921875
0.5238401412963867,0.4885499954223633
0.5415195465087891,0.4885499954223633
0.5292205810546875,0.4712825775146484
0.5143907546997070,0.4712825775146484
0.5339950561523438,0.4885854721069336
0.5403642654418945,0.4885854721069336
0.5167442321777344,0.4633592605590820
0.5168912887573242,0.4633592605590820
0.5385452270507812,0.4819501876831054
0.5276613235473633,0.4819501876831054
0.5138975143432617,0.4771482467651367
0.5340133666992187,0.4771482467651367
0.5269918441772461,0.4651794433593750
0.5136199951171875,0.4651794433593750
0.5321187973022461,0.4871252059936523
0.5388296127319335,0.4871252059936523
0.5164741516113281,0.4628562927246094
0.5166503906250000,0.4628562927246094
0.5365465164184570,0.4814054489135742
0.5264024734497070,0.4814054489135742
0.5166709899902343,0.4782651901245117
0.5375616073608398,0.4782651901245117
0.5287857055664062,0.4688358306884766
0.5153017044067383,0.4688358306884766
0.5344785690307617,0.4914613723754883
0.5410875320434571,0.4914613723754883
0.5169651031494140,0.4666986465454102
0.5176082611083984,0.4666986465454102
0.5416179656982422,0.4866891860961914
0.5319076538085937,0.4866891860961914
0.5204647064208984,0.4858777999877930
0.5415624618530274,0.4858777999877930
0.5337753295898438,0.4771259307861328
0.5198026657104492,0.4771259307861328
0.5372823715209961,0.4999637603759766
0.5447959899902344,0.4999637603759766
0.5244071960449218,0.4768112182617187
0.5258766174316406,0.4768112182617187
0.5482269287109375,0.4997846603393554
0.5384016036987305,0.4997846603393554
0.5277751922607422,0.4998825073242187
0.5486806869506836,0.4998825073242187
0.5385297775268555,0.4901521682739258
0.5249319076538086,0.4901521682739258
0.5465091705322266,0.5129402160644531
0.5543443679809570,0.5129402160644531
0.5317096710205078,0.4906019210815429
0.5322046279907227,0.4906019210815429
0.5551179885864258,0.5117002487182617
0.5443714141845702,0.5117002487182617
0.5309263229370117,0.5087493896484375
0.5515617370605469,0.5087493896484375
0.5451284408569336,0.4979146957397461
0.5316884994506835,0.4979146957397461
0.5502147674560547,0.5201677322387696
0.5572122573852539,0.5201677322387696
0.5350822448730469,0.4966197967529297
0.5348522186279296,0.4966197967529297
0.5548376083374024,0.5145589828491210
0.5450145721435546,0.5145589828491210
0.5354513168334961,0.5107583999633789
0.5553926467895508,0.5107583999633789
0.5474681854248047,0.5015607833862304
0.5339738845825195,0.5015607833862304
0.5528806686401367,0.5226339340209961
0.5593196868896484,0.5226339340209961
0.5351583480834960,0.4980525970458984
0.5350547790527344,0.4980525970458984
0.5591926574707031,0.5161623001098633
0.5501810073852539,0.5161623001098633
0.5386270523071289,0.5141212463378906
0.5581008911132812,0.5141212463378906
0.5505924224853516,0.5046014785766602
0.5366558074951172,0.5046014785766602
0.5527341842651367,0.5238996505737304
0.5597791671752930,0.5238996505737304
0.5396295547485351,0.4987976074218750
0.5396856307983399,0.4987976074218750
0.5615312576293945,0.5181118011474609
0.5515388488769531,0.5181118011474609
0.5399070739746094,0.5141521453857422
0.5583463668823242,0.5141521453857422
0.5476667404174804,0.5006732940673828
0.5330629348754883,0.5006732940673828
0.5514570236206054,0.5153766632080078
0.5565359115600585,0.5153766632080078
0.5313474655151367,0.4832565307617187
0.5280807495117187,0.4832565307617187
0.5485576629638672,0.4954811096191406
0.5362615585327148,0.4954811096191406
0.5209625244140624,0.4848535537719726
0.5385927200317383,0.4848535537719726
0.5312192916870117,0.4694349288940429
0.5167963027954101,0.4694349288940429
0.5340911865234375,0.4883543014526367
0.5403316497802734,0.4883543014526367
0.5183235168457031,0.4629993438720703
0.5172454833984375,0.4629993438720703
0.5372646331787109,0.4807519912719727
0.5275600433349609,0.4807519912719727
0.5179698944091796,0.4762538909912109
0.5376949310302734,0.4762538909912109
0.5293464660644531,0.4672325134277344
0.5157588958740235,0.4672325134277344
0.5341466903686524,0.4888813018798828
0.5409639358520507,0.4888813018798828
0.5165279388427734,0.4641517639160156
0.5163705825805663,0.4641517639160156
0.5406011581420899,0.4833189010620117
0.5314544677734375,0.4833189010620117
0.5199583053588867,0.4816274642944336
0.5392719268798828,0.4816274642944336
0.5321336746215820,0.4728441238403320
0.5181495666503906,0.4728441238403320
0.5343566894531250,0.4941965103149414
0.5417398452758789,0.4941965103149414
0.5215559005737305,0.4702268600463867
0.5218328475952149,0.4702268600463867
0.5441596984863281,0.4921915054321289
0.5349266052246093,0.4921915054321289
0.5242120742797851,0.4907621383666992
0.5437883377075196,0.4907621383666992
0.5346199035644531,0.4818157196044922
0.5215724945068360,0.4818157196044922
0.5423841476440430,0.5041191101074218
0.5508699417114258,0.5041191101074218
0.5291856765747071,0.4834035873413086
0.5292697906494140,0.4834035873413086
0.5529458999633788,0.5058551788330078
0.5436836242675781,0.5058551788330078
0.5306396484375000,0.5040241241455078
0.5506690979003906,0.5040241241455078
0.5452503204345703,0.4953718185424805
0.5325325012207031,0.4953718185424805
0.5504865646362305,0.5185998916625977
0.5581203460693359,0.5185998916625977
0.5364704132080078,0.4961414337158203
0.5357517242431641,0.4961414337158203
0.5560363769531250,0.5151729583740234
0.5465171813964843,0.5151729583740234
0.5367753982543945,0.5113237380981445
0.5566709518432617,0.5113237380981445
0.5487556457519531,0.5027996063232422
0.5348402023315429,0.5027996063232422
0.5535495758056640,0.5241193771362305
0.5603445053100585,0.5241193771362305
0.5362049102783203,0.4991254806518555
0.5356779098510742,0.4991254806518555
0.5601013183593749,0.5185644149780273
0.5507640838623047,0.5185644149780273
0.5370128631591796,0.5142780303955078
0.5614105224609375,0.5142780303955078
0.5529247283935547,0.5063838958740234
0.5351366043090821,0.5063838958740234
0.5530860900878906,0.5270507812499999
0.5613412857055664,0.5270507812499999
0.5392902374267577,0.5005239486694336
0.5399242401123047,0.5005239486694336
0.5624822616577149,0.5219718933105468
0.5523141860961914,0.5219718933105468
0.5407756805419922,0.5182199478149414
0.5605836868286133,0.5182199478149414
0.5509952545166016,0.5078355789184570
0.5366231918334960,0.5078355789184570
0.5564374923706055,0.5275354385375977
0.5639179229736327,0.5275354385375977
0.5408906936645508,0.5029100418090821
0.5400993347167968,0.5029100418090821
0.5451044082641602,0.5024436950683594
0.5451044082641602,0.5024436950683594
0.5603261947631836,0.5246114730834961
0.5603261947631836,0.5246114730834961
0.5321702957153320,0.4977561950683593
0.5321702957153320,0.4977561950683593
0.5512247085571289,0.5027561187744141
0.5333147048950195,0.5027561187744141
0.5343389511108398,0.5003374099731445
0.5343389511108398,0.5003374099731445
0.5271274566650390,0.4717031478881836
0.5271274566650390,0.4717031478881836
0.5408992767333984,0.4908548355102539
0.5408992767333984,0.4908548355102539
0.5109952926635742,0.4684209823608398
0.5109952926635742,0.4684209823608398
0.5337375640869141,0.4725070953369140
0.5337375640869141,0.4725070953369140
0.5208686828613281,0.4831180572509766
0.5208686828613281,0.4831180572509766
0.5207027435302735,0.4611322402954101
0.5207027435302735,0.4611322402954101
0.5368886947631836,0.4901052474975586
0.5368886947631836,0.4901052474975586
0.5097707748413086,0.4637889862060547
0.5097707748413086,0.4637889862060547
0.5331087112426758,0.4736188888549804
0.5331087112426758,0.4736188888549804
0.5239053726196289,0.4857713699340820
0.5239053726196289,0.4857713699340820
0.5222087860107422,0.4696895599365234
0.5222087860107422,0.4696895599365234
0.5390481948852539,0.4904909133911133
0.5390481948852539,0.4904909133911133
0.5127599716186523,0.4695642471313476
0.5127599716186523,0.4695642471313476
0.5371662139892578,0.4797986984252929
0.5371662139892578,0.4797986984252929
0.5270730972290039,0.4964904785156250
0.5270730972290039,0.4964904785156250
0.5262931823730469,0.4732767105102539
0.5262931823730469,0.4732767105102539
0.5423423767089843,0.4986631393432617
0.5423423767089843,0.4986631393432617
0.5185232162475586,0.4789501190185547
0.5185232162475586,0.4789501190185547
0.5428533554077148,0.4941616058349609
0.5428533554077148,0.4941616058349609
0.5340774536132812,0.5033655166625977
0.5340774536132812,0.5033655166625977
0.5339435577392578,0.4853084564208984
0.5339435577392578,0.4853084564208984
0.5514215469360352,0.5108413696289062
0.5514215469360352,0.5108413696289062
0.5259653091430664,0.4947481155395508
0.5259653091430664,0.4947481155395508
0.5497003555297851,0.5004787445068359
0.5497003555297851,0.5004787445068359
0.5391139984130859,0.5119565963745117
0.5391139984130859,0.5119565963745117
0.5389554977416992,0.4921977996826172
0.5389554977416992,0.4921977996826172
0.5545080184936523,0.5196115493774414
0.5545080184936523,0.5196115493774414
0.5281688690185546,0.4932769775390625
0.5281688690185546,0.4932769775390625
0.5508888244628906,0.5013050079345703
0.5508888244628906,0.5013050079345703
0.5402692794799805,0.5114421844482422
0.5402692794799805,0.5114421844482422
0.5383552551269531,0.4942594528198242
0.5383552551269531,0.4942594528198242
0.5536697387695312,0.5127794265747070
0.5517185211181640,0.5127794265747070
0.5260894775390624,0.4897481918334960
0.5260894775390624,0.4897481918334960
0.5501535415649413,0.4980245590209961
0.5501535415649413,0.4980245590209961
0.5387529373168946,0.5119651794433594
0.5387529373168946,0.5119651794433594
0.5371759414672851,0.4874444961547851
0.5371759414672851,0.4874444961547851
0.5527994155883789,0.5110015869140625
0.5527994155883789,0.5110015869140625
0.5267303466796874,0.4895256042480469
0.5267303466796874,0.4895256042480469
0.5499835968017578,0.5034233093261719
0.5499835968017578,0.5034233093261719
0.5392805099487304,0.5108047485351562
0.5392805099487304,0.5108047485351562
0.5374471664428710,0.4913360595703125
0.5374471664428710,0.4913360595703125
0.5546710968017577,0.5151151657104492
0.5546710968017577,0.5151151657104492
0.5276676177978515,0.4963365554809570
0.5276676177978515,0.4963365554809570
0.5500190734863281,0.4986047744750977
0.5500190734863281,0.4986047744750977
0.5172214508056641,0.4750602722167969
0.5172214508056641,0.4750602722167969
0.5132875442504883,0.4674459457397461
0.5132875442504883,0.4674459457397461
0.5233783721923828,0.4839929580688476
0.5233783721923828,0.4839929580688476
0.5172740936279296,0.4774023056030273
0.5354284286499024,0.4872430801391601
0.5353935241699218,0.4872430801391601
0.5175373077392578,0.4755111694335937
0.5175373077392578,0.4755111694335937
0.5234075546264648,0.4904273986816406
0.5411212921142577,0.4904273986816406
0.5228136062622070,0.4673664093017578
0.5228136062622070,0.4673664093017578
0.5383472442626953,0.4917497634887695
0.5383472442626953,0.4917497634887695
0.5133556365966797,0.4708774566650391
0.5133556365966797,0.4708774566650391
0.5377447128295898,0.4857032775878906
0.5377447128295898,0.4857032775878906
0.5275217056274414,0.4936820983886718
0.5275217056274414,0.4936820983886718
0.5279582977294922,0.4756731033325195
0.5279582977294922,0.4756731033325195
0.5456285476684570,0.5015985488891601
0.5456285476684570,0.5015985488891601
0.5201110839843750,0.4863195419311523
0.5201110839843750,0.4863195419311523
0.5457332611083984,0.4946090698242187
0.5457332611083984,0.4946090698242187
0.5348602294921875,0.5078247070312499
0.5348602294921875,0.5078247070312499
0.5368515014648437,0.4908245086669922
0.5368515014648437,0.4908245086669922
0.5538711547851562,0.5210792541503906
0.5538711547851562,0.5210792541503906
0.5283256530761719,0.4968269348144531
0.5283256530761719,0.4968269348144531
0.5532938003540039,0.5083328247070312
0.5532938003540039,0.5083328247070312
0.5428550720214843,0.5199382781982421
0.5428550720214843,0.5199382781982421
0.5428562164306641,0.5042467117309570
0.5428562164306641,0.5042467117309570
0.5598546981811523,0.5248180389404297
0.5598546981811523,0.5248180389404297
0.5315414428710937,0.5015888214111328
0.5315414428710937,0.5015888214111328
0.5567230224609375,0.5114255905151367
0.5567230224609375,0.5114255905151367
0.5437665939331054,0.5246475219726562
0.5437665939331054,0.5246475219726562
0.5428276062011719,0.4993635177612304
0.5428276062011719,0.4993635177612304
0.5577077865600586,0.5213676452636719
0.5577077865600586,0.5213676452636719
0.5294952392578125,0.4959096908569336
0.5294952392578125,0.4959096908569336
0.5522500991821289,0.5078739166259766
0.5522500991821289,0.5078739166259766
0.5390310287475586,0.5134511947631836
0.5390310287475586,0.5134511947631836
0.5379884719848632,0.4924930572509765
0.5379884719848632,0.4924930572509765
0.5548461914062500,0.5164793014526367
0.5548461914062500,0.5164793014526367
0.5269638061523437,0.4969545364379883
0.5269638061523437,0.4969545364379883
0.5518764495849610,0.5038244247436523
0.5518764495849610,0.5038244247436523
0.5376897811889648,0.5141807556152344
0.5376897811889648,0.5141807556152344
0.5403648376464844,0.4935258865356445
0.5403648376464844,0.4935258865356445
0.5562114715576172,0.5218614578247071
0.5562114715576172,0.5218614578247071
0.5272539138793945,0.4918905258178711
0.5272539138793945,0.4918905258178711
0.5490880966186523,0.4974397659301757
0.5490880966186523,0.4974397659301757
0.5318481445312500,0.5001995086669921
0.5318481445312500,0.5001995086669921
0.5278152465820313,0.4773599624633789
0.5278152465820313,0.4773599624633789
0.5412031173706054,0.4934617996215820
0.5412031173706054,0.4934617996215820
0.5113683700561523,0.4675329208374023
0.5113683700561523,0.4675329208374023
0.5349254608154297,0.4759557723999023
0.5349254608154297,0.4759557723999023
0.5216051101684570,0.4894872665405273
0.5216051101684570,0.4894872665405273
0.5214277267456054,0.4655416488647461
0.5214277267456054,0.4655416488647461
0.5367170333862304,0.4893384933471679
0.5367170333862304,0.4893384933471679
0.5109804153442382,0.4673812866210937
0.5199588775634766,0.4673812866210937
0.5351835250854492,0.4815685272216796
0.5351835250854492,0.4815685272216796
0.5231283187866210,0.4884515762329101
0.5231283187866210,0.4884515762329101
0.5233303070068359,0.4694812774658203
0.5233303070068359,0.4694812774658203
0.5403568267822265,0.4939716339111328
0.5403568267822265,0.4939716339111328
0.5137041091918945,0.4765211105346679
0.5137041091918945,0.4765211105346679
0.5386064529418945,0.4833406448364257
0.5386064529418945,0.4833406448364257
0.5266347885131836,0.4944231033325195
0.5266347885131836,0.4944231033325195
0.5286054611206055,0.4766744613647461
0.5180105209350586,0.4766744613647461
0.5448972702026367,0.5058643341064453
0.5448972702026367,0.5058643341064453
0.5198015213012696,0.4818071365356445
0.5198015213012696,0.4818071365356445
0.5452234268188476,0.4937261581420898
0.5452234268188476,0.4937261581420898
0.5352693557739258,0.5061389923095703
0.5352693557739258,0.5061389923095703
0.5364303588867188,0.4935579299926758
0.5364303588867188,0.4935579299926758
0.5534082412719726,0.5144256591796875
0.5534082412719726,0.5144256591796875
0.5268636703491211,0.4934537887573242
0.5268636703491211,0.4934537887573242
0.5524738311767577,0.5036642074584960
0.5524738311767577,0.5036642074584960
0.5399345397949219,0.5172809600830078
0.5399345397949219,0.5172809600830078
0.5394098281860351,0.4924180984497070
0.5394098281860351,0.4924180984497070
0.5537275314331055,0.5132658004760742
0.5537275314331055,0.5132658004760742
0.5263189315795899,0.4887331008911133
0.5263189315795899,0.4887331008911133
0.5486085891723632,0.5005817413330078
0.5486085891723632,0.5005817413330078
0.5348173141479492,0.5037025451660156
0.5348173141479492,0.5037025451660156
0.5333335876464843,0.4831123352050781
0.5333335876464843,0.4831123352050781
0.5493862152099609,0.5057350158691406
0.5493862152099609,0.5057350158691406
0.5217910766601562,0.4878038406372070
0.5217910766601562,0.4878038406372070
0.5458305358886718,0.4932123184204101
0.5458305358886718,0.4932123184204101
0.5331253051757813,0.5029066085815429
0.5331253051757813,0.5029066085815429
0.5340511322021484,0.4842670440673828
0.5340511322021484,0.4842670440673828
0.5496465682983398,0.5125185012817383
0.5496465682983398,0.5125185012817383
0.5236593246459961,0.4871961593627929
0.5236593246459961,0.4871961593627929
0.5481525421142578,0.4982814788818359
0.5481525421142578,0.4982814788818359
0.5375867843627929,0.5093536376953125
0.5375867843627929,0.5093536376953125
0.5395534515380859,0.4961420059204101
0.5395534515380859,0.4961420059204101
0.5548553466796875,0.5163145065307617
0.5548553466796875,0.5163145065307617
0.5282930374145508,0.4941490173339844
0.5282930374145508,0.4941490173339844
0.5518438339233398,0.5013793945312500
0.5518438339233398,0.5013793945312500
0.5350587844848632,0.5089221954345703
0.5350587844848632,0.5089221954345703
0.5304897308349609,0.4774148941040039
0.5304897308349609,0.4774148941040039
0.5411310195922852,0.4949993133544922
0.5411310195922852,0.4949993133544922
0.5126953125000000,0.4688158035278320
0.5126953125000000,0.4688158035278320
0.5344030380249023,0.4807863235473633
0.5344030380249023,0.4807863235473633
0.5208749771118164,0.4849788665771484
0.5208749771118164,0.4849788665771484
0.5211072921752929,0.4654272079467773
0.5211072921752929,0.4654272079467773
0.5371147155761719,0.4889608383178711
0.5371147155761719,0.4889608383178711
0.5104379653930664,0.4710445404052734
0.5104379653930664,0.4710445404052734
0.5351669311523437,0.4773839950561523
0.5351669311523437,0.4773839950561523
0.5402109146118164,0.4853982925415039
0.5320678710937500,0.4853982925415039
0.5193895339965821,0.4816125869750976
0.5378986358642578,0.4816125869750976
0.5330051422119141,0.4756376266479492
0.5184551239013672,0.4756376266479492
0.5332345962524414,0.4948591232299804
0.5416872024536132,0.4948591232299804
0.5219902038574219,0.4702857971191406
0.5203010559082031,0.4702857971191406
0.5452245712280274,0.4941690444946289
0.5364561080932617,0.4941690444946289
0.5245382308959960,0.4901893615722656
0.5435302734374999,0.4901893615722656
0.5364543914794921,0.4840078353881836
0.5223850250244141,0.4840078353881836
0.5416185379028320,0.5054203033447265
0.5509025573730468,0.5054203033447265
0.5285596847534180,0.4828256607055664
0.5267486572265625,0.4828256607055664
0.5527267456054688,0.5073040008544921
0.5427801132202148,0.5073040008544921
0.5279926300048828,0.5007888793945312
0.5486755371093750,0.5007888793945312
0.5445276260375976,0.4933805465698242
0.5301555633544922,0.4933805465698242
0.5473199844360351,0.5149045944213867
0.5551328659057617,0.5149045944213867
0.5328380584716796,0.4884384155273437
0.5297904968261719,0.4884384155273437
0.5525808334350586,0.5086727142333984
0.5424510955810546,0.5086727142333984
0.5302642822265625,0.4996999740600586
0.5496786117553710,0.4996999740600586
0.5429323196411132,0.4919683456420898
0.5272293090820312,0.4919683456420898
0.5444005966186524,0.5116024017333984
0.5518484115600586,0.5116024017333984
0.5269060134887695,0.4831100463867187
0.5240478515625000,0.4831100463867187
0.5507331848144531,0.5035806655883789
0.5410291671752929,0.5035806655883789
0.5264997482299805,0.4958513259887695
0.5488517761230468,0.4958513259887695
0.5424676895141601,0.4896125793457031
0.5251642227172851,0.4896125793457031
0.5421186447143554,0.5102336883544921
0.5509243011474609,0.5102336883544921
0.5290512084960938,0.4825733184814453
0.5263784408569335,0.4825733184814453
0.5524927139282226,0.5063461303710938
0.5423984527587891,0.5063461303710938
0.5287919998168945,0.4995941162109375
0.5492689132690429,0.4995941162109375
0.5421169281005859,0.4920633316040039
0.5266210556030273,0.4920633316040039
0.5448886871337890,0.5124578475952148
0.5536903381347656,0.5124578475952148
0.5310642242431640,0.4883422851562500
0.5290008544921875,0.4883422851562500
0.5545663833618164,0.5112333297729492
0.5453281402587891,0.5112333297729492
0.5310344696044922,0.5055484771728516
0.5499206542968750,0.5055484771728516
0.5456193923950196,0.4969030380249023
0.5311557769775390,0.4969030380249023
0.5462224960327148,0.5138906478881836
0.5522752761840820,0.5138906478881836
0.5282735824584961,0.4820863723754882
0.5228490829467773,0.4820863723754882
0.5441299438476562,0.4955795288085937
0.5333736419677734,0.4955795288085937
0.5202816009521484,0.4839036941528320
0.5368915557861328,0.4839036941528320
0.5307392120361328,0.4738460540771484
0.5155282974243164,0.4738460540771484
0.5310848236083984,0.4911380767822265
0.5384387969970703,0.4911380767822265
0.5156433105468750,0.4651044845581054
0.5125516891479492,0.4651044845581054
0.5381326675415039,0.4851785659790039
0.5297630310058593,0.4851785659790039
0.5168432235717774,0.4797168731689453
0.5348018646240235,0.4797168731689453
0.5302562713623047,0.4730655670166015
0.5164690017700195,0.4730655670166015
0.5316238403320312,0.4918619155883789
0.5400255203247070,0.4918619155883789
0.5194684982299804,0.4669984817504882
0.5168094635009766,0.4669984817504882
0.5420339584350585,0.4891799926757812
0.5336568832397460,0.4891799926757812
0.5212532043457031,0.4835741043090820
0.5389005661010742,0.4835741043090820
0.5331516265869141,0.4766870498657226
0.5192985534667969,0.4766870498657226
0.5364206314086913,0.4960481643676757
0.5447296142578125,0.4960481643676757
0.5231718063354492,0.4726558685302734
0.5202575683593750,0.4726558685302734
0.5453716278076172,0.4946468353271484
0.5368915557861328,0.4946468353271484
0.5232284545898437,0.4888566970825195
0.5409925460815429,0.4888566970825195
0.5373092651367187,0.4820760726928711
0.5236009597778321,0.4820760726928711
0.5395774841308594,0.5025386810302734
0.5478612899780273,0.5025386810302734
0.5262971878051758,0.4783195495605468
0.5234533309936523,0.4783195495605468
0.5478710174560547,0.4994041442871093
0.5396364212036132,0.4994041442871093
0.5274410247802734,0.4934514999389648
0.5455507278442383,0.4934514999389648
0.5407756805419922,0.4869466781616211
0.5269495010375976,0.4869466781616211
0.5434364318847656,0.5069543838500976
0.5514822006225586,0.5069543838500976
0.5289161682128906,0.4814752578735351
0.5258291244506835,0.4814752578735351
0.5512636184692382,0.5020231246948242
0.5426187515258789,0.5020231246948242
0.5292543411254883,0.4962060928344726
0.5467414855957031,0.4962060928344726
0.5420333862304687,0.4887651443481445
0.5274049758911132,0.4887651443481445
0.5425266265869141,0.5074436187744140
0.5505529403686523,0.5074436187744140
0.5292818069458007,0.4817024230957031
0.5262582778930663,0.4817024230957031
0.5507371902465820,0.5029386520385742
0.5421689987182617,0.5029386520385742
0.5294197082519531,0.4971565246582031
0.5467924118041992,0.4971565246582031
0.5410772323608398,0.4894237518310547
0.5269306182861327,0.4894237518310547
0.5439846038818359,0.5084123611450195
0.5525711059570312,0.5084123611450195
0.5310047149658202,0.4851202011108398
0.5279365539550781,0.4851202011108398
0.5536010742187499,0.5074991226196289
0.5451347351074218,0.5074991226196289
0.5312627792358399,0.5023464202880860
0.5493295669555663,0.5023464202880860
0.5462533950805664,0.4962902069091797
0.5327196121215820,0.4962902069091797
0.5489353179931641,0.5178611755371093
0.5576831817626953,0.5178611755371093
0.5363027572631835,0.4950176239013672
0.5330560684204101,0.4950176239013672
0.5571573257446288,0.5166280746459960
0.5488094329833985,0.5166280746459960
0.5367839813232421,0.5097959518432617
0.5541938781738281,0.5097959518432617
0.5485662460327149,0.5005920410156249
0.5322744369506835,0.5005920410156249
0.5458820343017577,0.5114313125610351
0.5504007339477539,0.5114313125610351
0.5245090484619140,0.4766847610473632
0.5185655593872071,0.4766847610473632
0.5428316116333007,0.4904319763183593
0.5328300476074218,0.4904319763183593
0.5183464050292969,0.4807983398437500
0.5346067428588867,0.4807983398437500
0.5295696258544922,0.4712488174438476
0.5147254943847656,0.4712488174438476
0.5291753768920898,0.4881145477294921
0.5368360519409180,0.4881145477294921
0.5160661697387695,0.4614480972290039
0.5129447937011719,0.4614480972290039
0.5376754760742187,0.4832279205322265
0.5291444778442382,0.4832279205322265
0.5167184829711914,0.4771934509277344
0.5337038040161133,0.4771934509277344
0.5279233932495117,0.4697118759155273
0.5138442993164062,0.4697118759155273
0.5308736801147461,0.4881397247314453
0.5393051147460938,0.4881397247314453
0.5171510696411132,0.4641592025756835
0.5139312744140625,0.4641592025756835
0.5392433166503906,0.4862131118774414
0.5304107666015625,0.4862131118774414
0.5160530090332031,0.4795108795166015
0.5340894699096680,0.4795108795166015
0.5308536529541016,0.4718851089477539
0.5168403625488281,0.4718851089477539
0.5327877044677735,0.4927099227905273
0.5413610458374023,0.4927099227905273
0.5197551727294921,0.4679431915283203
0.5167448043823242,0.4679431915283203
0.5411264419555664,0.4898769378662109
0.5329725265502929,0.4898769378662109
0.5216594696044922,0.4834539413452148
0.5405439376831055,0.4834539413452148
0.5360870361328125,0.4781833648681640
0.5221212387084960,0.4781833648681640
0.5388284683227539,0.4986722946166992
0.5471191406250000,0.4986722946166992
0.5235488891601562,0.4726226806640625
0.5203222274780274,0.4726226806640625
0.5473548889160156,0.4936328887939453
0.5385704040527344,0.4936328887939453
0.5246166229248047,0.4879240036010742
0.5430021286010742,0.4879240036010742
0.5382076263427734,0.4805208206176758
0.5226465225219726,0.4805208206176758
0.5371622085571289,0.4990865707397460
0.5453275680541992,0.4990865707397460
0.5236885070800781,0.4715847015380859
0.5208692550659180,0.4715847015380859
0.5445219039916992,0.4958827972412109
0.5355611801147461,0.4958827972412109
0.5216863632202148,0.4866382598876953
0.5432390213012696,0.4866382598876953
0.5361116409301757,0.4794691085815430
0.5201734542846680,0.4794691085815430
0.5383569717407226,0.4987901687622070
0.5476718902587890,0.4987901687622070
0.5241062164306640,0.4730381011962890
0.5204710006713867,0.4730381011962890
0.5476152420043945,0.4965505599975586
0.5372188568115234,0.4965505599975586
0.5220251083374023,0.4890420913696289
0.5427074432373047,0.4890420913696289
0.5387060165405273,0.4820039749145508
0.5239706039428711,0.4820039749145508
0.5405576705932617,0.5040098190307617
0.5491430282592773,0.5040098190307617
0.5269523620605469,0.4800172805786133
0.5242469787597656,0.4800172805786133
0.5484323501586914,0.5025306701660156
0.5398778915405273,0.5025306701660156
0.5284332275390625,0.4970203399658203
0.5480318069458008,0.4970203399658203
0.5433391571044922,0.4929771423339844
0.5292972564697266,0.4929771423339844
0.5461423873901367,0.5146207809448242
0.5544816970825195,0.5146207809448242
0.5314653396606445,0.4906093597412109
0.5288446426391601,0.4906093597412109
0.5556427001953125,0.5125757217407226
0.5476575851440429,0.5125757217407226
0.5346176147460937,0.5081296920776367
0.5522930145263671,0.5081296920776367
0.5474172592163086,0.4992559432983398
0.5313251495361327,0.4992559432983398
0.5437110900878906,0.5104917526245117
0.5490062713623046,0.5104917526245117
0.5256454467773437,0.4756433486938476
0.5205047607421874,0.4756433486938476
0.5435972213745117,0.4914367675781250
0.5333147048950195,0.4914367675781250
0.5193494796752930,0.4808166503906250
0.5353534698486327,0.4808166503906250
0.5287416458129882,0.4702022552490234
0.5139324188232421,0.4702022552490234
0.5307895660400390,0.4863761901855468
0.5387237548828124,0.4863761901855468
0.5163866043090820,0.4613891601562500
0.5127805709838867,0.4613891601562500
0.5379901885986328,0.4825532913208008
0.5288486480712891,0.4825532913208008
0.5144376754760742,0.4748846054077148
0.5318836212158203,0.4748846054077148
0.5287273406982421,0.4664949417114257
0.5147712707519531,0.4664949417114257
0.5302865982055663,0.4865283966064453
0.5383775711059570,0.4865283966064453
0.5166933059692382,0.4613965988159179
0.5131124496459961,0.4613965988159179
0.5366106033325195,0.4820365905761719
0.5283559799194336,0.4820365905761719
0.5165061950683594,0.4752593994140625
0.5347806930541992,0.4752593994140625
0.5301183700561524,0.4697456359863281
0.5161611557006835,0.4697456359863281
0.5328666687011718,0.4904022216796875
0.5411785125732421,0.4904022216796875
0.5180299758911132,0.4654066085815429
0.5154218673706055,0.4654066085815429
0.5425632476806640,0.4867938995361328
0.5347412109374999,0.4867938995361328
0.5219003677368164,0.4833560943603515
0.5399190902709960,0.4833560943603515
0.5363782882690430,0.4778955459594726
0.5221338272094727,0.4778955459594726
0.5364990234375000,0.4980005264282226
0.5451427459716797,0.4980005264282226
0.5253244400024414,0.4731794357299804
0.5228519439697266,0.4731794357299804
0.5477622985839844,0.4968709945678711
0.5394784927368164,0.4968709945678711
0.5272567749023437,0.4925170898437500
0.5447004318237304,0.4925170898437500
0.5385469436645508,0.4849851608276367
0.5247013092041015,0.4849851608276367
0.5424064636230469,0.5036178588867187
0.5511285781860351,0.5036178588867187
0.5293567657470702,0.4809396743774414
0.5261507034301758,0.4809396743774414
0.5517860412597656,0.5029220581054688
0.5429534912109375,0.5029220581054688
0.5456754684448242,0.4964761734008789
0.5494468688964843,0.4964761734008789
0.5430879592895508,0.4885986328125000
0.5291278839111327,0.4885986328125000
0.5448583602905274,0.5099887847900391
0.5532239913940430,0.5099887847900391
0.5316965103149414,0.4866479873657226
0.5283439636230468,0.4866479873657226
0.5516881942749023,0.5074424743652344
0.5433008193969726,0.5074424743652344
0.5323104858398438,0.5009004592895507
0.5505701065063476,0.5009004592895507
0.5463226318359374,0.4964504241943359
0.5321331024169922,0.4964504241943359
0.5487625122070312,0.5170520782470703
0.5569644927978515,0.5170520782470703
0.5335269927978515,0.4925834655761718
0.5306900024414062,0.4925834655761718
0.5577432632446289,0.5134351730346679
0.5501455307006836,0.5134351730346679
0.5367948532104492,0.5096580505371093
0.5545886993408203,0.5096580505371093
0.5506570816040038,0.5041711807250976
0.5360704421997070,0.5041711807250976
0.5500591278076171,0.5225881576538086
0.5582696914672851,0.5225881576538086
0.5381870269775391,0.4968435287475585
0.5353277206420898,0.4968435287475585
0.5599594116210938,0.5197814941406250
0.5513065338134765,0.5197814941406250
0.5386831283569335,0.5139095306396484
0.5555643081665039,0.5139095306396484
0.5489376068115234,0.5045270919799805
0.5338068008422852,0.5045270919799805
0.5488569259643554,0.5155168533325195
0.5543432235717773,0.5155168533325195
0.5291913986206055,0.4804807662963867
0.5225097656250000,0.4804807662963867
0.5453613281249999,0.4934778213500977
0.5344591140747070,0.4934778213500977
0.5180929183959960,0.4803119659423828
0.5344488143920898,0.4803119659423828
0.5306619644165039,0.4679025650024414
0.5157657623291015,0.4679025650024414
0.5309732437133788,0.4862211227416992
0.5386945724487304,0.4862211227416992
0.5167854309082031,0.4597972869873047
0.5127960205078125,0.4597972869873047
0.5357643127441406,0.4798433303833007
0.5268018722534179,0.4798433303833007
0.5151386260986328,0.4711503982543945
0.5337118148803711,0.4711503982543945
0.5283599853515625,0.4653831481933594
0.5134082794189453,0.4653831481933594
0.5298294067382813,0.4853427886962891
0.5375152587890625,0.4853427886962891
0.5131959915161133,0.4583593368530273
0.5099069595336914,0.4583593368530273
0.5368257522583008,0.4785655975341797
0.5283628463745117,0.4785655975341797
0.5148811340332031,0.4735284805297851
0.5334554672241211,0.4735284805297851
0.5294111251831054,0.4669778823852539
0.5144622802734374,0.4669778823852539
0.5291078567504882,0.4865598678588867
0.5378980636596680,0.4865598678588867
0.5169633865356446,0.4600496292114258
0.5146139144897460,0.4600496292114258
0.5400587081909179,0.4844758987426758
0.5308479309082031,0.4844758987426758
0.5173873901367188,0.4780214309692383
0.5392370223999023,0.4780214309692383
0.5317634582519531,0.4718536376953125
0.5153852462768554,0.4718536376953125
0.5350730895996093,0.4923774719238281
0.5441900253295898,0.4923774719238281
0.5211679458618164,0.4678750991821289
0.5179395675659180,0.4678750991821289
0.5452245712280274,0.4923688888549804
0.5347972869873047,0.4923688888549804
0.5191137313842773,0.4845863342285156
0.5406183242797852,0.4845863342285156
0.5369173049926758,0.4776437759399414
0.5214580535888672,0.4776437759399414
0.5383832931518554,0.4999202728271484
0.5467969894409179,0.4999202728271484
0.5242275238037110,0.4750585556030273
0.5211719512939453,0.4750585556030273
0.5449522018432617,0.4962833404541016
0.5356430053710938,0.4962833404541016
0.5239208221435546,0.4891382217407226
0.5432750701904296,0.4891382217407226
0.5382539749145507,0.4843099594116211
0.5240192413330078,0.4843099594116211
0.5408809661865234,0.5050374984741210
0.5489994049072265,0.5050374984741210
0.5254068374633789,0.4803606033325195
0.5230058670043946,0.4803606033325195
0.5497243881225585,0.5015012741088867
0.5418416976928710,0.5015012741088867
0.5288755416870117,0.4978025436401367
0.5470567703247070,0.4978025436401367
0.5432779312133789,0.4928192138671875
0.5286935806274414,0.4928192138671875
0.5429437637329101,0.5120000839233398
0.5514965057373047,0.5120000839233398
0.5313846588134765,0.4864894866943359
0.5296096801757812,0.4864894866943359
0.5543409347534179,0.5106559753417969
0.5458654403686524,0.5106559753417969
0.5335367202758788,0.5058408737182617
0.5513814926147461,0.5058408737182617
0.5451467514038085,0.4993446350097656
0.5313085556030274,0.4993446350097656
0.5490165710449219,0.5182079315185547
0.5579984664916992,0.5182079315185547
0.5361951828002930,0.4958261489868164
0.5336071014404297,0.4958261489868164
0.5591308593750000,0.5185071945190429
0.5506410598754883,0.5185071945190429
0.5358524322509766,0.5110713958740234
0.5534271240234375,0.5110713958740234
0.5499830245971680,0.4995466232299804
0.5343664169311523,0.4995466232299804
0.5476959228515624,0.5111532211303711
0.5523324966430664,0.5111532211303711
0.5281768798828125,0.4753297805786132
0.5212903976440429,0.4753297805786132
0.5418794631958007,0.4878244400024414
0.5311357498168945,0.4878244400024414
0.5186365127563476,0.4742071151733398
0.5349660873413086,0.4742071151733398
0.5286329269409179,0.4653390884399414
0.5131462097167968,0.4653390884399414
0.5288074493408202,0.4825527191162109
0.5356012344360351,0.4825527191162109
0.5109666824340821,0.4545524597167969
0.5072977066040039,0.4545524597167969
0.5342199325561523,0.4731531143188477
0.5258182525634766,0.4731531143188477
0.5127668380737305,0.4685337066650390
0.5306207656860351,0.4685337066650390
0.5264986038208007,0.4614686965942383
0.5116498947143554,0.4614686965942383
0.5254766464233398,0.4799062728881835
0.5338142395019531,0.4799062728881835
0.5134912490844726,0.4526527404785156
0.5107658386230468,0.4526527404785156
0.5354593276977538,0.4757543563842773
0.5265569686889648,0.4757543563842773
0.5138563156127930,0.4704483032226562
0.5315185546875000,0.4704483032226562
0.5243299484252929,0.4618846893310546
0.5099338531494141,0.4618846893310546
0.5283073425292969,0.4798479080200195
0.5370746612548828,0.4798479080200195
0.5149137496948242,0.4572767257690429
0.5120149612426758,0.4572767257690429
0.5377784729003906,0.4796270370483398
0.5285522460937500,0.4796270370483398
0.5137166976928711,0.4740732192993164
0.5322795867919922,0.4740732192993164
0.5296886444091796,0.4667169570922851
0.5162818908691406,0.4667169570922851
0.5319156646728516,0.4900342941284179
0.5413742065429688,0.4900342941284179
0.5204469680786132,0.4682910919189453
0.5176368713378906,0.4682910919189453
0.5410062789916992,0.4902374267578125
0.5329221725463867,0.4902374267578125
0.5226385116577148,0.4845394134521484
0.5419258117675781,0.4845394134521484
0.5374877929687499,0.4817842483520507
0.5233383178710938,0.4817842483520507
0.5405988693237305,0.5033843994140624
0.5487665176391602,0.5033843994140624
0.5250864028930664,0.4796688079833984
0.5226511001586914,0.4796688079833984
0.5498067855834960,0.5007425308227539
0.5420059204101563,0.5007425308227539
0.5289052963256836,0.4977870941162109
0.5471614837646485,0.4977870941162109
0.5432939529418945,0.4928667068481445
0.5286460876464844,0.4928667068481445
0.5429895401000976,0.5117225646972656
0.5513757705688477,0.5117225646972656
0.5315860748291016,0.4861295700073242
0.5291233062744141,0.4861295700073242
0.5542510986328125,0.5099372863769531
0.5457567214965821,0.5099372863769531
0.5334377288818359,0.5045940399169921
0.5509757995605469,0.5045940399169921
0.5444063186645508,0.4978260040283203
0.5304433822631835,0.4978260040283203
0.5484952926635742,0.5162006378173828
0.5571985244750977,0.5162006378173828
0.5351663589477539,0.4937055587768555
0.5323259353637695,0.4937055587768555
0.5579143524169922,0.5165742874145508
0.5489135742187500,0.5165742874145508
0.5340185165405273,0.5098028182983398
0.5519886016845703,0.5098028182983398
0.5495098114013671,0.5020465850830078
0.5358604431152344,0.5020465850830078
0.5521562576293945,0.5240198135375976
0.5603399276733398,0.5240198135375976
0.5390848159790039,0.4999305725097656
0.5358341217041015,0.4999305725097656
0.5588115692138672,0.5207588195800781
0.5502222061157226,0.5207588195800781
0.5388645172119141,0.5121540069580078
0.5567447662353515,0.5121540069580078
0.5500957489013671,0.5019773483276367
0.5333147048950195,0.5019773483276367
0.5466436386108399,0.5108425140380859
0.5503538131713867,0.5108425140380859
0.5229057312011719,0.4717226028442383
0.5170492172241211,0.4717226028442383
0.5417392730712890,0.4837463378906250
0.5310888290405273,0.4837463378906250
0.5162750244140625,0.4736618041992187
0.5333164215087890,0.4736618041992187
0.5275451660156250,0.4630107879638672
0.5115320205688476,0.4630107879638672
0.5253164291381835,0.4798376083374023
0.5328912734985352,0.4798376083374023
0.5116601943969726,0.4512496948242187
0.5087247848510742,0.4512496948242187
0.5331281661987305,0.4736343383789062
0.5235282897949218,0.4736343383789062
0.5103670120239258,0.4670391082763672
0.5288137435913086,0.4670391082763672
0.5215805053710937,0.4581201553344726
0.5065017700195312,0.4581201553344726
0.5246864318847656,0.4763603210449219
0.5333541870117188,0.4763603210449219
0.5104911804199218,0.4521818161010742
0.5077411651611328,0.4521818161010742
0.5333776473999023,0.4739593505859375
0.5236999511718750,0.4739593505859375
0.5090812683105469,0.4672576904296875
0.5288509368896485,0.4672576904296875
0.5247579574584961,0.4591135025024414
0.5104494094848633,0.4591135025024414
0.5271102905273437,0.4813453674316406
0.5359268188476562,0.4813453674316406
0.5137430191040039,0.4566541671752929
0.5106039047241211,0.4566541671752929
0.5360429763793945,0.4801843643188476
0.5262245178222656,0.4801843643188476
0.5144937515258788,0.4726301193237304
0.5360097885131836,0.4726301193237304
0.5302482604980469,0.4684999465942383
0.5153028488159179,0.4684999465942383
0.5323345184326171,0.4906173706054687
0.5408008575439452,0.4906173706054687
0.5171859741210937,0.4662546157836914
0.5152376174926757,0.4662546157836914
0.5423973083496093,0.4884086608886719
0.5340951919555664,0.4884086608886719
0.5212514877319335,0.4856700897216797
0.5403631210327148,0.4856700897216797
0.5360578536987305,0.4809534072875976
0.5215845108032227,0.4809534072875976
0.5365510940551758,0.5008283615112304
0.5450386047363281,0.5008283615112304
0.5249158859252929,0.4753309249877929
0.5227970123291016,0.4753309249877929
0.5475849151611328,0.4991392135620117
0.5388891220092773,0.4991392135620117
0.5267583847045898,0.4939292907714843
0.5444120407104492,0.4939292907714843
0.5378454208374023,0.4865507125854492
0.5237909317016601,0.4865507125854492
0.5417861938476562,0.5050071716308594
0.5501918792724609,0.5050071716308594
0.5281974792480468,0.4818700790405273
0.5253850936889648,0.4818700790405273
0.5506605148315430,0.5040967941284179
0.5419727325439453,0.5040967941284179
0.5277311325073242,0.4974111557006836
0.5457401275634766,0.4974111557006836
0.5423555374145508,0.4889053344726562
0.5289224624633789,0.4889053344726562
0.5450969696044922,0.5104225158691406
0.5531827926635742,0.5104225158691406
0.5320466995239258,0.4863756179809570
0.5288343429565430,0.4863756179809570
0.5519554138183593,0.5069778442382812
0.5433998107910156,0.5069778442382812
0.5324935913085938,0.5000890731811524
0.5506484985351562,0.5000890731811524
0.5454414367675781,0.4944986343383789
0.5312816619873046,0.4944986343383789
0.5479368209838867,0.5146368026733398
0.5554344177246093,0.5146368026733398
0.5318876266479492,0.4882587432861328
0.5292343139648438,0.4882587432861328
0.5551145553588867,0.5062065124511719
0.5460262298583984,0.4888927459716796
0.5316844940185547,0.4967388153076172
0.5471225738525390,0.4967388153076172
0.5392215728759765,0.4790502548217773
0.5213979721069336,0.4790502548217773
0.5332735061645507,0.4892652511596680
0.5389783859252929,0.4892652511596680
0.5170257568359374,0.4563486099243164
0.5130123138427735,0.4563486099243164
0.5359205245971680,0.4746442794799804
0.5258022308349609,0.4746442794799804
0.5126638412475586,0.4665767669677734
0.5294425964355468,0.4665767669677734
0.5215135574340820,0.4559480667114257
0.5064851760864257,0.4559480667114257
0.5243625640869141,0.4726226806640625
0.5322446823120117,0.4726226806640625
0.5097616195678710,0.4487846374511719
0.5066843032836914,0.4487846374511719
0.5316404342651367,0.4694458007812500
0.5219249725341797,0.4694458007812500
0.5070991516113281,0.4625667572021484
0.5252260208129883,0.4625667572021484
0.5213716506958007,0.4532186508178710
0.5071626663208008,0.4532186508178710
0.5232427597045898,0.4745292663574219
0.5315196990966796,0.4745292663574219
0.5101987838745117,0.4507650375366211
0.5074819564819336,0.4507650375366211
0.5305383682250976,0.4708202362060547
0.5219570159912109,0.4708202362060547
0.5107337951660156,0.4641523361206055
0.5296394348144531,0.4641523361206055
0.5244907379150391,0.4589212417602539
0.5103441238403320,0.4589212417602539
0.5279880523681640,0.4795824050903320
0.5357013702392578,0.4795824050903320
0.5122301101684570,0.4553426742553711
0.5099899291992187,0.4553426742553711
0.5368835449218750,0.4760982513427734
0.5288681030273438,0.4760982513427734
0.5161748886108398,0.4742900848388671
0.5351366043090821,0.4742900848388671
0.5307432174682617,0.4699716567993164
0.5165800094604492,0.4699716567993164
0.5316307067871093,0.4909372329711914
0.5403848648071289,0.4909372329711914
0.5208366394042968,0.4667947769165039
0.5193506240844726,0.4667947769165039
0.5444801330566406,0.4925554275512695
0.5359949111938477,0.4925554275512695
0.5242355346679687,0.4894489288330078
0.5427183151245117,0.4894489288330078
0.5358501434326172,0.4831644058227539
0.5220331192016602,0.4831644058227539
0.5404724121093750,0.5031108856201172
0.5491481781005859,0.5031108856201172
0.5272041320800781,0.4808092117309570
0.5250137329101562,0.4808092117309570
0.5500728607177734,0.5036144256591797
0.5412569046020508,0.5036144256591797
0.5274913787841796,0.4977436065673828
0.5460823059082031,0.4977436065673828
0.5420551300048828,0.4897092819213867
0.5283662796020507,0.4897092819213867
0.5451227188110351,0.5114170074462890
0.5533143997192382,0.5114170074462890
0.5318841934204102,0.4870056152343750
0.5291479110717773,0.4870056152343750
0.5520853042602539,0.5081674575805664
0.5434627532958984,0.5081674575805664
0.5327419281005860,0.5014314651489258
0.5514553070068359,0.5014314651489258
0.5455678939819336,0.4957208633422852
0.5313817977905273,0.4957208633422852
0.5483837127685547,0.5166406631469727
0.5559522628784179,0.5166406631469727
0.5324975967407226,0.4908657073974609
0.5302024841308594,0.4908657073974609
0.5562103271484374,0.5109489440917968
0.5476221084594727,0.5109489440917968
0.5347091674804687,0.5072153091430663
0.5533338546752929,0.5072153091430663
0.5480941772460938,0.5000249862670898
0.5334262847900391,0.5000249862670898
0.5486143112182617,0.5197723388671874
0.5568889617919922,0.5197723388671874
0.5359817504882812,0.4933605194091797
0.5341615676879883,0.4933605194091797
0.5583023071289063,0.5153749465942382
0.5488895416259766,0.5153749465942382
0.5357957839965820,0.5075923919677734
0.5530609130859375,0.5075923919677734
0.5433609008789062,0.4905755996704101
0.5257266998291016,0.4905755996704101
0.5406286239624023,0.4975919723510742
0.5453041076660156,0.4975919723510742
0.5199657440185547,0.4639686584472656
0.5152404785156249,0.4639686584472656
0.5384548187255859,0.4792573928833008
0.5266370773315430,0.4792573928833008
0.5108018875122070,0.4681457519531250
0.5293481826782226,0.4681457519531250
0.5234212875366211,0.4560047149658203
0.5080289840698242,0.4560047149658203
0.5254005432128906,0.4761903762817383
0.5324850082397461,0.4761903762817383
0.5093713760375976,0.4498060226440430
0.5068113327026367,0.4498060226440430
0.5310298919677734,0.4718227386474609
0.5197420120239258,0.4718227386474609
0.5071861267089843,0.4620735168457031
0.5302785873413086,0.4620735168457031
0.5232473373413086,0.4561992645263672
0.5068805694580077,0.4561992645263672
0.5253999710083007,0.4772272109985352
0.5330228805541992,0.4772272109985352
0.5084953308105469,0.4504154205322266
0.5068685531616210,0.4504154205322266
0.5329364776611328,0.4712636947631836
0.5235334396362304,0.4712636947631836
0.5102817535400390,0.4669979095458984
0.5301000595092773,0.4669979095458984
0.5241027832031250,0.4599248886108398
0.5094841003417968,0.4599248886108398
0.5255481719970703,0.4802158355712891
0.5337484359741210,0.4802158355712891
0.5129035949707031,0.4549501419067383
0.5115062713623046,0.4549501419067383
0.5361940383911132,0.4788019180297851
0.5276338577270507,0.4788019180297851
0.5160158157348632,0.4754917144775390
0.5347732543945313,0.4754917144775390
0.5283565521240234,0.4693553924560547
0.5150510787963867,0.4693553924560547
0.5335081100463867,0.4905858993530273
0.5423023223876953,0.4905858993530273
0.5209745407104492,0.4697507858276367
0.5196870803833008,0.4697507858276367
0.5448989868164062,0.4937364578247070
0.5366312026977539,0.4937364578247070
0.5239500045776367,0.4901372909545898
0.5427898406982422,0.4901372909545898
0.5386138916015625,0.4831689834594726
0.5254800796508788,0.4831689834594726
0.5423789978027344,0.5059055328369141
0.5506090164184571,0.5059055328369141
0.5297058105468749,0.4825922012329101
0.5274055480957031,0.4825922012329101
0.5505088806152344,0.5035371780395508
0.5418039321899414,0.5035371780395508
0.5310144424438477,0.4974895477294922
0.5496356964111327,0.4974895477294922
0.5436412811279296,0.4909463882446289
0.5295530319213867,0.4909463882446289
0.5465784072875977,0.5110296249389649
0.5536960601806641,0.5110296249389649
0.5304456710815429,0.4846595764160156
0.5281093597412109,0.4846595764160156
0.5533023834228515,0.5034799575805664
0.5444589614868164,0.5034799575805664
0.5318824768066406,0.4991031646728515
0.5496425628662109,0.4991031646728515
0.5438484191894531,0.4903284072875976
0.5292154312133789,0.4903284072875976
0.5443428039550781,0.5088546752929687
0.5518592834472656,0.5088546752929687
0.5308061599731445,0.4819009780883789
0.5288040161132812,0.4819009780883789
0.5520704269409179,0.5026330947875977
0.5429460525512695,0.5026330947875977
0.5308811187744140,0.4973596572875976
0.5485662460327149,0.4973596572875976
0.5409656524658203,0.4874330520629883
0.5267618179321288,0.4874330520629883
0.5446815490722656,0.5056079864501953
0.5525424957275390,0.5056079864501953
0.5304061889648437,0.4820108413696289
0.5281677246093750,0.4820108413696289
0.5523027420043946,0.5025335311889648
0.5425821304321289,0.5025335311889648
0.5282695770263671,0.4954811096191406
0.5458425521850586,0.4954811096191406
0.5392444610595702,0.4815473556518555
0.5229148864746094,0.4815473556518555
0.5368875503540039,0.4936380386352539
0.5418325424194336,0.4936380386352539
0.5178571701049804,0.4618938446044922
0.5136812210083007,0.4618938446044922
0.5349042892456054,0.4763139724731445
0.5243934631347656,0.4763139724731445
0.5117815017700195,0.4665218353271484
0.5296760559082031,0.4665218353271484
0.5226127624511718,0.4565471649169922
0.5078172683715820,0.4565471649169922
0.5249702453613281,0.4752410888671875
0.5323453903198242,0.4752410888671875
0.5093044281005860,0.4496669769287109
0.5074882507324219,0.4496669769287109
0.5319974899291992,0.4690011978149414
0.5231752395629883,0.4690011978149414
0.5107229232788085,0.4650220870971680
0.5291936874389648,0.4650220870971680
0.5231826782226562,0.4575862884521484
0.5087116241455077,0.4575862884521484
0.5245147705078125,0.4766647338867187
0.5321657180786132,0.4766647338867187
0.5111709594726562,0.4512548446655273
0.5094308853149414,0.4512548446655273
0.5331499099731445,0.4732091903686523
0.5241411209106445,0.4732091903686523
0.5118936538696289,0.4687688827514648
0.5302631378173828,0.4687688827514648
0.5231266021728516,0.4607019424438477
0.5092763900756836,0.4607019424438477
0.5271520614624023,0.4807256698608398
0.5353494644165039,0.4807256698608398
0.5135290145874023,0.4578958511352539
0.5122724533081054,0.4578958511352539
0.5367416381835938,0.4802089691162109
0.5282123565673827,0.4802089691162109
0.5157594680786133,0.4767242431640625
0.5351194381713867,0.4767242431640625
0.5303089141845703,0.4697799682617188
0.5174800872802734,0.4697799682617188
0.5354330062866210,0.4934440612792969
0.5441350936889648,0.4934440612792969
0.5232410430908203,0.4716836929321289
0.5221206665039062,0.4716836929321289
0.5453201293945312,0.4947069168090820
0.5372961044311523,0.4947069168090820
0.5267097473144531,0.4910316467285156
0.5461961746215820,0.4910316467285156
0.5400558471679687,0.4861936569213867
0.5264974594116211,0.4861936569213867
0.5441574096679688,0.5084003448486328
0.5520521163940429,0.5084003448486328
0.5291604995727539,0.4840496063232422
0.5277563095092773,0.4840496063232422
0.5523124694824219,0.5045991897583008
0.5435211181640625,0.5045991897583008
0.5313028335571289,0.5012186050415038
0.5503938674926757,0.5012186050415038
0.5440824508666992,0.4929639816284179
0.5298974990844726,0.4929639816284179
0.5463701248168945,0.5127834320068360
0.5540382385253906,0.5127834320068360
