REDsignal,IRsignal
0.4282836914062500,0.4532564163208008
0.4308654785156250,0.4591941833496094
0.4308654785156250,0.4591941833496094
0.4256578445434570,0.4526693344116210
0.4256578445434570,0.4526693344116210
0.4311904907226562,0.4566621780395508
0.4311904907226562,0.4566621780395508
0.4258031845092773,0.4574117660522461
0.4258031845092773,0.4574117660522461
0.4285543441772461,0.4535923004150391
0.4285543441772461,0.4535923004150391
0.4312047958374023,0.4596124649047851
0.4312047958374023,0.4596124649047851
0.4252733230590820,0.4530080795288086
0.4252733230590820,0.4530080795288086
0.4322656631469726,0.4574895858764648
0.4322656631469726,0.4574895858764648
0.4264051437377930,0.4584451675415039
0.4264051437377930,0.4584451675415039
0.4292501449584961,0.4549690246582031
0.4292501449584961,0.4549690246582031
0.4314685821533203,0.4610818862915039
0.4314685821533203,0.4610818862915039
0.4268823623657226,0.4550273895263672
0.4268823623657226,0.4550273895263672
0.4335273742675781,0.4597909927368164
0.4335273742675781,0.4597909927368164
0.4279506683349609,0.4610097885131836
0.4279506683349609,0.4610097885131836
0.4300426483154297,0.4574649810791016
0.4300426483154297,0.4574649810791016
0.4336881637573242,0.4639795303344726
0.4336881637573242,0.4639795303344726
0.4286184310913086,0.4579244613647461
0.4286184310913086,0.4579244613647461
0.4353326797485351,0.4627664566040039
0.4353326797485351,0.4627664566040039
0.4290664672851562,0.4638170242309570
0.4290664672851562,0.4638170242309570
0.4323543548583984,0.4603574752807617
0.4323543548583984,0.4603574752807617
0.4353595733642578,0.4667392730712890
0.4344165802001953,0.4667392730712890
0.4301633834838867,0.4606813430786132
0.4301633834838867,0.4606813430786132
0.4360422134399414,0.4650587081909179
0.4360422134399414,0.4650587081909179
0.4311178207397461,0.4662929534912109
0.4311178207397461,0.4662929534912109
0.4336715698242187,0.4626583099365234
0.4336715698242187,0.4626583099365234
0.4366516113281250,0.4689353942871093
0.4366516113281250,0.4689353942871093
0.4307184219360352,0.4624162673950195
0.4307184219360352,0.4624162673950195
0.4377519607543945,0.4669103622436523
0.4377519607543945,0.4669103622436523
0.4322908401489258,0.4680639266967773
0.4322908401489258,0.4680639266967773
0.4346775054931640,0.4643434524536132
0.4346775054931640,0.4643434524536132
0.4368375778198242,0.4702938079833984
0.4368375778198242,0.4702938079833984
0.4321489334106445,0.4638959884643554
0.4321489334106445,0.4638959884643554
0.4386388778686524,0.4683694839477539
0.4386388778686524,0.4683694839477539
0.4331302642822266,0.4694709777832031
0.4331302642822266,0.4694709777832031
0.4346569061279297,0.4654123306274414
0.4346569061279297,0.4654123306274414
0.4382394790649414,0.4715749740600585
0.4382394790649414,0.4715749740600585
0.4329626083374024,0.4652572631835937
0.4329626083374024,0.4652572631835937
0.4394359588623047,0.4698320388793945
0.4394359588623047,0.4698320388793945
0.4331548690795898,0.4707761764526367
0.4331548690795898,0.4707761764526367
0.4360290527343750,0.4669727325439453
0.4360290527343750,0.4669727325439453
0.4391183853149414,0.4732183456420898
0.4391183853149414,0.4732183456420898
0.4338850021362304,0.4669000625610351
0.4338850021362304,0.4669000625610351
0.4395956039428711,0.4712104797363281
0.4395956039428711,0.4712104797363281
0.4347913742065430,0.4723892211914062
0.4347913742065430,0.4723892211914062
0.4369588851928711,0.4686189651489258
0.4369588851928711,0.4686189651489258
0.4400339126586914,0.4747959136962890
0.4400339126586914,0.4747959136962890
0.4340131759643555,0.4680679321289062
0.4340131759643555,0.4680679321289062
0.4408956527709961,0.4725688934326172
0.4408956527709961,0.4725688934326172
0.4354785919189453,0.4737195968627930
0.4354785919189453,0.4737195968627930
0.4375671386718750,0.4697530746459961
0.4375671386718750,0.4697530746459961
0.4399623870849609,0.4755466461181641
0.4399623870849609,0.4755466461181641
0.4348983764648438,0.4686218261718750
0.4348983764648438,0.4686218261718750
0.4409122467041016,0.4722158432006835
0.4409122467041016,0.4722158432006835
0.4348834991455078,0.4722633361816406
0.4348834991455078,0.4722633361816406
0.4350717544555664,0.4661024093627930
0.4350717544555664,0.4661024093627930
0.4371568679809570,0.4694131851196289
0.4371568679809570,0.4694131851196289
0.4299705505371094,0.4599506378173828
0.4299705505371094,0.4599506378173828
0.4345333099365234,0.4613245010375976
0.4345333099365234,0.4613245010375976
0.4268182754516601,0.4592479705810547
0.4268182754516601,0.4592479705810547
0.4277395248413086,0.4527030944824219
0.4277395248413086,0.4527030944824219
0.4297061920166015,0.4567863464355468
0.4297061920166015,0.4567863464355468
0.4232334136962890,0.4485254287719727
0.4232334136962890,0.4485254287719727
0.4278476715087891,0.4512851715087891
0.4278476715087891,0.4512851715087891
0.4226240158081054,0.4514619827270507
0.4226240158081054,0.4514619827270507
0.4238536834716797,0.4465581893920899
0.4238536834716797,0.4465581893920899
0.4267930984497070,0.4523265838623047
0.4267930984497070,0.4523265838623047
0.4205463409423828,0.4452203750610351
0.4205463409423828,0.4452203750610351
0.4272468566894531,0.4494524002075195
0.4272468566894531,0.4494524002075195
0.4222085952758789,0.4507541656494141
0.4222085952758789,0.4507541656494141
0.4240430831909179,0.4470731735229492
0.4240430831909179,0.4470731735229492
0.4269184112548828,0.4535671234130859
0.4269184112548828,0.4535671234130859
0.4224283218383789,0.4476963043212890
0.4224283218383789,0.4476963043212890
0.4290544509887695,0.4527626037597656
0.4290544509887695,0.4527626037597656
0.4244590759277344,0.4548122406005859
0.4244590759277344,0.4548122406005859
0.4257831573486328,0.4510208129882812
0.4257831573486328,0.4510208129882812
0.4300609588623047,0.4577201843261718
0.4300609588623047,0.4577201843261718
0.4246994018554687,0.4515094757080078
0.4246994018554687,0.4515094757080078
0.4310606002807617,0.4558891296386718
0.4310606002807617,0.4558891296386718
0.4254507064819336,0.4571062088012695
0.4313896179199219,0.4571062088012695
0.4275129318237305,0.4529314041137695
0.4275129318237305,0.4529314041137695
0.4308500289916992,0.4589229583740234
0.4308500289916992,0.4589229583740234
0.4252813339233398,0.4522928237915039
0.4252813339233398,0.4522928237915039
0.4307544708251953,0.4562250137329101
0.4307544708251953,0.4562250137329101
0.4262145996093750,0.4573934555053711
0.4262145996093750,0.4573934555053711
0.4277315139770508,0.4532129287719726
0.4277315139770508,0.4532129287719726
0.4311653137207031,0.4593864440917969
0.4311653137207031,0.4593864440917969
0.4248853683471679,0.4525508880615234
0.4248853683471679,0.4525508880615234
0.4316780090332031,0.4570077896118164
0.4316780090332031,0.4570077896118164
0.4269241333007812,0.4585304260253906
0.4269241333007812,0.4585304260253906
0.4284358978271484,0.4545427322387695
0.4284358978271484,0.4545427322387695
0.4313495635986328,0.4607791900634766
0.4313495635986328,0.4607791900634766
0.4265430450439453,0.4544277191162109
0.4265430450439453,0.4544277191162109
0.4328945159912109,0.4590723037719726
0.4328945159912109,0.4590723037719726
0.4283512115478516,0.4608615875244140
0.4283512115478516,0.4608615875244140
0.4291620254516602,0.4568384170532226
0.4291620254516602,0.4568384170532226
0.4335227966308594,0.4634605407714844
0.4335227966308594,0.4634605407714844
0.4281475067138672,0.4571136474609375
0.4281475067138672,0.4571136474609375
0.4345979690551758,0.4618097305297851
0.4345979690551758,0.4618097305297851
0.4292861938476563,0.4634107589721679
0.4292861938476563,0.4634107589721679
0.4313535690307617,0.4596393585205078
0.4313535690307617,0.4596393585205078
0.4351741790771484,0.4660961151123046
0.4351741790771484,0.4660961151123046
0.4297559738159180,0.4598579406738281
0.4297559738159180,0.4598579406738281
0.4353487014770508,0.4641294479370117
0.4353487014770508,0.4641294479370117
0.4313135147094727,0.4658483505249023
0.4313135147094727,0.4658483505249023
0.4327033996582031,0.4618532180786132
0.4327033996582031,0.4618532180786132
0.4363986968994141,0.4683294296264648
0.4363986968994141,0.4683294296264648
0.4303064346313477,0.4617061614990234
0.4303064346313477,0.4617061614990234
0.4369806289672851,0.4659782409667969
0.4369806289672851,0.4659782409667969
0.4325019836425781,0.4677669525146484
0.4325019836425781,0.4677669525146484
0.4337511062622070,0.4636201858520508
0.4337511062622070,0.4636201858520508
0.4366487503051757,0.4696666717529296
0.4366487503051757,0.4696666717529296
0.4316837310791016,0.4630874633789062
0.4316837310791016,0.4630874633789062
0.4378011703491211,0.4674951553344726
0.4378011703491211,0.4674951553344726
0.4332487106323242,0.4691276550292969
0.4332487106323242,0.4691276550292969
0.4337465286254883,0.4646827697753906
0.4337465286254883,0.4646827697753906
0.4380414962768555,0.4710062026977539
0.4380414962768555,0.4710062026977539
0.4325105667114258,0.4644515991210937
0.4325105667114258,0.4644515991210937
0.4386520385742188,0.4687511444091796
0.4386520385742188,0.4687511444091796
0.4390474319458008,0.4703750610351562
0.4390474319458008,0.4709003448486328
0.4390474319458008,0.4712242126464843
0.4327795028686524,0.4686321258544922
0.4327795028686524,0.4686321258544922
0.4378074645996093,0.4690361022949219
0.4378074645996093,0.4690361022949219
0.4378171920776367,0.4729070663452148
0.4378171920776367,0.4729070663452148
0.4345138549804687,0.4670019149780273
0.4345138549804687,0.4670019149780273
0.4403514862060547,0.4729293823242187
0.4403514862060547,0.4729293823242187
0.4335290908813477,0.4714056015014648
0.4335290908813477,0.4714056015014648
0.4386142730712890,0.4692729949951172
0.4386142730712890,0.4692729949951172
0.4383848190307617,0.4743209838867187
0.4383848190307617,0.4743209838867187
0.4355117797851563,0.4683357238769531
0.4355117797851563,0.4683357238769531
0.4408824920654297,0.4751861572265625
0.4408824920654297,0.4751861572265625
0.4340927124023438,0.4711011886596679
0.4340927124023438,0.4711011886596679
0.4388568878173828,0.4696386337280273
0.4388568878173828,0.4696386337280273
0.4386320114135742,0.4739496231079101
0.4386320114135742,0.4739496231079101
0.4344589233398438,0.4676450729370117
0.4344589233398438,0.4676450729370117
0.4387556076049804,0.4698938369750976
0.4387556076049804,0.4698938369750976
0.4300615310668945,0.4641014099121094
0.4300615310668945,0.4641014099121094
0.4334924697875976,0.4599884033203125
0.4334924697875976,0.4599884033203125
0.4316156387329101,0.4629318237304687
0.4316156387329101,0.4629318237304687
0.4264423370361328,0.4524862289428710
0.4264423370361328,0.4524862289428710
0.4302635192871094,0.4556459426879882
0.4302635192871094,0.4556459426879882
0.4224924087524414,0.4508646011352539
0.4224924087524414,0.4508646011352539
0.4261493682861328,0.4490558624267578
0.4261493682861328,0.4490558624267578
0.4253705978393554,0.4515398025512695
0.4253705978393554,0.4515398025512695
0.4210172653198242,0.4441566467285156
0.4210172653198242,0.4441566467285156
0.4264320373535156,0.4492658615112304
0.4264320373535156,0.4492658615112304
0.4192451477050781,0.4470703125000000
0.4192451477050781,0.4470703125000000
0.4238370895385742,0.4443220138549804
0.4238370895385742,0.4443220138549804
0.4237947463989258,0.4490959167480469
0.4237947463989258,0.4490959167480469
0.4203832626342773,0.4428308486938476
0.4203832626342773,0.4428308486938476
0.4260251998901367,0.4498741149902344
0.4260251998901367,0.4498741149902344
0.4195896148681640,0.4465879440307617
0.4195896148681640,0.4465879440307617
0.4245849609375000,0.4458623886108398
0.4245849609375000,0.4458623886108398
0.4252904891967773,0.4516754150390625
0.4252904891967773,0.4516754150390625
0.4222114562988281,0.4471178054809570
0.4222114562988281,0.4471178054809570
0.4282556533813476,0.4525880813598633
0.4282556533813476,0.4525880813598633
0.4218744277954101,0.4505470275878906
0.4218744277954101,0.4505470275878906
0.4272079467773438,0.4497093200683593
0.4272079467773438,0.4497093200683593
0.4274150848388672,0.4562513351440429
0.4274150848388672,0.4562513351440429
0.4240425109863281,0.4488195419311523
0.4240425109863281,0.4488195419311523
0.4294572830200195,0.4547990798950195
0.4294572830200195,0.4547990798950195
0.4231710433959961,0.4521949768066406
0.4231710433959961,0.4521949768066406
0.4276216506958008,0.4518796920776367
0.4276216506958008,0.4518796920776367
0.4278865814208984,0.4557695388793945
0.4278865814208984,0.4557695388793945
0.4242044448852539,0.4491537094116211
0.4242044448852539,0.4491537094116211
0.4299493789672851,0.4549856185913086
0.4299493789672851,0.4549856185913086
0.4232872009277344,0.4535837173461914
0.4232872009277344,0.4535837173461914
0.4279180526733398,0.4511129379272460
0.4279180526733398,0.4511129379272460
0.4279523849487304,0.4563903808593750
0.4279523849487304,0.4563903808593750
0.4248785018920898,0.4500841140747070
0.4248785018920898,0.4500841140747070
0.4304889678955078,0.4572463989257812
0.4304889678955078,0.4572463989257812
0.4240350723266602,0.4539167404174804
0.4240350723266602,0.4539167404174804
0.4289531707763672,0.4528484344482422
0.4289531707763672,0.4528484344482422
0.4295156478881836,0.4584520339965820
0.4295156478881836,0.4584520339965820
0.4260377883911133,0.4535030364990234
0.4260377883911133,0.4535030364990234
0.4319807052612304,0.4587787628173828
0.4319807052612304,0.4587787628173828
0.4254581451416016,0.4566816329956054
0.4254581451416016,0.4566816329956054
0.4307029724121094,0.4558513641357422
0.4307029724121094,0.4558513641357422
0.4311292648315430,0.4626892089843750
0.4311292648315430,0.4626892089843750
0.4277944564819336,0.4554233551025391
0.4277944564819336,0.4554233551025391
0.4336635589599609,0.4616832733154297
0.4336635589599609,0.4616832733154297
0.4276079177856445,0.4597240447998047
0.4276079177856445,0.4597240447998047
0.4322702407836914,0.4598144531250000
0.4281343460083007,0.4598144531250000
0.4327714920043945,0.4641918182373047
0.4327714920043945,0.4641918182373047
0.4290939331054687,0.4579204559326172
0.4290939331054687,0.4579204559326172
0.4353624343872070,0.4642450332641601
0.4353624343872070,0.4642450332641601
0.4288862228393555,0.4632287979125976
0.4288862228393555,0.4632287979125976
0.4336355209350586,0.4607969284057617
0.4336355209350586,0.4607969284057617
0.4340320587158203,0.4663393020629882
0.4340320587158203,0.4663393020629882
0.4306365966796875,0.4600135803222656
0.4306365966796875,0.4600135803222656
0.4364204406738281,0.4672422409057617
0.4364204406738281,0.4672422409057617
0.4299854278564453,0.4639560699462890
0.4299854278564453,0.4639560699462890
0.4344560623168945,0.4626102447509766
0.4344560623168945,0.4626102447509766
0.4351100921630859,0.4680370330810547
0.4351100921630859,0.4680370330810547
0.4313329696655273,0.4626148223876953
0.4313329696655273,0.4626148223876953
0.4372421264648437,0.4674585342407226
0.4372421264648437,0.4674585342407226
0.4307676315307617,0.4653345108032226
0.4307676315307617,0.4653345108032226
0.4355466842651367,0.4639205932617188
0.4355466842651367,0.4639205932617188
0.4358482360839844,0.4704305648803710
0.4358482360839844,0.4704305648803710
0.4322736740112305,0.4628122329711914
0.4322736740112305,0.4628122329711914
0.4378154754638672,0.4688741683959960
0.4378154754638672,0.4688741683959960
0.4318674087524414,0.4669132232666016
0.4318674087524414,0.4669132232666016
0.4362316131591797,0.4667901992797852
0.4362316131591797,0.4667901992797852
0.4367517471313476,0.4709644317626953
0.4367517471313476,0.4709644317626953
0.4332635879516601,0.4644641876220703
0.4332635879516601,0.4644641876220703
0.4390428543090820,0.4706668853759766
0.4390428543090820,0.4706668853759766
0.4326370239257812,0.4697439193725585
0.4326370239257812,0.4697439193725585
0.4371740341186524,0.4671072006225586
0.4371740341186524,0.4671072006225586
0.4373994827270508,0.4723817825317382
0.4373994827270508,0.4723817825317382
0.4341676712036133,0.4658912658691406
0.4341676712036133,0.4658912658691406
0.4397489547729492,0.4729866027832031
0.4397489547729492,0.4729866027832031
0.4332635879516601,0.4696844100952148
0.4332635879516601,0.4696844100952148
0.4376031875610352,0.4678178787231445
0.4376031875610352,0.4678178787231445
0.4379161834716797,0.4726604461669922
0.4379161834716797,0.4726604461669922
0.4336097717285156,0.4661825180053711
0.4336097717285156,0.4661825180053711
0.4384918212890625,0.4692718505859375
0.4384918212890625,0.4692718505859375
0.4303138732910156,0.4643051147460937
0.4303138732910156,0.4643051147460937
0.4331811904907226,0.4595449447631836
0.4331811904907226,0.4595449447631836
0.4314783096313476,0.4627120971679687
0.4314783096313476,0.4627120971679687
0.4259199142456054,0.4514757156372070
0.4259199142456054,0.4514757156372070
0.4297273635864258,0.4544666290283203
0.4297273635864258,0.4544666290283203
0.4219911575317383,0.4499439239501953
0.4219911575317383,0.4499439239501953
0.4250112533569336,0.4473661422729492
0.4250112533569336,0.4473661422729492
0.4244367599487305,0.4499330520629883
0.4244367599487305,0.4499330520629883
0.4197790145874024,0.4418952941894531
0.4197790145874024,0.4418952941894531
0.4252006530761719,0.4470039367675781
0.4252006530761719,0.4470039367675781
0.4182174682617187,0.4452753067016602
0.4182174682617187,0.4452753067016602
0.4221422195434570,0.4417888641357422
0.4221422195434570,0.4417888641357422
0.4224666595458984,0.4467527389526367
0.4224666595458984,0.4467527389526367
0.4187032699584961,0.4398307800292969
0.4187032699584961,0.4398307800292969
0.4243160247802734,0.4469427108764648
0.4243160247802734,0.4469427108764648
0.4180618286132812,0.4441886901855469
0.4180618286132812,0.4441886901855469
0.4223522186279297,0.4427204132080078
0.4182998657226563,0.4427204132080078
0.4236047744750976,0.4486101150512695
0.4236047744750976,0.4486101150512695
0.4201400756835937,0.4436559677124023
0.4201400756835937,0.4436559677124023
0.4262924194335938,0.4491239547729492
0.4262924194335938,0.4491239547729492
0.4202327728271484,0.4479309082031250
0.4202327728271484,0.4479309082031250
0.4249923706054687,0.4466978073120117
0.4249923706054687,0.4466978073120117
0.4256990432739258,0.4533966064453125
0.4256990432739258,0.4533966064453125
0.4220838546752930,0.4457164764404297
0.4220838546752930,0.4457164764404297
0.4276691436767578,0.4516748428344726
0.4276691436767578,0.4516748428344726
0.4215288162231445,0.4499439239501953
0.4215288162231445,0.4499439239501953
0.4258060455322266,0.4489849090576172
0.4258060455322266,0.4489849090576172
0.4262294769287109,0.4530630111694336
0.4262294769287109,0.4530630111694336
0.4223917007446289,0.4461061477661133
0.4223917007446289,0.4461061477661133
0.4281949996948242,0.4518716812133789
0.4281949996948242,0.4518716812133789
0.4216026306152343,0.4512096405029297
0.4216026306152343,0.4512096405029297
0.4258913040161132,0.4480791091918945
0.4258913040161132,0.4480791091918945
0.4262512207031250,0.4535013198852539
0.4262512207031250,0.4535013198852539
0.4228986740112304,0.4468236923217773
0.4228986740112304,0.4468236923217773
0.4285211563110352,0.4539979934692382
0.4285211563110352,0.4539979934692382
0.4222137451171875,0.4513944625854492
0.4222137451171875,0.4513944625854492
0.4266889572143555,0.4496526718139648
0.4266889572143555,0.4496526718139648
0.4275884628295898,0.4553117752075195
0.4275884628295898,0.4553117752075195
0.4239326477050781,0.4499364852905273
0.4239326477050781,0.4499364852905273
0.4298950195312500,0.4551870346069335
0.4298950195312500,0.4551870346069335
0.4234828948974609,0.4539642333984375
0.4234828948974609,0.4539642333984375
0.4284078598022461,0.4524639129638672
0.4284078598022461,0.4524639129638672
0.4291917800903320,0.4592885971069336
0.4291917800903320,0.4592885971069336
0.4256286621093750,0.4518573760986328
0.4256286621093750,0.4518573760986328
0.4316934585571289,0.4582157135009766
0.4316934585571289,0.4582157135009766
0.4256795883178711,0.4571296691894531
0.4256795883178711,0.4571296691894531
0.4300209045410156,0.4564933776855469
0.4300209045410156,0.4564933776855469
0.4308500289916992,0.4611013412475586
0.4308500289916992,0.4611013412475586
0.4271553039550781,0.4546113967895508
0.4271553039550781,0.4546113967895508
0.4335102081298828,0.4609651565551758
0.4335102081298828,0.4609651565551758
0.4270362854003906,0.4608982086181641
0.4270362854003906,0.4608982086181641
0.4316122055053711,0.4577974319458007
0.4316122055053711,0.4577974319458007
0.4323348999023438,0.4635223388671875
0.4323348999023438,0.4635223388671875
0.4287883758544922,0.4568710327148438
0.4287883758544922,0.4568710327148438
0.4303092956542969,0.4577133178710937
0.4303092956542969,0.4581418991088867
0.4338901519775391,0.4646181106567382
0.4338901519775391,0.4646181106567382
0.4289840698242187,0.4586305618286133
0.4289840698242187,0.4586305618286133
0.4343639373779297,0.4616821289062500
0.4343639373779297,0.4616821289062500
0.4312866210937500,0.4647623062133789
0.4312866210937500,0.4647623062133789
0.4304889678955078,0.4593057632446289
0.4304889678955078,0.4593057632446289
0.4353092193603516,0.4658718109130859
0.4353092193603516,0.4658718109130859
0.4298149108886719,0.4600605010986328
0.4298149108886719,0.4600605010986328
0.4352302551269531,0.4629924774169922
0.4352302551269531,0.4629924774169922
0.4312734603881836,0.4658483505249023
0.4312734603881836,0.4658483505249023
0.4317958831787109,0.4607723236083984
0.4317958831787109,0.4607723236083984
0.4362070083618164,0.4675243377685547
0.4362070083618164,0.4675243377685547
0.4307893753051757,0.4618635177612305
0.4307893753051757,0.4618635177612305
0.4354986190795898,0.4645626068115234
0.4354986190795898,0.4645626068115234
0.4329460144042969,0.4676553726196289
0.4329460144042969,0.4676553726196289
0.4303945541381836,0.4625083923339843
0.4372295379638672,0.4693101882934570
0.4372295379638672,0.4693101882934570
0.4310869216918945,0.4633781433105468
0.4310869216918945,0.4633781433105468
0.4370418548583984,0.4660154342651367
0.4370418548583984,0.4660154342651367
0.4337940216064453,0.4691402435302734
0.4337940216064453,0.4691402435302734
0.4336572647094726,0.4640218734741210
0.4336572647094726,0.4640218734741210
0.4372627258300781,0.4703481674194336
0.4372627258300781,0.4703481674194336
0.4323492050170898,0.4643709182739257
0.4323492050170898,0.4643709182739257
0.4375499725341797,0.4668657302856445
0.4375499725341797,0.4668657302856445
0.4340715408325195,0.4693696975708008
0.4340715408325195,0.4693696975708008
0.4326627731323242,0.4628740310668945
0.4326627731323242,0.4628740310668945
0.4365228652954101,0.4676851272583007
0.4365228652954101,0.4676851272583007
0.4295368194580078,0.4592926025390625
0.4295368194580078,0.4592926025390625
0.4332681655883789,0.4592256546020508
0.4332681655883789,0.4592256546020508
0.4276433944702148,0.4589584350585937
0.4276433944702148,0.4589584350585937
0.4261487960815429,0.4505647659301757
0.4261487960815429,0.4505647659301757
0.4287694931030273,0.4543533325195312
0.4287694931030273,0.4543533325195312
0.4219390869140625,0.4465656280517578
0.4219390869140625,0.4465656280517578
0.4254415512084961,0.4468969345092773
0.4254415512084961,0.4468969345092773
0.4216976165771484,0.4485231399536133
0.4216976165771484,0.4485231399536133
0.4208518981933594,0.4420480728149414
0.4208518981933594,0.4420480728149414
0.4245426177978516,0.4478834152221680
0.4245426177978516,0.4478834152221680
0.4181150436401367,0.4414014816284180
0.4181150436401367,0.4414014816284180
0.4236448287963867,0.4434391021728515
0.4236448287963867,0.4434391021728515
0.4204547882080078,0.4463825225830078
0.4204547882080078,0.4463825225830078
0.4202070236206055,0.4412183761596680
0.4202070236206055,0.4412183761596680
0.4240058898925781,0.4478679656982422
0.4240058898925781,0.4478679656982422
0.4192897796630859,0.4427232742309570
0.4192897796630859,0.4427232742309570
0.4250215530395507,0.4458217620849609
0.4250215530395507,0.4458217620849609
0.4220741271972656,0.4496858596801758
0.4220741271972656,0.4496858596801758
0.4217840194702148,0.4448638916015625
0.4217840194702148,0.4448638916015625
0.4270030975341797,0.4519300460815430
0.4270030975341797,0.4519300460815430
0.4218984603881836,0.4469867706298828
0.4218984603881836,0.4469867706298828
0.4275003433227539,0.4497053146362305
0.4275003433227539,0.4497053146362305
0.4238290786743164,0.4530635833740234
0.4238290786743164,0.4530635833740234
0.4241437911987305,0.4477426528930664
0.4241437911987305,0.4477426528930664
0.4285772323608398,0.4542263031005859
0.4285772323608398,0.4542263031005859
0.4230285644531250,0.4489488601684570
0.4230285644531250,0.4489488601684570
0.4277120590209961,0.4508028030395508
0.4277120590209961,0.4508028030395508
0.4249008178710937,0.4539270401000977
0.4249008178710937,0.4539270401000977
0.4246381759643554,0.4484945297241211
0.4246381759643554,0.4484945297241211
0.4290000915527344,0.4549507141113281
0.4290000915527344,0.4549507141113281
0.4226400375366211,0.4492378234863281
0.4226400375366211,0.4492378234863281
0.4284690856933593,0.4513853073120117
0.4284690856933593,0.4513853073120117
0.4254140853881836,0.4548505783081054
0.4254140853881836,0.4548505783081054
0.4252326965332031,0.4495920181274414
0.4252326965332031,0.4495920181274414
0.4290338516235351,0.4559074401855469
0.4290338516235351,0.4559074401855469
0.4240631103515625,0.4508468627929687
0.4240631103515625,0.4508468627929687
0.4296043395996094,0.4532644271850585
0.4296043395996094,0.4532644271850585
0.4267141342163086,0.4569168090820312
0.4267141342163086,0.4569168090820312
0.4258672714233399,0.4517789840698242
0.4236030578613281,0.4517789840698242
0.4311120986938476,0.4585647583007812
0.4311120986938476,0.4585647583007812
0.4257287979125977,0.4537593841552734
0.4257287979125977,0.4537593841552734
0.4313638687133789,0.4563405990600586
0.4313638687133789,0.4563405990600586
0.4278528213500977,0.4597555160522461
0.4278528213500977,0.4597555160522461
0.4282625198364258,0.4546440124511719
0.4282625198364258,0.4546440124511719
0.4328796386718750,0.4615900039672851
0.4328796386718750,0.4615900039672851
0.4275260925292969,0.4567216873168945
0.4275260925292969,0.4567216873168945
0.4323892593383789,0.4587564468383789
0.4323892593383789,0.4587564468383789
0.4299413681030274,0.4623647689819336
0.4299413681030274,0.4623647689819336
0.4297725677490234,0.4572813034057617
0.4297725677490234,0.4572813034057617
0.4344039916992187,0.4640842437744140
0.4344039916992187,0.4640842437744140
0.4280954360961914,0.4587839126586914
0.4280954360961914,0.4587839126586914
0.4342546463012695,0.4608947753906250
0.4342546463012695,0.4608947753906250
0.4312757492065429,0.4646347045898437
0.4312757492065429,0.4646347045898437
0.4310211181640625,0.4594133377075195
0.4310211181640625,0.4594133377075195
0.4347261428833007,0.4656549453735351
0.4347261428833007,0.4656549453735351
0.4298057556152344,0.4606269836425781
0.4298057556152344,0.4606269836425781
0.4352405548095703,0.4626119613647461
0.4352405548095703,0.4626119613647461
0.4322256088256836,0.4662603378295898
0.4322256088256836,0.4662603378295898
0.4311967849731445,0.4606784820556640
0.4311967849731445,0.4606784820556640
0.4362298965454102,0.4670185089111328
0.4362298965454102,0.4670185089111328
0.4305656433105469,0.4620449066162109
0.4305656433105469,0.4620449066162109
0.4360765457153320,0.4640127182006836
0.4360765457153320,0.4640127182006836
0.4324510574340820,0.4673503875732422
0.4324510574340820,0.4673503875732422
0.4324762344360352,0.4619682312011719
0.4324762344360352,0.4619682312011719
0.4370412826538086,0.4685176849365234
0.4370412826538086,0.4685176849365234
0.4314359664916992,0.4638942718505859
0.4314359664916992,0.4638942718505859
0.4363391876220703,0.4654689788818359
0.4363391876220703,0.4654689788818359
0.4338449478149414,0.4690074920654297
0.4338449478149414,0.4690074920654297
0.4335153579711914,0.4638668060302734
0.4335153579711914,0.4638668060302734
0.4381719589233398,0.4703161239624023
0.4381719589233398,0.4703161239624023
0.4316991806030273,0.4652400970458984
0.4316991806030273,0.4652400970458984
0.4377840042114258,0.4669841766357422
0.4377840042114258,0.4669841766357422
0.4348011016845703,0.4706462860107422
0.4348011016845703,0.4706462860107422
0.4343364715576172,0.4653362274169922
0.4343364715576172,0.4653362274169922
0.4381816864013672,0.4712711334228515
0.4381816864013672,0.4712711334228515
0.4328310012817383,0.4662958145141601
0.4328310012817383,0.4662958145141601
0.4382852554321289,0.4676158905029297
0.4382852554321289,0.4676158905029297
0.4348142623901367,0.4704259872436523
0.4348142623901367,0.4704259872436523
0.4329282760620117,0.4635154724121093
0.4329282760620117,0.4635154724121093
0.4367403030395507,0.4673446655273437
0.4367403030395507,0.4673446655273437
0.4290304183959961,0.4593446731567383
0.4290304183959961,0.4593446731567383
0.4327182769775391,0.4577453613281250
0.4327182769775391,0.4577453613281250
0.4268514633178711,0.4575004577636719
0.4268514633178711,0.4575004577636719
0.4248264312744141,0.4485380172729492
0.4248264312744141,0.4485380172729492
0.4276531219482422,0.4520278930664062
0.4276531219482422,0.4520278930664062
0.4203643798828125,0.4449525833129883
0.4203643798828125,0.4449525833129883
0.4241100311279297,0.4444650650024414
0.4241100311279297,0.4444650650024414
0.4205732345581055,0.4464952468872070
0.4205732345581055,0.4464952468872070
0.4193567276000976,0.4399137496948242
0.4193567276000976,0.4399137496948242
0.4234165191650390,0.4451963424682617
0.4234165191650390,0.4451963424682617
0.4162719726562500,0.4395601272583008
0.4162719726562500,0.4395601272583008
0.4220746994018554,0.4403348922729492
0.4159938812255859,0.4403348922729492
0.4187547683715820,0.4437664031982422
0.4187547683715820,0.4437664031982422
0.4182094573974609,0.4380580902099609
0.4182094573974609,0.4380580902099609
0.4221456527709961,0.4440193176269531
0.4221456527709961,0.4440193176269531
0.4167623519897461,0.4395246505737305
0.4167623519897461,0.4395246505737305
0.4225679397583008,0.4414661407470703
0.4225679397583008,0.4414661407470703
0.4199254989624023,0.4456844329833984
0.4199254989624023,0.4456844329833984
0.4191358566284180,0.4405574798583984
0.4191358566284180,0.4405574798583984
0.4245483398437500,0.4472929000854492
0.4245483398437500,0.4472929000854492
0.4189910888671875,0.4433200836181641
0.4189910888671875,0.4433200836181641
0.4249328613281250,0.4451728820800781
0.4249328613281250,0.4451728820800781
0.4215396881103515,0.4488933563232422
0.4215396881103515,0.4488933563232422
0.4215539932250976,0.4435443878173828
0.4215539932250976,0.4435443878173828
0.4261396408081055,0.4497779846191406
0.4261396408081055,0.4497779846191406
0.4201618194580078,0.4452758789062500
0.4201618194580078,0.4452758789062500
0.4250822067260742,0.4461965560913086
0.4250822067260742,0.4461965560913086
0.4225524902343750,0.4496721267700195
0.4225524902343750,0.4496721267700195
0.4219259262084961,0.4440919876098633
0.4219259262084961,0.4440919876098633
0.4264039993286133,0.4501928329467773
0.4264039993286133,0.4501928329467773
0.4196702957153320,0.4453857421875000
0.4196702957153320,0.4453857421875000
0.4258546829223633,0.4466897964477539
0.4258546829223633,0.4466897964477539
0.4228963851928711,0.4505338668823242
0.4228963851928711,0.4505338668823242
0.4223762512207031,0.4451459884643554
0.4223762512207031,0.4451459884643554
0.4264966964721680,0.4511341094970703
0.4264966964721680,0.4511341094970703
0.4210264205932617,0.4468620300292969
0.4210264205932617,0.4468620300292969
0.4269350051879883,0.4485626220703125
0.4269350051879883,0.4485626220703125
0.4240573883056640,0.4525154113769531
0.4240573883056640,0.4525154113769531
0.4229919433593750,0.4471206665039062
0.4229919433593750,0.4471206665039062
0.4283351898193359,0.4535625457763672
0.4283351898193359,0.4535625457763672
0.4225605010986328,0.4496389389038086
0.4225605010986328,0.4496389389038086
0.4286476135253906,0.4514024734497070
0.4286476135253906,0.4514024734497070
0.4298137664794922,0.4547206878662109
0.4247509002685547,0.4547206878662109
0.4235595703125000,0.4550239562988281
0.4313730239868164,0.4550239562988281
0.4278162002563476,0.4534578323364258
0.4278162002563476,0.4534578323364258
0.4294755935668945,0.4584074020385742
0.4294755935668945,0.4584074020385742
0.4252441406250000,0.4520851135253906
0.4252441406250000,0.4520851135253906
0.4317901611328125,0.4577516555786132
0.4317901611328125,0.4577516555786132
0.4252515792846679,0.4590076446533203
0.4252515792846679,0.4590076446533203
0.4295808792114258,0.4551961898803711
0.4295808792114258,0.4551961898803711
0.4310359954833984,0.4609817504882812
0.4310359954833984,0.4609817504882812
0.4269561767578125,0.4546777725219726
0.4269561767578125,0.4546777725219726
0.4330684661865234,0.4611974716186523
0.4330684661865234,0.4611974716186523
0.4265001296997070,0.4601720809936523
0.4265001296997070,0.4601720809936523
0.4304706573486328,0.4571731567382812
0.4304706573486328,0.4571731567382812
0.4322885513305664,0.4630096435546875
0.4322885513305664,0.4630096435546875
0.4279815673828125,0.4576068878173828
0.4279815673828125,0.4576068878173828
0.4340955734252930,0.4617416381835937
0.4340955734252930,0.4617416381835937
0.4274534225463867,0.4617113113403320
0.4274534225463867,0.4617113113403320
0.4316270828247070,0.4586717605590820
0.4316270828247070,0.4586717605590820
0.4329849243164062,0.4654598236083984
0.4329849243164062,0.4654598236083984
0.4287151336669922,0.4578746795654297
0.4287151336669922,0.4578746795654297
0.4347221374511719,0.4631732940673828
0.4347221374511719,0.4631732940673828
0.4284238815307617,0.4632368087768555
0.4284238815307617,0.4632368087768555
0.4324207305908203,0.4613834381103515
0.4324207305908203,0.4613834381103515
0.4339284896850586,0.4659765243530273
0.4339284896850586,0.4659765243530273
0.4296730041503906,0.4595363616943359
0.4296730041503906,0.4595363616943359
0.4360261917114258,0.4649356842041015
0.4360261917114258,0.4649356842041015
0.4292695999145508,0.4661252975463867
0.4292695999145508,0.4661252975463867
0.4334300994873047,0.4620191574096679
0.4334300994873047,0.4620191574096679
0.4347461700439453,0.4677040100097656
0.4347461700439453,0.4677040100097656
0.4308036804199218,0.4612833023071289
0.4308036804199218,0.4612833023071289
0.4367082595825195,0.4676862716674804
0.4367082595825195,0.4676862716674804
0.4302360534667969,0.4665893554687500
0.4302360534667969,0.4665893554687500
0.4342403411865234,0.4634233474731445
0.4342403411865234,0.4634233474731445
0.4358470916748047,0.4690801620483398
0.4358470916748047,0.4690801620483398
0.4314388275146484,0.4636997222900390
0.4314388275146484,0.4636997222900390
0.4374738693237304,0.4675214767456055
0.4374738693237304,0.4675214767456055
0.4304248809814453,0.4672222137451172
0.4304248809814453,0.4672222137451172
0.4343965530395508,0.4633295059204101
0.4343965530395508,0.4633295059204101
0.4350391387939453,0.4688924789428711
0.4350391387939453,0.4688924789428711
0.4295677185058593,0.4590991973876953
0.4295677185058593,0.4590991973876953
0.4339828491210938,0.4611991882324218
0.4339828491210938,0.4611991882324218
0.4256458282470703,0.4581642150878906
0.4256458282470703,0.4581642150878906
0.4276885986328125,0.4528804779052734
0.4276885986328125,0.4528804779052734
0.4272937774658203,0.4541748046875000
0.4272937774658203,0.4541748046875000
0.4210355758666992,0.4449726104736328
0.4210355758666992,0.4449726104736328
0.4260606765747070,0.4479595184326172
0.4260606765747070,0.4479595184326172
0.4182323455810547,0.4472162246704102
0.4182323455810547,0.4472162246704102
0.4213491439819336,0.4415285110473633
0.4213491439819336,0.4415285110473633
0.4221336364746094,0.4460575103759766
0.4221336364746094,0.4460575103759766
0.4174415588378906,0.4388408660888672
0.4174415588378906,0.4388408660888672
0.4230360031127929,0.4444507598876953
0.4176733016967774,0.4444507598876953
0.4161769866943359,0.4431060791015625
0.4161769866943359,0.4431060791015625
0.4199958801269531,0.4397226333618164
0.4199958801269531,0.4397226333618164
0.4219047546386719,0.4455665588378906
0.4219047546386719,0.4455665588378906
0.4175256729125976,0.4403789520263672
0.4175256729125976,0.4403789520263672
0.4239738464355469,0.4448844909667969
0.4239738464355469,0.4448844909667969
0.4176137924194336,0.4456850051879883
0.4176137924194336,0.4456850051879883
0.4222406387329101,0.4432571411132812
0.4222406387329101,0.4432571411132812
0.4240745544433593,0.4506717681884765
0.4240745544433593,0.4506717681884765
0.4201538085937500,0.4437835693359375
0.4201538085937500,0.4437835693359375
0.4263776779174804,0.4492647171020508
0.4263776779174804,0.4492647171020508
0.4202865600585937,0.4497728347778320
0.4202865600585937,0.4497728347778320
0.4242731094360351,0.4477958679199219
0.4242731094360351,0.4477958679199219
0.4259456634521484,0.4523448944091797
0.4259456634521484,0.4523448944091797
0.4214097976684570,0.4458543777465820
0.4214097976684570,0.4458543777465820
0.4275741577148438,0.4506917953491211
0.4275741577148438,0.4506917953491211
0.4207529067993164,0.4517383575439453
0.4207529067993164,0.4517383575439453
0.4246799468994141,0.4473117828369140
0.4246799468994141,0.4473117828369140
0.4260623931884766,0.4527803421020508
0.4260623931884766,0.4527803421020508
0.4218286514282226,0.4462223052978516
0.4218286514282226,0.4462223052978516
0.4278030395507812,0.4522092819213867
0.4278030395507812,0.4522092819213867
0.4211397171020508,0.4513092041015625
0.4287500381469727,0.4513092041015625
0.4251153945922851,0.4480224609375000
0.4251153945922851,0.4480224609375000
0.4268812179565429,0.4538972854614258
0.4268812179565429,0.4538972854614258
0.4225170135498047,0.4487319946289062
0.4225170135498047,0.4487319946289062
0.4287260055541992,0.4528163909912109
0.4287260055541992,0.4528163909912109
0.4220169067382812,0.4532587051391601
0.4220169067382812,0.4532587051391601
0.4265081405639649,0.4503593444824219
0.4265081405639649,0.4503593444824219
0.4282608032226562,0.4574180603027344
0.4282608032226562,0.4574180603027344
0.4239784240722656,0.4502460479736328
0.4239784240722656,0.4502460479736328
0.4302772521972656,0.4555704116821289
0.4302772521972656,0.4555704116821289
0.4240728378295898,0.4560613632202148
0.4240728378295898,0.4560613632202148
0.4281045913696289,0.4542898178100586
0.4281045913696289,0.4542898178100586
0.4301101684570313,0.4591941833496094
0.4301101684570313,0.4591941833496094
0.4255182266235352,0.4530126571655273
0.4255182266235352,0.4530126571655273
0.4321008682250976,0.4584331512451172
0.4321008682250976,0.4584331512451172
0.4255977630615234,0.4599683761596680
0.4255977630615234,0.4599683761596680
0.4297399520874023,0.4558547973632812
0.4297399520874023,0.4558547973632812
0.4315887451171875,0.4617885589599609
0.4315887451171875,0.4617885589599609
0.4272514343261719,0.4556173324584961
0.4272514343261719,0.4556173324584961
0.4334878921508789,0.4618577957153320
0.4334878921508789,0.4618577957153320
0.4268526077270507,0.4611001968383789
0.4268526077270507,0.4611001968383789
0.4307996749877930,0.4579267501831055
0.4307996749877930,0.4579267501831055
0.4330358505249023,0.4638553619384765
0.4330358505249023,0.4638553619384765
0.4283283233642578,0.4586540222167969
0.4283283233642578,0.4586540222167969
0.4345607757568359,0.4625782012939453
0.4345607757568359,0.4625782012939453
0.4279603958129883,0.4628843307495117
0.4279603958129883,0.4628843307495117
0.4320356369018555,0.4596673965454101
0.4320356369018555,0.4596673965454101
0.4337608337402344,0.4664897918701172
0.4337608337402344,0.4664897918701172
0.4291980743408203,0.4590929031372070
0.4291980743408203,0.4590929031372070
0.4352045059204102,0.4639617919921875
0.4352045059204102,0.4639617919921875
0.4289440155029297,0.4643520355224609
0.4289440155029297,0.4643520355224609
0.4327337265014649,0.4621879577636718
0.4327337265014649,0.4621879577636718
0.4346757888793945,0.4667690277099609
0.4346757888793945,0.4667690277099609
0.4299459457397461,0.4605422973632812
0.4299459457397461,0.4605422973632812
0.4363025665283203,0.4654672622680664
0.4363025665283203,0.4654672622680664
0.4297084808349609,0.4670310974121094
0.4297084808349609,0.4670310974121094
0.4336578369140625,0.4626296997070312
0.4336578369140625,0.4626296997070312
0.4353910446166992,0.4684873580932617
0.4353910446166992,0.4684873580932617
0.4311412811279297,0.4622400283813476
0.4311412811279297,0.4622400283813476
0.4372426986694336,0.4683231353759765
0.4372426986694336,0.4683231353759765
0.4307516098022461,0.4675546646118164
0.4307516098022461,0.4675546646118164
0.4345458984375000,0.4641660690307617
0.4345458984375000,0.4641660690307617
0.4365377426147461,0.4699939727783203
0.4365377426147461,0.4699939727783203
0.4317300796508789,0.4647874832153320
0.4317300796508789,0.4647874832153320
0.4379745483398437,0.4683494567871094
0.4379745483398437,0.4683494567871094
0.4311241149902343,0.4683906555175781
0.4311241149902343,0.4683906555175781
0.4349201202392578,0.4644023895263671
0.4349201202392578,0.4644023895263671
0.4361074447631836,0.4701868057250976
0.4361074447631836,0.4701868057250976
0.4304918289184570,0.4609102249145507
0.4304918289184570,0.4609102249145507
0.4348909378051758,0.4626274108886719
0.4348909378051758,0.4626274108886719
0.4265075683593750,0.4595312118530273
0.4328092575073242,0.4595312118530273
0.4280605316162109,0.4536111831665039
0.4280605316162109,0.4536111831665039
0.4278264999389648,0.4545616149902343
0.4278264999389648,0.4545616149902343
0.4208393096923828,0.4450916290283203
0.4208393096923828,0.4450916290283203
0.4257356643676758,0.4472042083740234
0.4257356643676758,0.4472042083740234
0.4177848815917969,0.4464797973632812
0.4177848815917969,0.4464797973632812
0.4204353332519531,0.4402456283569336
0.4204353332519531,0.4402456283569336
0.4215642929077149,0.4446756362915039
0.4215642929077149,0.4446756362915039
0.4162633895874023,0.4372644424438477
0.4162633895874023,0.4372644424438477
0.4217725753784179,0.4421688079833984
0.4217725753784179,0.4421688079833984
0.4149536132812500,0.4408498764038086
0.4149536132812500,0.4408498764038086
0.4181756973266602,0.4368661880493164
0.4181756973266602,0.4368661880493164
0.4202013015747070,0.4422843933105469
0.4202013015747070,0.4422843933105469
0.4151933670043945,0.4369377136230468
0.4151933670043945,0.4369377136230468
0.4214653015136718,0.4406999588012695
0.4214653015136718,0.4406999588012695
0.4151475906372070,0.4412561416625976
0.4151475906372070,0.4412561416625976
0.4192022323608398,0.4383092880249023
0.4192022323608398,0.4383092880249023
0.4215517044067383,0.4456569671630859
0.4215517044067383,0.4456569671630859
0.4169591903686523,0.4389020919799805
0.4169591903686523,0.4389020919799805
0.4234210968017578,0.4441989898681640
0.4234210968017578,0.4441989898681640
0.4175725936889648,0.4452306747436524
0.4175725936889648,0.4452306747436524
0.4213314056396484,0.4432319641113281
0.4213314056396484,0.4432319641113281
0.4236614227294922,0.4481843948364257
0.4236173629760742,0.4481843948364257
0.4188371658325195,0.4418821334838867
0.4188371658325195,0.4418821334838867
0.4251726150512695,0.4464975357055664
0.4251726150512695,0.4464975357055664
0.4185573577880859,0.4478782653808593
0.4185573577880859,0.4478782653808593
0.4221427917480469,0.4432159423828125
0.4221427917480469,0.4432159423828125
0.4238599777221679,0.4487188339233398
0.4238599777221679,0.4487188339233398
0.4191467285156250,0.4422975540161133
0.4191467285156250,0.4422975540161133
0.4202688217163086,0.4430379867553711
0.4190540313720703,0.4430379867553711
0.4248739242553711,0.4483325958251953
0.4248739242553711,0.4483325958251953
0.4186008453369141,0.4446779251098633
0.4186008453369141,0.4446779251098633
0.4247920989990234,0.4453330993652344
0.4247920989990234,0.4453330993652344
0.4226583480834961,0.4496417999267578
0.4226583480834961,0.4496417999267578
0.4204050064086914,0.4441320419311524
0.4204050064086914,0.4441320419311524
0.4263015747070312,0.4499216079711914
0.4263015747070312,0.4499216079711914
0.4198768615722656,0.4469083786010742
0.4198768615722656,0.4469083786010742
0.4260675430297852,0.4478015899658203
0.4260675430297852,0.4478015899658203
0.4235738754272461,0.4520439147949218
0.4235738754272461,0.4520439147949218
0.4227012634277343,0.4468952178955078
0.4227012634277343,0.4468952178955078
0.4282630920410156,0.4531362533569336
0.4282630920410156,0.4531362533569336
0.4217542648315429,0.4501825332641601
0.4217542648315429,0.4501825332641601
0.4274608612060547,0.4508766174316406
0.4274608612060547,0.4508766174316406
0.4260686874389648,0.4553100585937500
0.4260686874389648,0.4553100585937500
0.4246810913085937,0.4503707885742188
0.4246810913085937,0.4503707885742188
0.4301370620727539,0.4565116882324218
0.4301370620727539,0.4565116882324218
0.4230520248413086,0.4531963348388672
0.4230520248413086,0.4531963348388672
0.4297142028808594,0.4536437988281250
0.4297142028808594,0.4536437988281250
0.4278293609619140,0.4583444595336914
0.4278293609619140,0.4583444595336914
0.4264108657836914,0.4531379699707031
0.4264108657836914,0.4531379699707031
0.4310337066650390,0.4588640213012695
0.4310337066650390,0.4588640213012695
0.4250398635864258,0.4556173324584961
0.4250398635864258,0.4556173324584961
0.4311389923095703,0.4562868118286132
0.4311389923095703,0.4562868118286132
0.4292884826660156,0.4608427047729492
0.4322919845581055,0.4608427047729492
0.4270271301269531,0.4551435470581054
0.4270271301269531,0.4551435470581054
0.4328104019165039,0.4607997894287109
0.4328104019165039,0.4607997894287109
0.4262002944946289,0.4575925827026367
0.4262002944946289,0.4575925827026367
0.4322381973266601,0.4580451965332031
0.4322381973266601,0.4580451965332031
0.4296169281005859,0.4620929718017578
0.4296169281005859,0.4620929718017578
0.4284049987792969,0.4565849304199219
0.4284049987792969,0.4565849304199219
0.4336000442504883,0.4623710632324218
0.4336000442504883,0.4623710632324218
0.4270551681518555,0.4592599868774414
0.4270551681518555,0.4592599868774414
0.4323514938354492,0.4593252182006836
0.4323514938354492,0.4593252182006836
0.4309913635253906,0.4634914398193359
0.4309913635253906,0.4634914398193359
0.4293262481689453,0.4583272933959961
0.4293262481689453,0.4583272933959961
0.4346878051757813,0.4641363143920898
0.4346878051757813,0.4641363143920898
0.4273767471313477,0.4606784820556640
0.4273767471313477,0.4606784820556640
0.4339759826660156,0.4610584259033203
0.4339759826660156,0.4610584259033203
0.4320425033569336,0.4655101776123047
0.4320425033569336,0.4655101776123047
0.4304729461669922,0.4603866577148437
0.4304729461669922,0.4603866577148437
0.4350969314575195,0.4658117294311523
0.4350969314575195,0.4658117294311523
0.4288879394531250,0.4623973846435547
0.4288879394531250,0.4623973846435547
0.4350780487060547,0.4629764556884766
0.4350780487060547,0.4629764556884766
0.4331291198730469,0.4672456741333008
0.4331291198730469,0.4672456741333008
0.4306703567504883,0.4615013122558593
0.4306703567504883,0.4615013122558593
0.4363506317138672,0.4669332504272461
0.4363506317138672,0.4669332504272461
0.4295877456665039,0.4636219024658203
0.4295877456665039,0.4636219024658203
0.4354557037353515,0.4635784149169921
0.4354557037353515,0.4635784149169921
0.4323446273803711,0.4667392730712890
0.4323446273803711,0.4667392730712890
0.4303956985473633,0.4598190307617187
0.4303956985473633,0.4598190307617187
0.4344257354736328,0.4630628585815429
0.4344257354736328,0.4630628585815429
0.4256801605224609,0.4566284179687500
0.4256801605224609,0.4566284179687500
0.4290699005126953,0.4533571243286132
0.4290699005126953,0.4533571243286132
0.4256618499755859,0.4537731170654297
0.4256618499755859,0.4537731170654297
0.4218418121337891,0.4452707290649414
0.4218418121337891,0.4452707290649414
0.4254255294799805,0.4482891082763672
0.4254255294799805,0.4482891082763672
0.4165552139282226,0.4423868179321289
0.4165552139282226,0.4423868179321289
0.4218772888183593,0.4407159805297852
0.4218772888183593,0.4407159805297852
0.4191461563110351,0.4436937332153320
0.4191461563110351,0.4436937332153320
0.4167057037353515,0.4372192382812500
0.4167057037353515,0.4372192382812500
0.4207923889160156,0.4417373657226563
0.4207923889160156,0.4417373657226563
0.4141473770141602,0.4375980377197266
0.4141473770141602,0.4375980377197266
0.4198139190673828,0.4376272201538086
0.4198139190673828,0.4376272201538086
0.4179124832153320,0.4418661117553711
0.4179124832153320,0.4418661117553711
0.4154148101806641,0.4361560821533203
0.4154148101806641,0.4361560821533203
0.4212415695190430,0.4416498184204101
0.4212415695190430,0.4416498184204101
0.4148283004760742,0.4390645980834961
0.4148283004760742,0.4390645980834961
0.4210813522338867,0.4398519515991211
0.4210813522338867,0.4398519515991211
0.4189813613891601,0.4445005416870117
0.4189813613891601,0.4445005416870117
0.4180360794067383,0.4397169113159179
0.4180360794067383,0.4397169113159179
0.4237220764160156,0.4460815429687500
0.4237220764160156,0.4460815429687500
0.4173894882202148,0.4435249328613281
0.4173894882202148,0.4435249328613281
0.4229690551757813,0.4437835693359375
0.4229690551757813,0.4437835693359375
0.4217988967895508,0.4480916976928711
0.4217988967895508,0.4480916976928711
0.4199684143066406,0.4429126739501953
0.4199684143066406,0.4429126739501953
0.4252595901489258,0.4483938217163086
0.4252595901489258,0.4483938217163086
0.4177602767944336,0.4448026657104492
0.4177602767944336,0.4448026657104492
0.4241374969482422,0.4446681976318359
0.4241374969482422,0.4446681976318359
0.4221954345703125,0.4488658905029297
0.4221954345703125,0.4488658905029297
0.4203294754028320,0.4434379577636718
0.4203294754028320,0.4434379577636718
0.4248332977294922,0.4485849380493164
0.4248332977294922,0.4485849380493164
0.4185247421264648,0.4449966430664062
0.4185247421264648,0.4449966430664062
0.4244241714477539,0.4453542709350586
0.4244241714477539,0.4453542709350586
0.4227315902709961,0.4497224807739258
0.4227315902709961,0.4497224807739258
0.4201515197753906,0.4441577911376953
0.4201515197753906,0.4441577911376953
0.4261035919189453,0.4497293472290039
0.4261035919189453,0.4497293472290039
0.4193286895751953,0.4468322753906250
0.4193286895751953,0.4468322753906250
0.4255159378051758,0.4473358154296875
0.4255159378051758,0.4473358154296875
0.4233404159545898,0.4515941619873047
0.4233404159545898,0.4515941619873047
0.4220363616943359,0.4462703704833984
0.4220363616943359,0.4462703704833984
0.4276531219482422,0.4524461746215820
0.4276531219482422,0.4524461746215820
0.4210395812988281,0.4495639801025391
0.4210395812988281,0.4495639801025391
0.4265905380249023,0.4498998641967774
0.4265905380249023,0.4498998641967774
0.4256349563598633,0.4544946670532226
0.4256349563598633,0.4544946670532226
0.4238862991333008,0.4496440887451172
0.4238862991333008,0.4496440887451172
0.4294549942016602,0.4556791305541992
0.4294549942016602,0.4556791305541992
0.4222509384155274,0.4525445938110351
0.4222509384155274,0.4525445938110351
0.4289228439331055,0.4528861999511719
0.4289228439331055,0.4528861999511719
0.4274431228637695,0.4576171875000000
0.4274431228637695,0.4576171875000000
0.4257385253906250,0.4526281356811523
0.4257385253906250,0.4526281356811523
0.4305341720581055,0.4581293106079101
0.4305341720581055,0.4581293106079101
0.4243417739868164,0.4550897598266601
0.4243417739868164,0.4550897598266601
0.4304328918457031,0.4555681228637695
0.4304328918457031,0.4555681228637695
0.4289468765258789,0.4601995468139648
0.4289468765258789,0.4601995468139648
0.4264486312866211,0.4546085357666015
0.4264486312866211,0.4546085357666015
0.4322221755981445,0.4600404739379882
0.4322221755981445,0.4600404739379882
0.4255502700805664,0.4570901870727539
0.4255502700805664,0.4570901870727539
0.4315595626831055,0.4573917388916016
0.4315595626831055,0.4573917388916016
0.4293148040771484,0.4615831375122070
0.4293148040771484,0.4615831375122070
0.4278139114379882,0.4560218811035156
0.4278139114379882,0.4560218811035156
0.4331188201904297,0.4617542266845703
0.4331188201904297,0.4617542266845703
0.4264411926269531,0.4587135314941406
0.4264411926269531,0.4587135314941406
0.4316854476928711,0.4586454391479492
0.4316854476928711,0.4586454391479492
0.4306989669799804,0.4627401351928710
0.4306989669799804,0.4627401351928710
0.4286659240722656,0.4575651168823242
0.4286659240722656,0.4575651168823242
0.4341642379760742,0.4633186340332031
0.4341642379760742,0.4633186340332031
0.4266860961914062,0.4600341796875000
0.4266860961914062,0.4600341796875000
0.4332229614257813,0.4601737976074218
0.4332229614257813,0.4601737976074218
0.4316591262817382,0.4647680282592773
0.4316591262817382,0.4647680282592773
0.4298406600952148,0.4596445083618164
0.4298406600952148,0.4596445083618164
0.4345081329345703,0.4648733139038086
0.4345081329345703,0.4648733139038086
0.4282545089721679,0.4617113113403320
0.4282545089721679,0.4617113113403320
0.4342832565307617,0.4621456146240234
0.4342832565307617,0.4621456146240234
0.4328069686889648,0.4664852142333984
0.4328069686889648,0.4664852142333984
0.4301136016845703,0.4609348297119140
0.4301136016845703,0.4609348297119140
0.4358030319213867,0.4663261413574218
0.4319623947143554,0.4663261413574218
0.4290172576904297,0.4632413864135742
0.4290172576904297,0.4632413864135742
0.4349744796752930,0.4633518218994140
0.4349744796752930,0.4633518218994140
0.4325735092163086,0.4669527053833007
0.4325735092163086,0.4669527053833007
0.4305490493774414,0.4604902267456055
0.4305490493774414,0.4604902267456055
0.4351266860961914,0.4648172378540039
0.4351266860961914,0.4648172378540039
0.4269424438476562,0.4592296600341796
0.4269424438476562,0.4592296600341796
0.4303442001342773,0.4558416366577148
0.4303442001342773,0.4558416366577148
0.4273979187011719,0.4567960739135742
0.4273979187011719,0.4567960739135742
0.4232419967651367,0.4479766845703125
0.4232419967651367,0.4479766845703125
0.4266672134399414,0.4504560470581054
0.4266672134399414,0.4504560470581054
0.4175771713256836,0.4442556381225586
0.4175771713256836,0.4442556381225586
0.4224540710449219,0.4418992996215820
0.4224540710449219,0.4418992996215820
0.4198699951171875,0.4446447372436523
0.4198699951171875,0.4446447372436523
0.4169288635253906,0.4378698348999023
0.4169288635253906,0.4378698348999023
0.4209886550903320,0.4421516418457031
0.4209886550903320,0.4421516418457031
0.4140672683715820,0.4380294799804688
0.4140672683715820,0.4380294799804688
0.4196193695068359,0.4376850128173828
0.4196193695068359,0.4376850128173828
0.4178152084350586,0.4415834426879883
0.4178152084350586,0.4415834426879883
0.4151035308837890,0.4356456756591797
0.4151035308837890,0.4356456756591797
0.4207792282104492,0.4409048080444336
0.4207792282104492,0.4409048080444336
0.4140953063964843,0.4380952835083008
0.4140953063964843,0.4380952835083008
0.4202636718750000,0.4386119842529297
0.4202636718750000,0.4386119842529297
0.4218252182006836,0.4418008804321289
0.4218252182006836,0.4418008804321289
0.4234508514404297,0.4433612823486328
0.4228340148925781,0.4433612823486328
0.4196165084838867,0.4414009094238281
0.4196165084838867,0.4414009094238281
0.4227367401123047,0.4468145370483398
0.4227367401123047,0.4468145370483398
0.4177900314331054,0.4410398483276367
0.4177900314331054,0.4410398483276367
0.4245300292968750,0.4458108901977539
0.4245300292968750,0.4458108901977539
0.4184806823730469,0.4478158950805664
0.4184806823730469,0.4478158950805664
0.4214859008789062,0.4431180953979492
0.4214859008789062,0.4431180953979492
0.4238983154296875,0.4489694595336914
0.4238983154296875,0.4489694595336914
0.4189498901367187,0.4425785064697266
0.4189498901367187,0.4425785064697266
0.4251417160034179,0.4478931427001953
0.4251417160034179,0.4478931427001953
0.4189430236816406,0.4473712921142578
0.4189430236816406,0.4473712921142578
0.4217370986938476,0.4436393737792969
0.4217370986938476,0.4436393737792969
0.4244676589965820,0.4493322372436523
0.4244676589965820,0.4493322372436523
0.4190820693969726,0.4440822601318359
0.4190820693969726,0.4440822601318359
0.4254238128662109,0.4474233627319336
0.4254238128662109,0.4474233627319336
0.4192337036132812,0.4481546401977539
0.4192337036132812,0.4481546401977539
0.4224672317504883,0.4447414398193359
0.4224672317504883,0.4447414398193359
0.4250867843627930,0.4518722534179687
0.4250867843627930,0.4518722534179687
0.4199684143066406,0.4446962356567383
0.4199684143066406,0.4446962356567383
0.4265642166137695,0.4493740081787109
0.4265642166137695,0.4493740081787109
0.4208827972412109,0.4505207061767578
0.4208827972412109,0.4505207061767578
0.4239200592041015,0.4483560562133789
0.4239200592041015,0.4483560562133789
0.4267330169677734,0.4537038803100586
0.4267330169677734,0.4537038803100586
0.4216112136840820,0.4477071762084961
0.4216112136840820,0.4477071762084961
0.4285778045654297,0.4526132583618164
0.4285778045654297,0.4526132583618164
0.4227985382080078,0.4549049377441406
0.4227985382080078,0.4549049377441406
0.4258249282836914,0.4505395889282227
0.4219030380249023,0.4505395889282227
0.4285697937011719,0.4568876266479492
0.4285697937011719,0.4568876266479492
0.4238405227661133,0.4509183883666992
0.4238405227661133,0.4509183883666992
0.4302297592163086,0.4568006515502929
0.4302297592163086,0.4568006515502929
0.4245649337768554,0.4567909240722656
0.4245649337768554,0.4567909240722656
0.4273298263549805,0.4532627105712890
0.4273298263549805,0.4532627105712890
0.4303447723388672,0.4595643997192382
0.4303447723388672,0.4595643997192382
0.4252138137817383,0.4544998168945312
0.4252138137817383,0.4544998168945312
0.4316602706909179,0.4580371856689453
0.4316602706909179,0.4580371856689453
0.4259313583374023,0.4590351104736328
0.4259313583374023,0.4590351104736328
0.4289239883422851,0.4555950164794922
0.4289239883422851,0.4555950164794922
0.4315292358398438,0.4626995086669922
0.4315292358398438,0.4626995086669922
0.4263868331909180,0.4553918838500977
0.4263868331909180,0.4553918838500977
0.4325563430786133,0.4598871231079101
0.4325563430786133,0.4598871231079101
0.4270837783813476,0.4609182357788086
0.4270837783813476,0.4609182357788086
0.4298297882080078,0.4582054138183593
0.4298297882080078,0.4582054138183593
0.4324115753173828,0.4631389617919922
0.4324115753173828,0.4631389617919922
0.4272005081176758,0.4567817687988281
0.4272005081176758,0.4567817687988281
0.4337156295776367,0.4613136291503906
0.4337156295776367,0.4613136291503906
0.4278076171875000,0.4633483886718750
0.4278076171875000,0.4633483886718750
0.4306589126586914,0.4586111068725586
0.4306589126586914,0.4586111068725586
0.4330192565917969,0.4645969390869140
0.4330192565917969,0.4645969390869140
0.4282825469970703,0.4583370208740234
0.4282825469970703,0.4583370208740234
0.4345230102539062,0.4640756607055664
0.4345230102539062,0.4640756607055664
0.4287643432617188,0.4637929916381835
0.4287643432617188,0.4637929916381835
0.4315212249755859,0.4601984024047852
0.4315212249755859,0.4601984024047852
0.4342718124389648,0.4664039611816406
0.4342718124389648,0.4664039611816406
0.4290853500366211,0.4611917495727539
0.4290853500366211,0.4611917495727539
0.4355690002441406,0.4646650314331054
0.4355690002441406,0.4646650314331054
0.4294618606567382,0.4654443740844726
0.4294618606567382,0.4654443740844726
0.4326341629028320,0.4618606567382812
0.4326341629028320,0.4618606567382812
0.4351415634155273,0.4688249588012695
0.4351415634155273,0.4688249588012695
0.4298583984375000,0.4613176345825195
0.4298583984375000,0.4613176345825195
0.4361337661743164,0.4656051635742187
0.4361337661743164,0.4656051635742187
0.4301221847534180,0.4660732269287109
0.4301221847534180,0.4660732269287109
0.4324218750000000,0.4626342773437500
0.4324218750000000,0.4626342773437500
0.4342741012573242,0.4661893844604492
0.4342741012573242,0.4661893844604492
0.4276233673095703,0.4574134826660156
0.4276233673095703,0.4574134826660156
0.4322874069213867,0.4583948135375976
0.4322874069213867,0.4583948135375976
0.4242834091186523,0.4568950653076171
0.4242834091186523,0.4568950653076171
0.4248682022094726,0.4483703613281250
0.4248682022094726,0.4483703613281250
0.4253231048583984,0.4509029388427734
0.4253231048583984,0.4509029388427734
0.4184795379638672,0.4416458129882813
0.4184795379638672,0.4416458129882813
0.4232036590576172,0.4447408676147461
0.4232036590576172,0.4447408676147461
0.4162096023559570,0.4426202774047852
0.4162096023559570,0.4426202774047852
0.4177968978881836,0.4374074935913086
0.4177968978881836,0.4374074935913086
0.4199466705322266,0.4423593521118164
0.4199466705322266,0.4423593521118164
0.4141376495361328,0.4361137390136718
0.4141376495361328,0.4361137390136718
0.4200691223144531,0.4388053894042969
0.4200691223144531,0.4388053894042969
0.4138715744018555,0.4390199661254883
0.4138715744018555,0.4390199661254883
0.4165987014770507,0.4351409912109375
0.4165987014770507,0.4351409912109375
0.4190008163452149,0.4419342041015625
0.4190008163452149,0.4419342041015625
0.4138898849487305,0.4346986770629883
0.4138898849487305,0.4346986770629883
0.4155921936035156,0.4394474029541016
0.4149147033691406,0.4407291412353516
0.4149147033691406,0.4407291412353516
0.4180120468139648,0.4386365890502930
0.4180120468139648,0.4386365890502930
0.4209840774536133,0.4442716598510742
0.4209840774536133,0.4442716598510742
0.4161455154418945,0.4385026931762695
0.4161455154418945,0.4385026931762695
0.4229690551757813,0.4435718536376953
0.4229690551757813,0.4435718536376953
0.4172887802124023,0.4458801269531250
0.4172887802124023,0.4458801269531250
0.4202848434448242,0.4414157867431641
0.4202848434448242,0.4414157867431641
0.4227361679077148,0.4475383758544922
0.4227361679077148,0.4475383758544922
0.4178993225097656,0.4410707473754883
0.4178993225097656,0.4410707473754883
0.4239486694335937,0.4464374542236328
0.4239486694335937,0.4464374542236328
0.4180315017700195,0.4459178924560547
0.4180315017700195,0.4459178924560547
0.4206659317016602,0.4418889999389649
0.4206659317016602,0.4418889999389649
0.4231464385986328,0.4476345062255859
0.4231464385986328,0.4476345062255859
0.4177717208862304,0.4421075820922851
0.4177717208862304,0.4421075820922851
0.4239881515502930,0.4452924728393555
0.4239881515502930,0.4452924728393555
0.4178249359130859,0.4459424972534179
0.4178249359130859,0.4459424972534179
0.4208021163940430,0.4421888351440429
0.4208021163940430,0.4421888351440429
0.4232568740844727,0.4492647171020508
0.4232568740844727,0.4492647171020508
0.4181373596191406,0.4418941497802734
0.4181373596191406,0.4418941497802734
0.4246055603027344,0.4464357376098633
0.4246055603027344,0.4464357376098633
0.4189373016357422,0.4474925994873047
0.4189373016357422,0.4474925994873047
0.4217348098754883,0.4451185226440429
0.4217348098754883,0.4451185226440429
0.4244911193847656,0.4502529144287109
0.4244911193847656,0.4502529144287109
0.4193927764892578,0.4442047119140625
0.4193927764892578,0.4442047119140625
0.4262878417968750,0.4491182327270508
0.4262878417968750,0.4491182327270508
0.4205904006958008,0.4515352249145508
0.4205904006958008,0.4515352249145508
0.4235784530639649,0.4471773147583007
0.4235784530639649,0.4471773147583007
0.4264869689941406,0.4536323547363281
0.4264869689941406,0.4536323547363281
0.4217107772827148,0.4476413726806641
0.4217107772827148,0.4476413726806641
0.4282304763793945,0.4536569595336914
0.4282304763793945,0.4536569595336914
0.4226829528808594,0.4539178848266601
0.4226829528808594,0.4539178848266601
0.4254306793212890,0.4504652023315430
0.4254306793212890,0.4504652023315430
0.4285823822021484,0.4568143844604492
0.4285823822021484,0.4568143844604492
0.4235126495361328,0.4518465042114257
0.4235126495361328,0.4518465042114257
0.4300186157226563,0.4555320739746094
0.4300186157226563,0.4555320739746094
0.4243246078491211,0.4566015243530273
0.4243246078491211,0.4566015243530273
0.4272766113281250,0.4530841827392578
0.4272766113281250,0.4530841827392578
0.4298509597778320,0.4603025436401367
0.4298509597778320,0.4603025436401367
0.4247880935668945,0.4528690338134765
0.4247880935668945,0.4528690338134765
0.4310068130493164,0.4574712753295898
0.4310068130493164,0.4574712753295898
0.4255491256713867,0.4583490371704101
0.4255491256713867,0.4583490371704101
0.4281034469604492,0.4558462142944336
0.4281034469604492,0.4558462142944336
0.4307939529418945,0.4606916427612304
0.4307939529418945,0.4606916427612304
0.4254770278930664,0.4543292999267578
0.4254770278930664,0.4543292999267578
0.4319990158081055,0.4587392807006836
0.4319990158081055,0.4587392807006836
0.4260417938232422,0.4606241226196289
0.4260417938232422,0.4606241226196289
0.4287734985351562,0.4558845520019531
0.4287734985351562,0.4558845520019531
0.4313220977783203,0.4618537902832031
0.4313220977783203,0.4618537902832031
0.4263267517089844,0.4555143356323242
0.4263267517089844,0.4555143356323242
0.4326936721801758,0.4611448287963867
0.4272148132324219,0.4611448287963867
0.4268795013427734,0.4610177993774414
0.4268795013427734,0.4610177993774414
0.4297599792480469,0.4574203491210938
0.4297599792480469,0.4574203491210938
0.4325494766235352,0.4636791229248047
0.4325494766235352,0.4636791229248047
0.4273721694946289,0.4584091186523437
0.4273721694946289,0.4584091186523437
0.4338060379028320,0.4619281768798828
0.4338060379028320,0.4619281768798828
0.4278585433959961,0.4628923416137695
0.4278585433959961,0.4628923416137695
0.4309244155883789,0.4593566894531250
0.4309244155883789,0.4593566894531250
0.4335130691528320,0.4665990829467773
0.4335130691528320,0.4665990829467773
0.4284702301025390,0.4591192245483398
0.4284702301025390,0.4591192245483398
0.4348011016845703,0.4636922836303711
0.4348011016845703,0.4636922836303711
0.4291614532470703,0.4645603179931641
0.4291614532470703,0.4645603179931641
0.4317295074462891,0.4618829727172851
0.4317295074462891,0.4618829727172851
0.4342683792114257,0.4666151046752929
0.4342683792114257,0.4666151046752929
0.4287277221679687,0.4597360610961914
0.4287277221679687,0.4597360610961914
0.4349058151245117,0.4634027481079102
0.4349058151245117,0.4634027481079102
0.4281572341918945,0.4638370513916015
0.4281572341918945,0.4638370513916015
0.4295591354370117,0.4565729141235351
0.4295591354370117,0.4565729141235351
0.4304243087768554,0.4595300674438476
0.4304243087768554,0.4595300674438476
0.4233964920043945,0.4499959945678711
0.4233964920043945,0.4499959945678711
0.4277458190917969,0.4520656585693359
0.4212375640869140,0.4520656585693359
0.4199569702148437,0.4488018035888672
0.4257431030273438,0.4488018035888672
0.4208175659179688,0.4424074172973633
0.4208175659179688,0.4424074172973633
0.4224037170410156,0.4462875366210937
0.4224037170410156,0.4462875366210937
0.4159698486328125,0.4392648696899414
0.4159698486328125,0.4392648696899414
0.4214315414428711,0.4412544250488281
0.4214315414428711,0.4412544250488281
0.4150777816772461,0.4411520004272461
0.4150777816772461,0.4411520004272461
0.4173402786254883,0.4367013931274414
0.4173402786254883,0.4367013931274414
0.4196439743041992,0.4431810379028320
0.4196439743041992,0.4431810379028320
0.4142663955688476,0.4355369567871094
0.4142663955688476,0.4355369567871094
0.4203426361083984,0.4398485183715820
0.4203426361083984,0.4398485183715820
0.4148717880249023,0.4409683227539062
0.4148717880249023,0.4409683227539062
0.4176927566528320,0.4385965347290039
0.4176927566528320,0.4385965347290039
0.4207540512084961,0.4440977096557617
0.4207540512084961,0.4440977096557617
0.4158691406250000,0.4384820938110351
0.4158691406250000,0.4384820938110351
0.4228752136230469,0.4436943054199219
0.4228752136230469,0.4436943054199219
0.4174404144287109,0.4463499069213867
0.4174404144287109,0.4463499069213867
0.4205635070800781,0.4423221588134765
0.4205635070800781,0.4423221588134765
0.4233827590942383,0.4487262725830078
0.4233827590942383,0.4487262725830078
0.4187198638916015,0.4427078247070312
0.4187198638916015,0.4427078247070312
0.4250982284545898,0.4483938217163086
0.4250982284545898,0.4483938217163086
0.4193761825561523,0.4483074188232422
0.4193761825561523,0.4483074188232422
0.4220449447631836,0.4445674896240234
0.4220449447631836,0.4445674896240234
0.4247955322265625,0.4504606246948242
0.4247955322265625,0.4504606246948242
0.4193778991699219,0.4450092315673828
0.4193778991699219,0.4450092315673828
0.4257299423217774,0.4481918334960938
0.4257299423217774,0.4481918334960938
0.4196073532104492,0.4490032196044922
0.4196073532104492,0.4490032196044922
0.4225994110107422,0.4451906204223633
0.4225994110107422,0.4451906204223633
0.4249534606933594,0.4522264480590820
0.4249534606933594,0.4522264480590820
0.4198539733886719,0.4447820663452148
0.4198539733886719,0.4447820663452148
0.4262208938598633,0.4492080688476562
0.4262208938598633,0.4492080688476562
0.4205921173095703,0.4501333236694336
0.4205921173095703,0.4501333236694336
0.4231933593750000,0.4477243423461914
0.4231933593750000,0.4477243423461914
0.4260023117065430,0.4528141021728516
0.4253208160400391,0.4528141021728516
0.4208209991455078,0.4466606140136719
0.4208209991455078,0.4466606140136719
0.4275466918945313,0.4515192031860351
0.4275466918945313,0.4515192031860351
0.4219591140747070,0.4537313461303711
0.4219591140747070,0.4537313461303711
0.4248750686645508,0.4492933273315430
0.4248750686645508,0.4492933273315430
0.4277750015258789,0.4556716918945312
0.4277750015258789,0.4556716918945312
0.4228437423706055,0.4497213363647461
0.4228437423706055,0.4497213363647461
0.4292747497558594,0.4555686950683593
0.4292747497558594,0.4555686950683593
0.4237335205078125,0.4557134628295898
0.4237335205078125,0.4557134628295898
0.4264486312866211,0.4522933959960938
0.4264486312866211,0.4522933959960938
0.4295305252075195,0.4585973739624023
0.4295305252075195,0.4585973739624023
0.4244075775146484,0.4535264968872070
0.4244075775146484,0.4535264968872070
0.4308712005615234,0.4571800231933594
0.4308712005615234,0.4571800231933594
0.4252161026000976,0.4581785202026367
0.4252161026000976,0.4581785202026367
0.4281841278076172,0.4547550201416015
0.4281841278076172,0.4547550201416015
0.4308723449707031,0.4619956970214844
0.4308723449707031,0.4619956970214844
0.4257648468017578,0.4547704696655273
0.4257648468017578,0.4547704696655273
0.4320390701293945,0.4592674255371094
0.4320390701293945,0.4592674255371094
0.4266340255737305,0.4603179931640625
0.4266340255737305,0.4603179931640625
0.4293296813964844,0.4578397750854492
0.4293296813964844,0.4578397750854492
0.4319910049438476,0.4628311157226562
0.4319910049438476,0.4628311157226562
0.4267822265625000,0.4564298629760742
0.4267822265625000,0.4564298629760742
0.4332075119018555,0.4608850479125977
0.4332075119018555,0.4608850479125977
0.4273361206054687,0.4628374099731445
0.4273361206054687,0.4628374099731445
0.4301364898681641,0.4580589294433594
0.4301364898681641,0.4580589294433594
0.4325992584228516,0.4641025543212891
0.4325992584228516,0.4641025543212891
0.4276227951049805,0.4578117370605468
0.4276227951049805,0.4578117370605468
0.4339759826660156,0.4633993148803711
0.4339759826660156,0.4633993148803711
0.4281463623046875,0.4632310867309570
0.4281463623046875,0.4632310867309570
0.4309495925903320,0.4594985961914062
0.4309495925903320,0.4594985961914062
0.4336990356445312,0.4657070159912109
0.4336990356445312,0.4657070159912109
0.4284570693969726,0.4605411529541015
0.4284570693969726,0.4605411529541015
0.4349304199218750,0.4639543533325195
0.4349304199218750,0.4639543533325195
0.4289731979370117,0.4648870468139648
0.4289731979370117,0.4648870468139648
0.4320373535156250,0.4613084793090820
0.4320373535156250,0.4613084793090820
0.4345916748046875,0.4684123992919922
0.4345916748046875,0.4684123992919922
0.4294933319091797,0.4611001968383789
0.4294933319091797,0.4611001968383789
0.4358287811279297,0.4655193328857422
0.4358287811279297,0.4655193328857422
0.4299745559692383,0.4663227081298828
0.4299745559692383,0.4663227081298828
0.4327468872070312,0.4636299133300781
0.4327468872070312,0.4636299133300781
0.4352806091308594,0.4683969497680664
0.4352806091308594,0.4683969497680664
0.4297868728637695,0.4616592407226562
0.4297868728637695,0.4616592407226562
0.4359260559082031,0.4655050277709961
0.4359260559082031,0.4655050277709961
0.4293663024902344,0.4662042617797851
0.4293663024902344,0.4662042617797851
0.4310823440551758,0.4592096328735351
0.4310823440551758,0.4592096328735351
0.4316219329833984,0.4619132995605468
0.4316219329833984,0.4619132995605468
0.4245964050292969,0.4520164489746094
0.4245964050292969,0.4520164489746094
0.4287683486938477,0.4538784027099609
0.4287683486938477,0.4538784027099609
0.4206756591796875,0.4500549316406250
0.4206756591796875,0.4500549316406250
0.4214166641235351,0.4433320999145507
0.4214166641235351,0.4433320999145507
0.4227201461791992,0.4469026565551757
0.4227201461791992,0.4469026565551757
0.4161312103271484,0.4395378112792969
0.4161312103271484,0.4395378112792969
0.4215402603149414,0.4413831710815430
0.4215402603149414,0.4413831710815430
0.4148952484130859,0.4410341262817383
0.4148952484130859,0.4410341262817383
0.4172618865966797,0.4363809585571289
0.4172618865966797,0.4363809585571289
0.4191530227661133,0.4426116943359375
0.4191530227661133,0.4426116943359375
0.4137685775756836,0.4346494674682617
0.4137685775756836,0.4346494674682617
0.4195804595947266,0.4386966705322266
0.4195804595947266,0.4386966705322266
0.4139408111572265,0.4393180847167968
0.4139408111572265,0.4393180847167968
0.4165700912475586,0.4366167068481445
0.4165700912475586,0.4366167068481445
0.4191873550415039,0.4418626785278320
0.4191873550415039,0.4418626785278320
0.4143819808959961,0.4358694076538086
0.4143819808959961,0.4358694076538086
0.4210510253906250,0.4408184051513672
0.4210510253906250,0.4408184051513672
0.4154142379760742,0.4433326721191406
0.4154142379760742,0.4433326721191406
0.4186838150024414,0.4392305374145508
0.4186838150024414,0.4392305374145508
0.4214000701904297,0.4458303451538086
0.4214000701904297,0.4458303451538086
0.4168109893798828,0.4398038864135742
0.4168109893798828,0.4398038864135742
0.4232786178588867,0.4456552505493164
0.4232786178588867,0.4456552505493164
0.4175342559814453,0.4454853057861328
0.4175342559814453,0.4454853057861328
0.4203369140625000,0.4417110443115234
0.4203369140625000,0.4417110443115234
0.4229455947875976,0.4477048873901367
0.4229455947875976,0.4477048873901367
0.4175971984863281,0.4422042846679687
0.4175971984863281,0.4422042846679687
0.4238279342651367,0.4453828811645508
0.4238279342651367,0.4453828811645508
0.4176469802856445,0.4459733963012695
0.4176469802856445,0.4459733963012695
0.4206241607666015,0.4420892715454102
0.4206241607666015,0.4420892715454102
0.4229873657226562,0.4489488601684570
0.4229873657226562,0.4489488601684570
0.4177728652954101,0.4414421081542969
0.4177728652954101,0.4414421081542969
0.4241758346557617,0.4459053039550781
0.4241758346557617,0.4459053039550781
0.4182701110839844,0.4467144012451172
0.4182701110839844,0.4467144012451172
0.4211734771728515,0.4441532135009765
0.4211734771728515,0.4441532135009765
0.4237106323242187,0.4492664337158203
0.4237106323242187,0.4492664337158203
0.4185390472412109,0.4430820465087891
0.4185390472412109,0.4430820465087891
0.4253494262695313,0.4479703903198242
0.4253494262695313,0.4479703903198242
0.4195369720458984,0.4500520706176758
0.4195369720458984,0.4500520706176758
0.4227212905883789,0.4456850051879883
0.4227212905883789,0.4456850051879883
0.4253528594970703,0.4520484924316406
0.4253528594970703,0.4520484924316406
0.4205486297607422,0.4461650848388672
0.4205486297607422,0.4461650848388672
0.4271318435668945,0.4520776748657226
0.4271318435668945,0.4520776748657226
0.4214086532592773,0.4521657943725585
0.4214086532592773,0.4521657943725585
0.4244310379028320,0.4489116668701172
0.4244310379028320,0.4489116668701172
0.4273921966552734,0.4553483963012695
0.4273921966552734,0.4553483963012695
0.4224369049072266,0.4503484725952148
0.4224369049072266,0.4503484725952148
0.4289302825927734,0.4541038513183593
0.4289302825927734,0.4541038513183593
0.4231916427612304,0.4551160812377930
0.4231916427612304,0.4551160812377930
0.4263576507568359,0.4517629623413086
0.4263576507568359,0.4517629623413086
0.4288839340209961,0.4590219497680664
0.4288839340209961,0.4590219497680664
0.4238954544067383,0.4518190383911133
0.4238954544067383,0.4518190383911133
0.4302148818969727,0.4564516067504882
0.4302148818969727,0.4564516067504882
0.4246061325073242,0.4574089050292969
0.4246061325073242,0.4574089050292969
0.4276044845581055,0.4549953460693359
0.4276044845581055,0.4549953460693359
0.4300386428833008,0.4599334716796875
0.4300386428833008,0.4599334716796875
0.4250186920166015,0.4536392211914062
0.4250186920166015,0.4536392211914062
0.4315046310424804,0.4582437515258789
0.4258844375610352,0.4582437515258789
0.4254404067993164,0.4601451873779296
0.4254404067993164,0.4601451873779296
0.4285503387451172,0.4553689956665039
0.4285503387451172,0.4553689956665039
0.4306829452514648,0.4612581253051757
0.4306829452514648,0.4612581253051757
0.4259336471557617,0.4550662994384765
0.4259336471557617,0.4550662994384765
0.4322090148925781,0.4606355667114257
0.4322090148925781,0.4606355667114257
0.4261739730834961,0.4603408813476562
0.4261739730834961,0.4603408813476562
0.4292421340942383,0.4568584442138672
0.4292421340942383,0.4568584442138672
0.4318714141845703,0.4628236770629883
0.4318714141845703,0.4628236770629883
0.4267713546752930,0.4576463699340820
0.4267713546752930,0.4576463699340820
0.4331651687622070,0.4613113403320312
0.4331651687622070,0.4613113403320312
0.4270574569702149,0.4621433258056640
0.4270574569702149,0.4621433258056640
0.4303916931152343,0.4585556030273437
0.4303916931152343,0.4585556030273437
0.4326816558837890,0.4656023025512695
0.4326816558837890,0.4656023025512695
0.4277538299560547,0.4583267211914062
0.4277538299560547,0.4583267211914062
0.4341699600219727,0.4629724502563476
0.4291957855224609,0.4588222503662109
0.4280885696411132,0.4636585235595703
0.4280885696411132,0.4636585235595703
0.4312780380249023,0.4611059188842773
0.4312780380249023,0.4611059188842773
0.4335680007934570,0.4659908294677734
0.4335680007934570,0.4659908294677734
0.4282648086547852,0.4595643997192382
0.4282648086547852,0.4595643997192382
0.4348760604858398,0.4640413284301758
0.4348760604858398,0.4640413284301758
0.4285778045654297,0.4655279159545898
0.4285778045654297,0.4655279159545898
0.4313278198242188,0.4601394653320312
0.4313278198242188,0.4601394653320312
0.4330833435058594,0.4651536941528320
0.4330833435058594,0.4651536941528320
0.4272371292114258,0.4569110870361328
0.4272371292114258,0.4569110870361328
0.4319297790527344,0.4598035812377930
0.4319297790527344,0.4598035812377930
0.4239767074584961,0.4562931060791016
0.4239767074584961,0.4562931060791016
0.4250827789306640,0.4493659973144531
0.4250827789306640,0.4493659973144531
0.4255840301513672,0.4520496368408203
0.4255840301513672,0.4520496368408203
0.4187673568725586,0.4438550949096680
0.4187673568725586,0.4438550949096680
0.4235298156738281,0.4449943542480468
0.4235298156738281,0.4449943542480468
0.4162284851074219,0.4436182022094726
0.4162284851074219,0.4436182022094726
0.4186008453369141,0.4386016845703125
0.4186008453369141,0.4386016845703125
0.4200828552246094,0.4443815231323242
0.4200828552246094,0.4443815231323242
0.4145284652709961,0.4362825393676757
0.4145284652709961,0.4362825393676757
0.4203432083129883,0.4402856826782227
0.4203432083129883,0.4402856826782227
0.4143081665039062,0.4407022476196289
0.4143081665039062,0.4407022476196289
0.4173294067382812,0.4379121780395508
0.4173294067382812,0.4379121780395508
0.4197349548339844,0.4428903579711914
0.4197349548339844,0.4428903579711914
0.4147470474243164,0.4369668960571289
0.4147470474243164,0.4369668960571289
0.4214767456054687,0.4419994354248047
0.4214767456054687,0.4419994354248047
0.4157032012939453,0.4443735122680664
0.4157032012939453,0.4443735122680664
0.4194499969482422,0.4404018402099609
0.4194499969482422,0.4404018402099609
0.4219081878662109,0.4469867706298828
0.4219081878662109,0.4469867706298828
0.4175823211669922,0.4413316726684570
0.4175823211669922,0.4413316726684570
0.4241483688354492,0.4474502563476562
0.4241483688354492,0.4474502563476562
0.4181207656860351,0.4474153518676758
0.4181207656860351,0.4474153518676758
0.4216215133666992,0.4440456390380859
0.4216215133666992,0.4440456390380859
0.4240345001220703,0.4499507904052734
0.4240345001220703,0.4499507904052734
0.4189207077026367,0.4444633483886719
0.4189207077026367,0.4444633483886719
0.4251777648925781,0.4479251861572265
0.4195198059082031,0.4479251861572265
0.4187673568725586,0.4483594894409180
0.4187673568725586,0.4483594894409180
0.4221994400024414,0.4446235656738281
0.4221994400024414,0.4446235656738281
0.4240888595581054,0.4513080596923828
0.4240888595581054,0.4513080596923828
0.4191066741943359,0.4437349319458008
0.4191066741943359,0.4437349319458008
0.4253190994262695,0.4482072830200195
0.4253190994262695,0.4482072830200195
0.4191501617431641,0.4487823486328125
0.4191501617431641,0.4487823486328125
0.4224071502685547,0.4462091445922852
0.4224071502685547,0.4462091445922852
0.4246376037597656,0.4512113571166992
0.4246376037597656,0.4512113571166992
0.4196594238281250,0.4448850631713867
0.4196594238281250,0.4448850631713867
0.4263353347778320,0.4497419357299804
0.4263353347778320,0.4497419357299804
0.4201440811157227,0.4516324996948242
0.4201440811157227,0.4516324996948242
0.4236986160278320,0.4472871780395508
0.4236986160278320,0.4472871780395508
0.4259593963623047,0.4535339355468750
0.4259593963623047,0.4535339355468750
0.4214618682861328,0.4475830078125000
0.4214618682861328,0.4475830078125000
0.4278573989868164,0.4536529541015625
0.4278573989868164,0.4536529541015625
0.4218532562255859,0.4535596847534180
0.4218532562255859,0.4535596847534180
0.4253688812255859,0.4503873825073242
0.4253688812255859,0.4503873825073242
0.4279552459716797,0.4565837860107422
0.4279552459716797,0.4565837860107422
0.4231367111206055,0.4516799926757812
0.4231367111206055,0.4516799926757812
0.4296472549438476,0.4555578231811523
0.4296472549438476,0.4555578231811523
0.4236253738403320,0.4564584732055664
0.4236253738403320,0.4564584732055664
0.4273246765136718,0.4531545639038086
0.4273246765136718,0.4531545639038086
0.4295631408691406,0.4603723526000976
0.4295631408691406,0.4603723526000976
0.4247903823852539,0.4531597137451172
0.4247903823852539,0.4531597137451172
0.4310262680053711,0.4580600738525391
0.4310262680053711,0.4580600738525391
0.4251640319824219,0.4588016510009765
0.4251640319824219,0.4588016510009765
0.4285268783569336,0.4564859390258789
0.4285268783569336,0.4564859390258789
0.4307029724121094,0.4613422393798828
0.4307029724121094,0.4613422393798828
0.4259164810180664,0.4550502777099609
0.4259164810180664,0.4550502777099609
0.4323629379272461,0.4598173141479492
0.4323629379272461,0.4598173141479492
0.4260292053222656,0.4615139007568359
0.4260292053222656,0.4615139007568359
0.4295127868652344,0.4569311141967773
0.4295127868652344,0.4569311141967773
0.4314702987670898,0.4628608703613281
0.4314702987670898,0.4628608703613281
0.4268840789794922,0.4564973831176757
0.4268840789794922,0.4564973831176757
0.4330936431884765,0.4623321533203125
0.4330936431884765,0.4623321533203125
0.4267959594726562,0.4618354797363281
0.4267959594726562,0.4618354797363281
0.4302835464477539,0.4582912445068359
0.4302835464477539,0.4582912445068359
0.4325185775756836,0.4642913818359375
0.4325185775756836,0.4642913818359375
0.4276308059692382,0.4590860366821289
0.4276308059692382,0.4590860366821289
0.4340028762817383,0.4627138137817383
0.4340028762817383,0.4627138137817383
0.4275947570800781,0.4635492324829101
0.4275947570800781,0.4635492324829101
0.4314222335815430,0.4600021362304687
0.4314222335815430,0.4600021362304687
0.4334512710571289,0.4670986175537109
0.4334512710571289,0.4670986175537109
0.4286928176879883,0.4597160339355468
0.4286928176879883,0.4597160339355468
0.4349590301513672,0.4644727706909180
0.4349590301513672,0.4644727706909180
0.4287454605102539,0.4650117874145507
0.4287454605102539,0.4650117874145507
0.4322473526000977,0.4626468658447265
0.4322473526000977,0.4626468658447265
0.4342735290527344,0.4673658370971679
0.4340921401977539,0.4673658370971679
0.4292335510253906,0.4609033584594726
0.4292335510253906,0.4609033584594726
0.4356027603149414,0.4652870178222656
0.4356027603149414,0.4652870178222656
0.4289005279541016,0.4662580490112305
0.4289005279541016,0.4662580490112305
0.4318639755249024,0.4606275558471680
0.4318639755249024,0.4606275558471680
0.4327491760253906,0.4644372940063476
0.4316699981689453,0.4644372940063476
0.4263055801391601,0.4550439834594726
0.4263055801391601,0.4550439834594726
0.4305164337158203,0.4573379516601562
0.4305164337158203,0.4573379516601562
0.4219797134399414,0.4532392501831055
0.4219797134399414,0.4532392501831055
0.4231555938720703,0.4460563659667969
0.4231555938720703,0.4460563659667969
0.4235280990600586,0.4488573074340820
0.4235280990600586,0.4488573074340820
0.4171314239501953,0.4409540176391601
0.4171314239501953,0.4409540176391601
0.4219779968261719,0.4426694869995117
0.4219779968261719,0.4426694869995117
0.4146646499633789,0.4415182113647461
0.4146646499633789,0.4415182113647461
0.4176017761230469,0.4367837905883789
0.4176017761230469,0.4367837905883789
0.4188760757446289,0.4426815032958984
0.4188760757446289,0.4426815032958984
0.4136312484741211,0.4344846725463867
0.4136312484741211,0.4344846725463867
0.4193429946899414,0.4386154174804687
0.4193429946899414,0.4386154174804687
0.4129909515380859,0.4387018203735352
0.4129909515380859,0.4387018203735352
0.4163434982299805,0.4359643936157226
0.4163434982299805,0.4359643936157226
0.4183874130249023,0.4408441543579101
0.4183874130249023,0.4408441543579101
0.4136953353881836,0.4346220016479492
0.4136953353881836,0.4346220016479492
0.4201280593872070,0.4397621154785156
0.4201280593872070,0.4397621154785156
0.4140575408935547,0.4417551040649414
0.4140575408935547,0.4417551040649414
0.4179983139038086,0.4379562377929687
0.4179983139038086,0.4379562377929687
0.4203025817871094,0.4445348739624023
0.4203025817871094,0.4445348739624023
0.4161878585815429,0.4387636184692383
0.4161878585815429,0.4387636184692383
0.4226531982421875,0.4449640274047851
0.4226531982421875,0.4449640274047851
0.4165615081787109,0.4449565887451172
0.4165615081787109,0.4449565887451172
0.4202516555786133,0.4416000366210938
0.4202516555786133,0.4416000366210938
0.4223625183105469,0.4473798751831055
0.4223625183105469,0.4473798751831055
0.4174467086791992,0.4419530868530273
0.4174467086791992,0.4419530868530273
0.4236139297485351,0.4455247879028320
0.4236139297485351,0.4455247879028320
0.4169975280761719,0.4457427978515625
0.4169975280761719,0.4457427978515625
0.4206905364990234,0.4420017242431640
0.4206905364990234,0.4420017242431640
0.4223482131958008,0.4486186981201172
0.4223482131958008,0.4486186981201172
0.4175491333007812,0.4409803390502929
0.4175491333007812,0.4409803390502929
0.4236150741577148,0.4456020355224609
0.4236150741577148,0.4456020355224609
0.4173351287841797,0.4460391998291016
0.4173351287841797,0.4460391998291016
0.4209239959716797,0.4435935974121094
0.4209239959716797,0.4435935974121094
0.4229410171508789,0.4485260009765625
0.4229410171508789,0.4485260009765625
0.4181991577148437,0.4421642303466797
0.4181991577148437,0.4421642303466797
0.4246278762817383,0.4472133636474609
0.4246278762817383,0.4472133636474609
0.4184320449829101,0.4489494323730469
0.4184320449829101,0.4489494323730469
0.4222698211669922,0.4448043823242188
0.4222698211669922,0.4448043823242188
0.4243640899658203,0.4510196685791015
0.4243640899658203,0.4510196685791015
0.4200033187866211,0.4450298309326172
0.4200033187866211,0.4450298309326172
0.4264022827148438,0.4513149261474609
0.4264022827148438,0.4513149261474609
0.4201601028442383,0.4511083602905273
0.4201601028442383,0.4511083602905273
0.4240196228027344,0.4481872558593750
0.4240196228027344,0.4481872558593750
0.4264623641967774,0.4543727874755859
0.4264623641967774,0.4543727874755859
0.4219940185546875,0.4494409561157227
0.4219940185546875,0.4494409561157227
0.4283632278442382,0.4536729812622070
0.4283632278442382,0.4536729812622070
0.4222005844116211,0.4543052673339844
0.4222005844116211,0.4543052673339844
0.4262392044067383,0.4512290954589844
0.4262392044067383,0.4512290954589844
0.4280994415283203,0.4583736419677734
0.4280994415283203,0.4583736419677734
0.4237077713012695,0.4512416839599609
0.4237077713012695,0.4512416839599609
0.4297914505004883,0.4562805175781250
0.4297914505004883,0.4562805175781250
0.4237655639648437,0.4568887710571289
0.4237655639648437,0.4568887710571289
0.4275747299194336,0.4546794891357422
0.4275747299194336,0.4546794891357422
0.4295351028442383,0.4595586776733398
0.4296175003051758,0.4595586776733398
0.4249855041503906,0.4532100677490234
0.4249855041503906,0.4532100677490234
0.4312385559082031,0.4581539154052734
0.4312385559082031,0.4581539154052734
0.4247371673583984,0.4595815658569335
0.4247371673583984,0.4595815658569335
0.4285205841064453,0.4552425384521484
0.4285205841064453,0.4552425384521484
0.4302492141723633,0.4610183715820312
0.4302492141723633,0.4610183715820312
0.4258684158325195,0.4545381546020508
0.4258684158325195,0.4545381546020508
0.4272228240966797,0.4554473876953125
0.4272228240966797,0.4554473876953125
0.4272228240966797,0.4556671142578125
0.4317037582397461,0.4614824295043945
0.4282344818115234,0.4614824295043945
0.4257551193237304,0.4573722839355469
0.4257551193237304,0.4573722839355469
0.4317741394042969,0.4584640502929687
0.4317741394042969,0.4584640502929687
0.4294389724731445,0.4627698898315429
0.4294389724731445,0.4627698898315429
0.4277303695678711,0.4572360992431641
0.4277303695678711,0.4572360992431641
0.4332103729248047,0.4630136489868164
0.4332103729248047,0.4630136489868164
0.4269235610961914,0.4596107482910156
0.4269235610961914,0.4596107482910156
0.4329803466796875,0.4605022430419922
0.4329803466796875,0.4605022430419922
0.4298252105712890,0.4644241333007812
0.4298252105712890,0.4644241333007812
0.4291334152221680,0.4585304260253906
0.4291334152221680,0.4585304260253906
0.4342094421386719,0.4649076461791992
0.4342094421386719,0.4649076461791992
0.4279054641723632,0.4610733032226562
0.4279054641723632,0.4610733032226562
0.4330753326416015,0.4614669799804687
0.4330753326416015,0.4614669799804687
0.4308649063110351,0.4650455474853515
0.4308649063110351,0.4650455474853515
0.4295780181884766,0.4594860076904297
0.4295780181884766,0.4594860076904297
0.4341373443603516,0.4648178100585937
0.4341373443603516,0.4648178100585937
0.4264148712158203,0.4590259552001953
0.4264148712158203,0.4590259552001953
0.4312597274780273,0.4567708969116211
0.4312597274780273,0.4567708969116211
0.4267976760864258,0.4578964233398437
0.4267976760864258,0.4578964233398437
0.4237031936645508,0.4489065170288086
0.4237031936645508,0.4489065170288086
0.4258460998535156,0.4510791778564453
0.4258460998535156,0.4510791778564453
0.4178707122802734,0.4435169219970703
0.4178707122802734,0.4435169219970703
0.4220735549926758,0.4418895721435547
0.4220735549926758,0.4418895721435547
0.4181287765502930,0.4439289093017578
0.4181287765502930,0.4439289093017578
0.4152391433715820,0.4363420486450195
0.4152391433715820,0.4363420486450195
0.4198402404785156,0.4407234191894531
0.4198402404785156,0.4407234191894531
0.4128227233886719,0.4360633850097656
0.4128227233886719,0.4360633850097656
0.4183170318603516,0.4360113143920898
0.4183170318603516,0.4360113143920898
0.4147739410400391,0.4392894744873047
0.4147739410400391,0.4392894744873047
0.4138240814208984,0.4330410003662109
0.4138240814208984,0.4330410003662109
0.4186048507690430,0.4393140792846680
0.4186048507690430,0.4393140792846680
0.4124765396118164,0.4354871749877929
0.4124765396118164,0.4354871749877929
0.4177963256835938,0.4360708236694336
0.4177963256835938,0.4360708236694336
0.4159132003784179,0.4401912689208984
0.4159132003784179,0.4401912689208984
0.4151510238647461,0.4356101989746093
0.4151510238647461,0.4356101989746093
0.4205554962158203,0.4424303054809570
0.4205554962158203,0.4424303054809570
0.4141416549682617,0.4388723373413086
0.4141416549682617,0.4388723373413086
0.4207254409790039,0.4400728225708008
0.4207254409790039,0.4400728225708008
0.4184595108032226,0.4450069427490234
0.4184595108032226,0.4450069427490234
0.4177677154541016,0.4399778366088867
0.4177677154541016,0.4399778366088867
0.4221897125244141,0.4459854125976562
0.4221897125244141,0.4459854125976562
0.4164230346679688,0.4415594100952148
0.4164230346679688,0.4415594100952148
0.4222949981689453,0.4428056716918945
0.4222949981689453,0.4428056716918945
0.4195575714111328,0.4464900970458984
0.4195575714111328,0.4464900970458984
0.4177253723144531,0.4405483245849609
0.4177253723144531,0.4405483245849609
0.4229043960571289,0.4460283279418945
0.4229043960571289,0.4460283279418945
0.4166576385498047,0.4420795440673828
0.4166576385498047,0.4420795440673828
0.4224460601806641,0.4429779052734375
0.4224460601806641,0.4429779052734375
0.4190397262573242,0.4464866638183594
0.4190397262573242,0.4464866638183594
0.4183868408203125,0.4405780792236328
0.4183868408203125,0.4405780792236328
0.4233472824096680,0.4470245361328125
0.4233472824096680,0.4470245361328125
0.4171983718872070,0.4430065155029297
0.4171983718872070,0.4430065155029297
0.4225004196166992,0.4438636779785156
0.4225004196166992,0.4438636779785156
0.4204296112060547,0.4476882934570313
0.4204296112060547,0.4476882934570313
0.4194431304931641,0.4427862167358398
0.4194431304931641,0.4427862167358398
0.4245140075683594,0.4493562698364258
0.4245140075683594,0.4493562698364258
0.4180274963378906,0.4452638626098633
0.4180274963378906,0.4452638626098633
0.4244413375854492,0.4461639404296875
0.4244413375854492,0.4461639404296875
0.4220460891723632,0.4508480072021484
0.4220460891723632,0.4508480072021484
0.4213010787963867,0.4458395004272461
0.4213010787963867,0.4458395004272461
0.4257854461669922,0.4522075653076172
0.4257854461669922,0.4522075653076172
0.4203220367431640,0.4480184555053711
0.4203220367431640,0.4480184555053711
0.4263742446899414,0.4497974395751953
0.4263742446899414,0.4497974395751953
0.4239938735961914,0.4542886734008789
0.4239938735961914,0.4542886734008789
0.4226177215576172,0.4488109588623047
0.4226177215576172,0.4488109588623047
0.4280656814575195,0.4548288345336914
0.4280656814575195,0.4548288345336914
0.4222063064575195,0.4512748718261719
0.4222063064575195,0.4512748718261719
0.4282161712646484,0.4526487350463867
0.4282161712646484,0.4526487350463867
0.4250158309936523,0.4565208435058594
0.4250158309936523,0.4565208435058594
0.4245271682739258,0.4508737564086914
0.4245271682739258,0.4508737564086914
0.4294258117675781,0.4575925827026367
0.4294258117675781,0.4575925827026367
0.4234680175781250,0.4536466598510742
0.4234680175781250,0.4536466598510742
0.4288238525390625,0.4544065475463867
0.4288238525390625,0.4544065475463867
0.4265350341796875,0.4580554962158203
0.4265350341796875,0.4580554962158203
0.4255880355834961,0.4529314041137695
0.4255880355834961,0.4529314041137695
0.4304695129394531,0.4592302322387695
0.4304695129394531,0.4592302322387695
0.4238582611083984,0.4547916412353515
0.4238582611083984,0.4547916412353515
0.4300460815429688,0.4555080413818359
0.4300460815429688,0.4555080413818359
0.4273641586303711,0.4598213195800781
0.4273641586303711,0.4598213195800781
0.4265659332275391,0.4546205520629882
0.4265659332275391,0.4546205520629882
0.4308780670166015,0.4606224060058594
0.4308780670166015,0.4606224060058594
0.4253231048583984,0.4560316085815430
0.4253231048583984,0.4560316085815430
0.4312505722045898,0.4577281951904297
0.4312505722045898,0.4577281951904297
0.4285680770874024,0.4616895675659179
0.4285680770874024,0.4616895675659179
0.4271078109741211,0.4561351776123047
0.4271078109741211,0.4561351776123047
0.4324991226196289,0.4622085571289062
0.4324991226196289,0.4622085571289062
0.4264949798583984,0.4582763671875000
0.4264949798583984,0.4582763671875000
0.4323457717895507,0.4596822738647461
0.4323457717895507,0.4596822738647461
0.4289319992065430,0.4632923126220703
0.4289319992065430,0.4632923126220703
0.4285108566284180,0.4574415206909179
0.4285108566284180,0.4574415206909179
0.4333539962768554,0.4640378952026367
0.4333539962768554,0.4640378952026367
0.4273601531982422,0.4596942901611328
0.4273601531982422,0.4596942901611328
0.4324378967285156,0.4605749130249023
0.4324378967285156,0.4605749130249023
0.4299150466918945,0.4637678146362305
0.4299150466918945,0.4637678146362305
0.4287425994873047,0.4580526351928711
0.4287425994873047,0.4580526351928711
0.4331296920776367,0.4634559631347656
0.4331296920776367,0.4634559631347656
0.4255022048950195,0.4569871902465820
0.4255022048950195,0.4569871902465820
0.4301015853881836,0.4550588607788086
0.4301015853881836,0.4550588607788086
0.4256097793579102,0.4562873840332031
0.4256097793579102,0.4562873840332031
0.4229713439941406,0.4477037429809570
0.4229713439941406,0.4477037429809570
0.4251743316650390,0.4505458831787109
0.4251743316650390,0.4505458831787109
0.4179073333740234,0.4429893493652344
0.4179073333740234,0.4429893493652344
0.4220460891723632,0.4422426223754883
0.4220460891723632,0.4422426223754883
0.4181339263916016,0.4443861007690429
0.4181339263916016,0.4443861007690429
0.4158296585083008,0.4370510101318359
0.4158296585083008,0.4370510101318359
0.4202167510986328,0.4418712615966797
0.4202167510986328,0.4418712615966797
0.4137960433959961,0.4369199752807617
0.4137960433959961,0.4369199752807617
0.4192199707031250,0.4376770019531250
0.4192199707031250,0.4376770019531250
0.4155075073242188,0.4409751892089844
0.4155075073242188,0.4409751892089844
0.4151412963867188,0.4350723266601562
0.4151412963867188,0.4350723266601562
0.4199100494384765,0.4418598175048828
0.4199100494384765,0.4418598175048828
0.4142732620239258,0.4378440856933594
0.4142732620239258,0.4378440856933594
0.4196182250976562,0.4393209457397461
0.4196182250976562,0.4393209457397461
0.4175559997558594,0.4433526992797852
0.4175559997558594,0.4433526992797852
0.4172344207763672,0.4390468597412109
0.4172344207763672,0.4390468597412109
0.4224672317504883,0.4460872650146484
0.4224672317504883,0.4460872650146484
0.4163578033447266,0.4419639587402344
0.4163578033447266,0.4419639587402344
0.4227876663208008,0.4434837341308593
0.4227876663208008,0.4434837341308593
0.4202127456665039,0.4479286193847656
0.4202127456665039,0.4479286193847656
0.4196456909179687,0.4428977966308594
0.4196456909179687,0.4428977966308594
0.4237815856933594,0.4488321304321289
0.4237815856933594,0.4488321304321289
0.4183942794799805,0.4439163208007812
0.4183942794799805,0.4439163208007812
0.4239692687988281,0.4455053329467774
0.4239692687988281,0.4455053329467774
0.4210470199584961,0.4492000579833984
0.4210470199584961,0.4492000579833984
0.4195821762084961,0.4433326721191406
0.4195821762084961,0.4433326721191406
0.4245489120483398,0.4490713119506836
0.4245489120483398,0.4490713119506836
0.4185899734497070,0.4447597503662109
0.4185899734497070,0.4447597503662109
0.4242639541625977,0.4461954116821289
0.4242639541625977,0.4461954116821289
0.4206905364990234,0.4494403839111328
0.4206905364990234,0.4494403839111328
0.4204462051391601,0.4437303543090820
0.4204462051391601,0.4437303543090820
0.4251897811889648,0.4505378723144531
0.4251897811889648,0.4505378723144531
0.4194734573364258,0.4460123062133789
0.4194734573364258,0.4460123062133789
0.4246055603027344,0.4476013183593750
0.4246055603027344,0.4476013183593750
0.4222715377807617,0.4511301040649414
0.4222715377807617,0.4511301040649414
0.4217473983764649,0.4463819503784179
0.4217473983764649,0.4463819503784179
0.4266666412353515,0.4531837463378906
0.4266666412353515,0.4531837463378906
0.4205205917358398,0.4485694885253906
0.4205205917358398,0.4485694885253906
0.4268136978149414,0.4500949859619141
0.4268136978149414,0.4500949859619141
0.4240865707397461,0.4545129776000976
0.4240865707397461,0.4545129776000976
0.4236797332763672,0.4495176315307617
0.4236797332763672,0.4495176315307617
0.4279758453369141,0.4561088562011719
0.4279758453369141,0.4561088562011719
0.4228786468505859,0.4513217926025390
0.4286842346191406,0.4536266326904297
0.4259405136108398,0.4576583862304687
0.4259405136108398,0.4576583862304687
0.4249008178710937,0.4522785186767578
0.4249008178710937,0.4522785186767578
0.4300455093383789,0.4584136962890625
0.4300455093383789,0.4584136962890625
0.4245780944824218,0.4542720794677734
0.4245780944824218,0.4542720794677734
0.4302194595336914,0.4561420440673828
0.4302194595336914,0.4561420440673828
0.4267719268798828,0.4596702575683593
0.4267719268798828,0.4596702575683593
0.4248561859130859,0.4589773178100586
0.4248561859130859,0.4587724685668945
0.4289291381835937,0.4570690155029297
0.4289291381835937,0.4570690155029297
0.4302331924438477,0.4616695404052734
0.4302331924438477,0.4616695404052734
0.4261676788330078,0.4549186706542969
0.4261676788330078,0.4549186706542969
0.4322662353515625,0.4605714797973632
0.4322662353515625,0.4605714797973632
0.4256343841552734,0.4612569808959961
0.4256343841552734,0.4612569808959961
0.4298297882080078,0.4574695587158203
0.4298297882080078,0.4574695587158203
0.4309106826782226,0.4630125045776367
0.4309106826782226,0.4630125045776367
0.4270826339721679,0.4563371658325195
0.4270826339721679,0.4563371658325195
0.4330547332763672,0.4630960464477539
0.4330547332763672,0.4630960464477539
0.4264749526977539,0.4616552352905273
0.4264749526977539,0.4616552352905273
0.4308145523071289,0.4589996337890625
0.4308145523071289,0.4589996337890625
0.4321208953857422,0.4646936416625976
0.4321208953857422,0.4646936416625976
0.4279506683349609,0.4590442657470703
0.4279506683349609,0.4590442657470703
0.4340326309204102,0.4637477874755859
0.4340326309204102,0.4637477874755859
0.4273744583129883,0.4634450912475586
0.4273744583129883,0.4634450912475586
0.4318845748901367,0.4607379913330078
0.4318845748901367,0.4607379913330078
0.4329729080200195,0.4673870086669922
0.4329729080200195,0.4673870086669922
0.4288272857666016,0.4596965789794922
0.4288272857666016,0.4596965789794922
0.4348297119140625,0.4652612686157226
0.4348297119140625,0.4652612686157226
0.4283855438232422,0.4647068023681640
0.4283855438232422,0.4647068023681640
0.4324447631835938,0.4628328323364257
0.4324447631835938,0.4628328323364257
0.4333597183227539,0.4668233871459961
0.4333597183227539,0.4668233871459961
0.4285274505615234,0.4590476989746093
0.4285274505615234,0.4590476989746093
0.4339141845703125,0.4631635665893554
0.4339141845703125,0.4631635665893554
0.4257848739624023,0.4607969284057617
0.4257848739624023,0.4607969284057617
0.4279741287231445,0.4538343429565430
0.4279741287231445,0.4538343429565430
0.4269453048706054,0.4557237625122070
0.4269453048706054,0.4557237625122070
0.4207649230957031,0.4450664520263672
0.4207649230957031,0.4450664520263672
0.4246822357177734,0.4486547470092773
0.4246822357177734,0.4486547470092773
0.4163658142089844,0.4441726684570312
0.4163658142089844,0.4441726684570312
0.4189378738403320,0.4393255233764649
0.4189378738403320,0.4393255233764649
0.4192102432250976,0.4430614471435547
0.4192102432250976,0.4430614471435547
0.4142480850219726,0.4359512329101562
0.4142480850219726,0.4359512329101562
0.4195198059082031,0.4396837234497070
0.4195198059082031,0.4396837234497070
0.4124370574951172,0.4382131576538086
0.4124370574951172,0.4382131576538086
0.4163961410522461,0.4348760604858398
0.4163961410522461,0.4348760604858398
0.4170026779174805,0.4408641815185547
0.4170026779174805,0.4408641815185547
0.4128170013427734,0.4328458786010742
0.4128170013427734,0.4328458786010742
0.4186443328857422,0.4384059906005859
0.4186443328857422,0.4384059906005859
0.4122905731201172,0.4378480911254883
0.4122905731201172,0.4378480911254883
0.4166456222534179,0.4366395950317383
0.4166456222534179,0.4366395950317383
0.4179897308349609,0.4415199279785156
0.4190259933471679,0.4415199279785156
0.4142658233642578,0.4353504180908203
0.4170570373535156,0.4353504180908203
0.4207763671875000,0.4417316436767578
0.4207763671875000,0.4417316436767578
0.4144781112670898,0.4426008224487304
0.4144781112670898,0.4426008224487304
0.4189922332763672,0.4396173477172852
0.4189922332763672,0.4396173477172852
0.4202201843261719,0.4453828811645508
0.4202201843261719,0.4453828811645508
0.4165477752685547,0.4388420104980469
0.4165477752685547,0.4388420104980469
0.4225130081176758,0.4456369400024414
0.4225130081176758,0.4456369400024414
0.4159509658813477,0.4438104629516602
0.4159509658813477,0.4438104629516602
0.4200450897216797,0.4410278320312500
0.4200450897216797,0.4410278320312500
0.4210252761840820,0.4463459014892578
0.4210252761840820,0.4463459014892578
0.4167818069458007,0.4403062820434570
0.4167818069458007,0.4403062820434570
0.4226280212402344,0.4448593139648437
0.4226280212402344,0.4448593139648437
0.4158868789672852,0.4437892913818359
0.4158868789672852,0.4437892913818359
0.4202190399169922,0.4411525726318359
0.4202190399169922,0.4411525726318359
0.4211414337158203,0.4476436614990234
0.4211414337158203,0.4476436614990234
0.4170930862426758,0.4398159027099609
0.4170930862426758,0.4398159027099609
0.4231075286865234,0.4456735610961914
0.4231075286865234,0.4456735610961914
0.4167858123779297,0.4449600219726562
0.4167858123779297,0.4449600219726562
0.4209926605224609,0.4436880111694336
0.4209926605224609,0.4436880111694336
0.4221445083618164,0.4483829498291015
0.4221445083618164,0.4483829498291015
0.4181728363037109,0.4419095993041992
0.4181728363037109,0.4419095993041992
0.4246038436889648,0.4480722427368164
0.4246038436889648,0.4480722427368164
0.4181007385253906,0.4486032485961914
0.4181007385253906,0.4486032485961914
0.4226778030395508,0.4455911636352539
0.4226778030395508,0.4455911636352539
0.4238737106323242,0.4514654159545898
0.4238737106323242,0.4514654159545898
0.4202436447143554,0.4451677322387695
0.4202436447143554,0.4451677322387695
0.4264646530151367,0.4524129867553711
0.4264646530151367,0.4524129867553711
0.4201990127563476,0.4508354187011718
0.4201990127563476,0.4508354187011718
0.4243961334228515,0.4488985061645508
0.4243961334228515,0.4488985061645508
0.4259044647216797,0.4547727584838867
0.4259044647216797,0.4547727584838867
0.4220581054687500,0.4493768692016601
0.4220581054687500,0.4493768692016601
0.4282636642456055,0.4544391632080078
0.4282636642456055,0.4544391632080078
0.4218984603881836,0.4538543701171875
0.4218984603881836,0.4538543701171875
0.4264446258544922,0.4518413543701172
0.4264446258544922,0.4518413543701172
0.4274740219116211,0.4584468841552734
0.4274740219116211,0.4584468841552734
0.4236373901367188,0.4508537292480468
0.4236373901367188,0.4508537292480468
0.4295087814331054,0.4568372726440429
0.4295087814331054,0.4568372726440429
0.4233432769775390,0.4559989929199219
0.4233432769775390,0.4559989929199219
0.4275535583496093,0.4547716140747070
0.4275535583496093,0.4547716140747070
0.4285634994506836,0.4592388153076172
0.4285634994506836,0.4592388153076172
0.4246770858764649,0.4524530410766601
0.4246770858764649,0.4524530410766601
0.4307527542114258,0.4584846496582031
0.4307527542114258,0.4584846496582031
0.4241163253784180,0.4584394454956054
0.4241163253784180,0.4584394454956054
0.4284805297851562,0.4552465438842773
0.4284805297851562,0.4552465438842773
0.4292026519775390,0.4607379913330078
0.4292026519775390,0.4607379913330078
0.4256166458129882,0.4541044235229492
0.4256166458129882,0.4541044235229492
0.4315544128417969,0.4610836029052734
0.4315544128417969,0.4610836029052734
0.4250255584716797,0.4591157913208008
0.4250255584716797,0.4591157913208008
0.4294200897216797,0.4569551467895507
0.4294200897216797,0.4569551467895507
0.4305221557617188,0.4625833511352539
0.4305221557617188,0.4625833511352539
0.4265899658203125,0.4569562911987304
0.4265899658203125,0.4569562911987304
0.4325855255126953,0.4618412017822265
0.4325855255126953,0.4618412017822265
0.4258958816528320,0.4608003616333007
0.4258958816528320,0.4608003616333007
0.4305112838745117,0.4586408615112305
0.4264022827148438,0.4586408615112305
0.4313055038452148,0.4651113510131836
0.4313055038452148,0.4651113510131836
0.4273790359497070,0.4573602676391602
0.4273790359497070,0.4573602676391602
0.4333694458007812,0.4631401062011719
0.4333694458007812,0.4631401062011719
0.4268646240234375,0.4620409011840820
0.4268646240234375,0.4620409011840820
0.4310897827148437,0.4607740402221679
0.4310897827148437,0.4607740402221679
0.4316997528076172,0.4647497177124023
0.4316997528076172,0.4647497177124023
0.4272600173950195,0.4571725845336914
0.4272600173950195,0.4571725845336914
0.4327526092529297,0.4619276046752929
0.4327526092529297,0.4619276046752929
0.4250558853149414,0.4596096038818359
0.4250558853149414,0.4596096038818359
0.4275592803955078,0.4534996032714844
0.4275592803955078,0.4534996032714844
0.4265882492065430,0.4558336257934570
0.4265882492065430,0.4558336257934570
0.4208621978759766,0.4456392288208008
0.4208621978759766,0.4456392288208008
0.4247446060180664,0.4494295120239258
0.4247446060180664,0.4494295120239258
0.4165649414062500,0.4444696426391602
0.4165649414062500,0.4444696426391602
0.4193258285522461,0.4402353286743164
0.4193258285522461,0.4402353286743164
0.4192588806152344,0.4438940048217773
0.4192588806152344,0.4438940048217773
0.4145112991333008,0.4367780685424805
0.4145112991333008,0.4367780685424805
0.4197916030883789,0.4407926559448242
0.4197916030883789,0.4407926559448242
0.4127918243408203,0.4387670516967773
0.4127918243408203,0.4387670516967773
0.4169935226440429,0.4362756729125977
0.4169935226440429,0.4362756729125977
0.4175588607788086,0.4424446105957031
0.4175588607788086,0.4424446105957031
0.4136936187744141,0.4347965240478516
0.4136936187744141,0.4347965240478516
0.4197269439697265,0.4408447265625000
0.4197269439697265,0.4408447265625000
0.4135688781738281,0.4401111602783203
0.4135688781738281,0.4401111602783203
0.4182277679443359,0.4395629882812500
0.4182277679443359,0.4395629882812500
0.4195020675659180,0.4447620391845703
0.4195020675659180,0.4447620391845703
0.4161169052124024,0.4387493133544922
0.4161169052124024,0.4387493133544922
0.4225645065307617,0.4454103469848633
0.4225645065307617,0.4454103469848633
0.4163732528686523,0.4457754135131836
0.4163732528686523,0.4457754135131836
0.4210533142089843,0.4431444168090820
0.4210533142089843,0.4431444168090820
0.4218709945678711,0.4488389968872070
0.4218709945678711,0.4488389968872070
0.4183708190917969,0.4421968460083008
0.4183708190917969,0.4421968460083008
0.4242261886596679,0.4490804672241211
0.4242261886596679,0.4490804672241211
0.4176853179931641,0.4465873718261719
0.4176853179931641,0.4465873718261719
0.4218887329101562,0.4444295883178711
0.4218887329101562,0.4444295883178711
0.4225662231445312,0.4494712829589844
0.4225662231445312,0.4494712829589844
0.4185676574707031,0.4434917449951172
0.4185676574707031,0.4434917449951172
0.4243898391723633,0.4482782363891601
0.4243898391723633,0.4482782363891601
0.4175760269165039,0.4465799331665039
0.4175760269165039,0.4465799331665039
0.4220460891723632,0.4446224212646484
0.4220460891723632,0.4446224212646484
0.4227218627929688,0.4509452819824218
0.4227218627929688,0.4509452819824218
0.4188858032226562,0.4432308197021484
0.4188858032226562,0.4432308197021484
0.4249357223510742,0.4492286682128906
0.4249357223510742,0.4492286682128906
0.4185276031494141,0.4479824066162109
0.4185276031494141,0.4479824066162109
0.4229444503784179,0.4472780227661133
0.4229444503784179,0.4472780227661133
0.4237375259399414,0.4519123077392578
0.4237375259399414,0.4519123077392578
0.4200582504272461,0.4453845977783203
0.4223041534423828,0.4453845977783203
0.4264320373535156,0.4518327713012695
0.4264320373535156,0.4518327713012695
0.4200622558593750,0.4515913009643555
0.4200622558593750,0.4515913009643555
0.4246788024902344,0.4491554260253906
0.4246788024902344,0.4491554260253906
0.4256052017211914,0.4548683166503906
0.4256052017211914,0.4548683166503906
0.4220981597900391,0.4485260009765625
0.4220981597900391,0.4485260009765625
0.4239526748657226,0.4501173019409179
0.4239526748657226,0.4501173019409179
0.4279729843139649,0.4568595886230469
0.4279729843139649,0.4568595886230469
0.4228425979614258,0.4507907867431640
0.4228425979614258,0.4507907867431640
0.4286727905273438,0.4547962188720703
0.4286727905273438,0.4547962188720703
0.4254856109619141,0.4578580856323242
0.4254856109619141,0.4578580856323242
0.4250507354736328,0.4526241302490234
0.4250507354736328,0.4526241302490234
0.4298280715942382,0.4590385437011719
0.4298280715942382,0.4590385437011719
0.4243560791015625,0.4537136077880859
0.4243560791015625,0.4537136077880859
0.4300672531127930,0.4570220947265625
0.4300672531127930,0.4570220947265625
0.4261648178100586,0.4595134735107422
0.4261648178100586,0.4595134735107422
0.4265138626098633,0.4540477752685547
0.4265138626098633,0.4540477752685547
0.4309329986572266,0.4612758636474609
0.4309329986572266,0.4612758636474609
0.4253631591796875,0.4554965972900391
0.4253631591796875,0.4554965972900391
0.4303453445434570,0.4583187103271484
0.4303453445434570,0.4583187103271484
0.4273973464965820,0.4604124069213867
0.4273973464965820,0.4604124069213867
0.4274677276611328,0.4558536529541015
0.4274677276611328,0.4558536529541015
0.4317586898803711,0.4625547409057617
0.4317586898803711,0.4625547409057617
0.4255582809448242,0.4565208435058594
0.4255582809448242,0.4565208435058594
0.4316888809204101,0.4594476699829101
0.4316888809204101,0.4594476699829101
0.4282224655151367,0.4624626159667968
0.4282224655151367,0.4624626159667968
0.4284238815307617,0.4577390670776367
0.4284238815307617,0.4577390670776367
0.4322072982788086,0.4641769409179687
0.4322072982788086,0.4641769409179687
0.4270139694213867,0.4577104568481445
0.4270139694213867,0.4577104568481445
0.4327560424804687,0.4615745544433594
0.4327560424804687,0.4615745544433594
0.4294269561767578,0.4642570495605469
0.4294269561767578,0.4642570495605469
0.4288381576538086,0.4591547012329101
0.4288381576538086,0.4591547012329101
0.4335073471069336,0.4652664184570312
0.4335073471069336,0.4652664184570312
0.4277612686157227,0.4597423553466797
0.4277612686157227,0.4597423553466797
0.4335857391357422,0.4631784439086914
0.4335857391357422,0.4631784439086914
0.4294286727905273,0.4650266647338867
0.4294286727905273,0.4650266647338867
0.4295677185058593,0.4590848922729492
0.4295677185058593,0.4590848922729492
0.4334032058715820,0.4652389526367187
0.4334032058715820,0.4652389526367187
0.4268875122070312,0.4574781417846679
0.4268875122070312,0.4574781417846679
0.4303287506103515,0.4579547882080078
0.4303287506103515,0.4579547882080078
0.4251674652099609,0.4564138412475586
0.4251674652099609,0.4564138412475586
0.4231035232543945,0.4481781005859375
0.4231035232543945,0.4481781005859375
0.4250707626342773,0.4511655807495117
0.4250707626342773,0.4511655807495117
0.4167589187622070,0.4413082122802734
0.4167589187622070,0.4413082122802734
0.4210939407348633,0.4415697097778320
0.4210939407348633,0.4415697097778320
0.4161632537841797,0.4422941207885742
0.4161632537841797,0.4422941207885742
0.4153100967407227,0.4356422424316406
0.4153100967407227,0.4356422424316406
0.4180400848388672,0.4407217025756836
0.4180400848388672,0.4407217025756836
0.4120937347412109,0.4329465866088867
0.4120937347412109,0.4329465866088867
0.4172361373901367,0.4360313415527344
0.4172361373901367,0.4360313415527344
0.4132524490356445,0.4378458023071289
0.4132524490356445,0.4378458023071289
0.4125211715698242,0.4319046020507812
0.4125211715698242,0.4319046020507812
0.4168184280395508,0.4376026153564453
0.4168184280395508,0.4376026153564453
0.4109991073608398,0.4317523956298828
0.4109991073608398,0.4317523956298828
0.4167377471923828,0.4351873397827148
0.4167377471923828,0.4351873397827148
0.4126522064208984,0.4375574111938477
0.4176927566528320,0.4375574111938477
0.4134344100952148,0.4325895309448242
0.4134344100952148,0.4325895309448242
0.4179130554199219,0.4401185989379883
0.4179130554199219,0.4401185989379883
0.4125743865966797,0.4346448898315430
0.4125743865966797,0.4346448898315430
0.4181385040283203,0.4384174346923828
0.4122745513916016,0.4384174346923828
0.4152351379394531,0.4406867980957031
0.4152351379394531,0.4406867980957031
0.4156888961791992,0.4365943908691406
0.4156888961791992,0.4365943908691406
0.4200994491577149,0.4433458328247070
0.4200994491577149,0.4433458328247070
0.4137434005737304,0.4370138168334961
0.4137434005737304,0.4370138168334961
0.4198637008666992,0.4400321960449219
0.4198637008666992,0.4400321960449219
0.4162113189697266,0.4425853729248047
0.4162113189697266,0.4425853729248047
0.4163091659545898,0.4376907348632812
0.4163091659545898,0.4376907348632812
0.4197612762451172,0.4435672760009766
0.4197612762451172,0.4435672760009766
0.4142601013183594,0.4366138458251953
0.4142601013183594,0.4366138458251953
0.4198865890502930,0.4403600692749023
0.4198865890502930,0.4403600692749023
0.4162153244018554,0.4424709320068359
0.4162153244018554,0.4424709320068359
0.4156511306762695,0.4372329711914062
0.4156511306762695,0.4372329711914062
0.4202093124389648,0.4432628631591797
0.4202093124389648,0.4432628631591797
0.4145759582519531,0.4375797271728515
0.4145759582519531,0.4375797271728515
0.4204524993896484,0.4415004730224609
0.4204524993896484,0.4415004730224609
0.4162960052490234,0.4435335159301758
0.4162960052490234,0.4435335159301758
0.4169826507568359,0.4384174346923828
0.4169826507568359,0.4384174346923828
0.4214115142822266,0.4457977294921875
0.4214115142822266,0.4457977294921875
0.4158433914184570,0.4399114608764648
0.4158433914184570,0.4399114608764648
0.4213754653930664,0.4437892913818359
0.4213754653930664,0.4437892913818359
0.4183187484741211,0.4459110260009765
0.4183187484741211,0.4459110260009765
0.4187971115112304,0.4419651031494141
0.4187971115112304,0.4419651031494141
0.4233249664306640,0.4491285324096679
0.4233249664306640,0.4491285324096679
0.4172681808471679,0.4429401397705078
0.4172681808471679,0.4429401397705078
0.4237758636474609,0.4465513229370117
0.4237758636474609,0.4465513229370117
0.4203065872192382,0.4496509552001953
0.4203065872192382,0.4496509552001953
0.4208398818969726,0.4452695846557617
0.4208398818969726,0.4452695846557617
0.4247737884521484,0.4520376205444336
0.4247737884521484,0.4520376205444336
0.4195856094360351,0.4456787109375000
0.4195856094360351,0.4456787109375000
0.4256240844726563,0.4501659393310546
0.4256240844726563,0.4501659393310546
0.4220884323120117,0.4528455734252930
0.4220884323120117,0.4528455734252930
0.4220088958740234,0.4479812622070312
0.4220088958740234,0.4479812622070312
0.4267009735107422,0.4541364669799804
0.4267009735107422,0.4541364669799804
0.4210361480712890,0.4485774993896484
0.4210361480712890,0.4485774993896484
0.4270328521728515,0.4524621963500977
0.4270328521728515,0.4524621963500977
0.4227710723876953,0.4545593261718750
0.4227710723876953,0.4545593261718750
0.4235429763793945,0.4492612838745117
0.4235429763793945,0.4492612838745117
0.4277458190917969,0.4564641952514648
0.4277458190917969,0.4564641952514648
0.4220970153808594,0.4503753662109375
0.4220970153808594,0.4503753662109375
0.4273996353149414,0.4539316177368164
0.4273996353149414,0.4539316177368164
0.4240613937377929,0.4556219100952148
0.4240613937377929,0.4556219100952148
0.4245174407958984,0.4515769958496094
0.4245174407958984,0.4515769958496094
0.4288124084472656,0.4582288742065430
0.4288124084472656,0.4582288742065430
0.4225364685058594,0.4519414901733398
0.4225364685058594,0.4519414901733398
0.4289365768432617,0.4554262161254883
0.4289365768432617,0.4554262161254883
0.4253740310668945,0.4582340240478515
0.4304100036621094,0.4582340240478515
0.4258169174194336,0.4539556503295898
0.4258169174194336,0.4539556503295898
0.4294458389282226,0.4602733612060547
0.4294458389282226,0.4602733612060547
0.4242261886596679,0.4534103393554687
0.4242261886596679,0.4534103393554687
0.4302652359008789,0.4580263137817382
0.4302652359008789,0.4580263137817382
0.4265361785888672,0.4602275848388672
0.4265361785888672,0.4602275848388672
0.4264205932617187,0.4554977416992188
0.4264205932617187,0.4554977416992188
0.4308832168579101,0.4614160537719726
0.4308832168579101,0.4614160537719726
0.4251085281372070,0.4555578231811523
0.4251085281372070,0.4555578231811523
0.4311882019042969,0.4595821380615234
0.4311882019042969,0.4595821380615234
0.4265081405639649,0.4611391067504882
0.4265081405639649,0.4611391067504882
0.4271398544311523,0.4552230834960938
0.4271398544311523,0.4552230834960938
0.4305919647216797,0.4612123489379882
0.4305919647216797,0.4612123489379882
0.4239223480224609,0.4527711868286133
0.4239223480224609,0.4527711868286133
0.4275260925292969,0.4537479400634765
0.4275260925292969,0.4537479400634765
