REDsignal,IRsignal
0.3064247131347656,0.2550527572631836
0.3150346755981445,0.2642955780029297
0.3150346755981445,0.2642955780029297
0.3054811477661133,0.2632822036743164
0.3054811477661133,0.2632822036743164
0.3133792877197266,0.2590627670288086
0.3133792877197266,0.2590627670288086
0.3148338317871094,0.2685276031494140
0.3148338317871094,0.2685276031494140
0.3057512283325195,0.2567464828491211
0.3057512283325195,0.2567464828491211
0.3181360244750976,0.2665557861328125
0.3181360244750976,0.2665557861328125
0.3069591522216797,0.2652030944824219
0.3069591522216797,0.2652030944824219
0.3145505905151367,0.2610431671142578
0.3064533233642578,0.2610431671142578
0.3139017105102539,0.2698854446411132
0.3139017105102539,0.2698854446411132
0.3086248397827148,0.2586256027221679
0.3086248397827148,0.2586256027221679
0.3190286636352539,0.2681671142578125
0.3190286636352539,0.2681671142578125
0.3076749801635742,0.2667984008789062
0.3076749801635742,0.2667984008789062
0.3134588241577148,0.2620113372802734
0.3134588241577148,0.2620113372802734
0.3165704727172852,0.2714767456054688
0.3165704727172852,0.2714767456054688
0.3096399307250977,0.2599256515502930
0.3096399307250977,0.2599256515502930
0.3198509216308594,0.2695295333862305
0.3198509216308594,0.2695295333862305
0.3064407348632812,0.2675331115722656
0.3064407348632812,0.2675331115722656
0.3158432006835937,0.2633262634277344
0.3158432006835937,0.2633262634277344
0.3171398162841797,0.2723505020141602
0.3171398162841797,0.2723505020141602
0.3099729537963867,0.2607730865478515
0.3099729537963867,0.2607730865478515
0.3182538986206054,0.2697069168090820
0.3182538986206054,0.2697069168090820
0.3083587646484375,0.2679353713989258
0.3083587646484375,0.2679353713989258
0.3156206130981445,0.2623432159423828
0.3156206130981445,0.2623432159423828
0.3154981613159180,0.2694042205810547
0.3154981613159180,0.2694042205810547
0.3040666580200195,0.2529808044433594
0.3040666580200195,0.2529808044433594
0.3122571945190429,0.2559448242187500
0.3015392303466797,0.2559448242187500
0.2962074279785156,0.2470790863037109
0.2962074279785156,0.2470790863037109
0.2998374938964843,0.2364286422729492
0.2998374938964843,0.2364286422729492
0.2963779449462891,0.2409954071044922
0.2963779449462891,0.2409954071044922
0.2891624450683594,0.2269105911254883
0.2891624450683594,0.2269105911254883
0.2906250000000000,0.2289304733276367
0.2906250000000000,0.2289304733276367
0.2906250000000000,0.2295427322387695
0.2978136062622070,0.2371816635131836
0.2928525924682617,0.2371816635131836
0.2865194320678711,0.2288366317749023
0.2972448348999023,0.2288366317749023
0.2990930557250976,0.2319614410400390
0.2879568099975586,0.2319614410400390
0.2924102783203125,0.2407585144042969
0.2998311996459961,0.2407585144042969
0.2926248550415039,0.2302980422973633
0.2895921707153320,0.2302980422973633
0.3006849288940430,0.2420808792114258
0.2961290359497070,0.2420808792114258
0.2911199569702148,0.2347297668457031
0.3018499374389648,0.2347297668457031
0.3026103973388672,0.2411602020263672
0.2922672271728515,0.2411602020263672
0.2967355728149414,0.2449499130249023
0.3041553497314453,0.2449499130249023
0.2966222763061523,0.2376337051391602
0.2937274932861328,0.2376337051391602
0.3062124252319336,0.2500288009643555
0.3011976242065429,0.2500288009643555
0.2958589553833008,0.2457921981811523
0.3071050643920898,0.2457921981811523
0.3081327438354492,0.2474166870117187
0.2978565216064453,0.2474166870117187
0.3025182723999023,0.2544422149658203
0.3101137161254883,0.2544422149658203
0.3038045883178711,0.2475002288818359
0.3005516052246094,0.2475002288818359
0.3116546630859375,0.2620542526245117
0.3071119308471680,0.2620542526245117
0.3012639999389649,0.2512773513793945
0.3119064331054687,0.2512773513793945
0.3120546340942383,0.2541423797607422
0.3012279510498047,0.2541423797607422
0.3063508987426758,0.2593740463256836
0.3127332687377929,0.2593740463256836
0.3052299499511719,0.2529727935791016
0.3017629623413086,0.2529727935791016
0.3123327255249023,0.2601385116577148
0.3071737289428711,0.2601385116577148
0.3008909225463867,0.2506381988525391
0.3109634399414062,0.2506381988525391
0.3121061325073242,0.2524257659912109
0.3006671905517578,0.2524257659912109
0.3043109893798828,0.2596052169799805
0.3111900329589843,0.2596052169799805
0.3035253524780273,0.2475088119506836
0.2999673843383789,0.2475088119506836
0.3102075576782227,0.2579366683959961
0.3052694320678711,0.2579366683959961
0.3004749298095703,0.2493421554565430
0.3104387283325195,0.2493421554565430
0.3111745834350586,0.2546722412109375
0.3004955291748047,0.2546722412109375
0.3046045303344727,0.2573295593261719
0.3117267608642578,0.2573295593261719
0.3043619155883789,0.2492992401123047
0.3010814666748047,0.2492992401123047
0.3128425598144531,0.2606901168823242
0.3078145980834961,0.2606901168823242
0.3019529342651367,0.2553606033325195
0.3127521514892578,0.2553606033325195
0.3134593963623047,0.2558080673217774
0.3028450012207031,0.2558080673217774
0.3066410064697265,0.2617813110351562
0.3139017105102539,0.2617813110351562
0.3079004287719727,0.2539375305175781
0.3040489196777343,0.2539375305175781
0.3152669906616211,0.2681270599365234
0.3105646133422851,0.2681270599365234
0.3047710418701172,0.2569868087768555
0.3153722763061523,0.2569868087768555
0.3160840988159180,0.2600349426269531
0.3053152084350586,0.2600349426269531
0.3102138519287109,0.2658119201660156
0.3170860290527344,0.2658119201660156
0.3096376419067383,0.2602443695068359
0.3062856674194336,0.2602443695068359
0.3172285079956055,0.2683399200439453
0.3123630523681640,0.2683399200439453
0.3059972763061523,0.2598031997680664
0.3163873672485352,0.2598031997680664
0.3182556152343750,0.2626333236694336
0.3069305419921875,0.2626333236694336
0.3110063552856445,0.2707963943481445
0.3183088302612305,0.2707963943481445
0.3108501434326172,0.2593809127807617
0.3073059082031250,0.2593809127807617
0.3183179855346679,0.2701675415039063
0.3133369445800781,0.2701675415039063
0.3081596374511719,0.2616085052490234
0.3182722091674804,0.2616085052490234
0.3186864852905273,0.2671737670898438
0.3079713821411132,0.2671737670898438
0.3120014190673828,0.2694265365600586
0.3191751480102539,0.2694265365600586
0.3111814498901367,0.2609058380126953
0.3076177597045898,0.2609058380126953
0.3197467803955078,0.2717508316040039
0.3143280029296875,0.2717508316040039
0.3085567474365234,0.2658451080322266
0.3190166473388672,0.2658451080322266
0.3195138931274414,0.2655481338500976
0.3086168289184570,0.2655481338500976
0.3127080917358399,0.2707174301147461
0.3198257446289062,0.2707174301147461
0.3130268096923828,0.2622259140014648
0.3091163635253906,0.2622259140014648
0.3198886871337890,0.2758335113525390
0.3151399612426758,0.2758335113525390
0.3092479705810547,0.2639648437500000
0.3194789886474609,0.2639648437500000
0.3196197509765625,0.2665895462036132
0.3086774826049805,0.2665895462036132
0.3138381958007813,0.2717971801757812
0.3204105377197266,0.2717971801757812
0.3131486892700195,0.2660642623901367
0.3095483779907227,0.2660642623901367
0.3204511642456054,0.2736814498901367
0.3155279159545898,0.2736814498901367
0.3095689773559570,0.2647258758544922
0.3197198867797851,0.2647258758544922
0.3211744308471680,0.2673620223999023
0.3097612380981445,0.2673620223999023
0.3134742736816406,0.2747875213623047
0.3204637527465820,0.2747875213623047
0.3126874923706054,0.2622299194335938
0.3084337234497070,0.2622299194335938
0.3183231353759766,0.2709972381591797
0.3124826431274414,0.2709972381591797
0.3067354202270507,0.2584505081176758
0.3147754669189453,0.2584505081176758
0.3138198852539062,0.2580945968627930
0.3008342742919922,0.2580945968627930
0.3026899337768554,0.2534688949584961
0.3076171875000000,0.2534688949584961
0.2985363006591797,0.2387746810913086
0.2929704666137695,0.2387746810913086
0.3033834457397461,0.2451141357421875
0.2970909118652343,0.2451141357421875
0.2903966903686523,0.2359422683715820
0.2999410629272461,0.2359422683715820
0.3002706527709961,0.2344339370727539
0.2889936447143555,0.2344339370727539
0.2923845291137695,0.2388610839843750
0.2994174957275391,0.2388610839843750
0.2932720184326172,0.2304079055786133
0.2891521453857422,0.2304079055786133
0.3004508972167969,0.2443605422973633
0.2959264755249023,0.2443605422973633
0.2902965545654297,0.2335035324096680
0.3007925033569336,0.2335035324096680
0.3018985748291015,0.2374059677124023
0.2913242340087890,0.2374059677124023
0.2963155746459961,0.2439474105834961
0.3037771224975586,0.2439474105834961
0.2966880798339844,0.2395923614501953
0.2936164855957031,0.2395923614501953
0.3049352645874023,0.2490623474121094
0.3006843566894531,0.2490623474121094
0.2948324203491211,0.2417747497558594
0.3055229187011719,0.2417747497558594
0.3080188751220703,0.2464479446411133
0.2970697402954102,0.2464479446411133
0.3017400741577148,0.2561376571655273
0.3097486495971680,0.2561376571655273
0.3029102325439453,0.2466573715209961
0.2998123168945312,0.2466573715209961
0.3114315032958984,0.2594501495361328
0.3072200775146484,0.2594501495361328
0.3025651931762695,0.2524583816528320
0.3129816055297852,0.2524583816528320
0.3139303207397461,0.2591840744018555
0.3034412384033203,0.2591840744018555
0.3076120376586914,0.2622264862060547
0.3149957656860352,0.2622264862060547
0.3073001861572265,0.2541257858276367
0.3035802841186523,0.2541257858276367
0.3158403396606445,0.2652116775512695
0.3104959487915039,0.2652116775512695
0.3046949386596680,0.2590112686157227
0.3149202346801758,0.2590112686157227
0.3155673980712890,0.2586673736572265
0.3044797897338867,0.2586673736572265
0.3082403182983398,0.2631540298461914
0.3152544021606445,0.2631540298461914
0.3085430145263672,0.2542024612426758
0.3042091369628906,0.2542024612426758
0.3148097991943359,0.2672149658203125
0.3098859786987305,0.2672149658203125
0.3038995742797851,0.2546144485473633
0.3136756896972656,0.2546144485473633
0.3137798309326172,0.2569318771362304
0.3027208328247070,0.2569318771362304
0.3077568054199218,0.2616897583007812
0.3143320083618164,0.2616897583007812
0.3070632934570313,0.2557388305664062
0.3033336639404297,0.2557388305664062
0.3143400192260742,0.2636901855468750
0.3095157623291016,0.2636901855468750
0.3037399291992187,0.2548107147216797
0.3138868331909180,0.2548107147216797
0.3155055999755859,0.2581809997558593
0.3043384552001953,0.2581809997558593
0.3082483291625976,0.2663846969604492
0.3158494949340820,0.2663846969604492
0.3085126876831055,0.2554355621337890
0.3048322677612305,0.2554355621337890
0.3154535293579102,0.2667543411254883
0.3108415603637695,0.2667543411254883
0.3065237045288086,0.2582239151000976
0.3161321640014648,0.2582239151000976
0.3171518325805664,0.2645656585693359
0.3064888000488281,0.2645656585693359
0.3103322982788086,0.2669208526611328
0.3177881240844727,0.2669208526611328
0.3105731964111328,0.2586490631103516
0.3067085266113281,0.2586490631103516
0.3186344146728515,0.2700307846069336
0.3136739730834961,0.2700307846069336
0.3078294754028320,0.2640787124633789
0.3180873870849609,0.2640787124633789
0.3189388275146484,0.2643430709838867
0.3079507827758789,0.2643430709838867
0.3113307952880859,0.2694631576538086
0.3187505722045899,0.2694631576538086
0.3126600265502930,0.2611845016479492
0.3082094192504883,0.2611845016479492
0.3193948745727539,0.2750358581542969
0.3148017883300781,0.2750358581542969
0.3090871810913086,0.2629251480102539
0.3189153671264648,0.2629251480102539
0.3198045730590820,0.2660762786865234
0.3088743209838867,0.2660762786865234
0.3134817123413086,0.2710578918457031
0.3205329895019531,0.2710578918457031
0.3130062103271484,0.2655235290527344
0.3092016220092773,0.2655235290527344
0.3202617645263672,0.2734016418457031
0.3154191970825195,0.2734016418457031
0.3091781616210937,0.2642051696777344
0.3190721511840820,0.2642051696777344
0.3212007522583007,0.2674495697021484
0.3096456527709961,0.2674495697021484
0.3135538101196289,0.2752532958984375
0.3210697174072266,0.2752532958984375
0.3137363433837890,0.2636043548583984
0.3096931457519531,0.2636043548583984
0.3207109451293945,0.2743972778320312
0.3160675048828125,0.2743972778320312
0.3110177993774414,0.2652105331420898
0.3205570220947265,0.2652105331420898
0.3212196350097656,0.2713468551635742
0.3103792190551758,0.2713468551635742
0.3141071319580078,0.2730525970458984
0.3213958740234375,0.2730525970458984
0.3135915756225586,0.2644563674926758
0.3095666885375977,0.2644563674926758
0.3218828201293945,0.2754667282104492
0.3166820526123047,0.2754667282104492
0.3109714508056641,0.2691032409667969
0.3209135055541992,0.2691032409667969
0.3217700958251953,0.2691513061523437
0.3107019424438476,0.2691513061523437
0.3144601821899414,0.2739143371582031
0.3217821121215820,0.2739143371582031
0.3153167724609375,0.2654428482055664
0.3109062194824219,0.2654428482055664
0.3217351913452148,0.2792381286621093
0.3171970367431641,0.2792381286621093
0.3114486694335937,0.2668190002441406
0.3211715698242187,0.2668190002441406
0.3214902877807617,0.2697881698608398
0.3103677749633789,0.2697881698608398
0.3154191970825195,0.2745437622070312
0.3221723556518555,0.2745437622070312
0.3147932052612304,0.2685665130615234
0.3106372833251953,0.2685665130615234
0.3213684082031250,0.2754009246826172
0.3162969589233398,0.2754009246826172
0.3098808288574219,0.2640369415283203
0.3187591552734375,0.2640369415283203
0.3195608139038086,0.2644037246704101
0.3069751739501953,0.2644037246704101
0.3090871810913086,0.2671657562255859
0.3147869110107422,0.2671657562255859
0.3057054519653320,0.2498268127441406
0.2998403549194336,0.2498268127441406
0.3088577270507812,0.2555551528930664
0.3027912139892578,0.2555551528930664
0.2971366882324218,0.2424104690551758
0.3052133560180664,0.2424104690551758
0.3055721282958984,0.2459123611450195
0.2941875457763672,0.2459123611450195
0.2977615356445312,0.2467781066894531
0.3050394058227539,0.2467781066894531
0.2934608459472656,0.2442855834960938
0.3069751739501953,0.2442855834960938
0.3025028228759766,0.2414268493652344
0.3025028228759766,0.2414268493652344
0.3037696838378906,0.2517997741699219
0.3066307067871094,0.2517997741699219
0.2964689254760742,0.2414136886596679
0.2964689254760742,0.2414136886596679
0.3096033096313476,0.2538534164428711
0.3096033096313476,0.2538534164428711
0.2991622924804687,0.2536800384521484
0.2991622924804687,0.2536800384521484
0.3089218139648438,0.2521030426025391
0.3089218139648438,0.2521030426025391
0.3088823318481445,0.2625228881835938
0.3088823318481445,0.2625228881835938
0.3052402496337890,0.2526975631713867
0.3052402496337890,0.2526975631713867
0.3166700363159179,0.2643424987792969
0.3166700363159179,0.2643424987792969
0.3054834365844726,0.2632266998291016
0.3054834365844726,0.2632266998291016
0.3122629165649414,0.2597768783569336
0.3122629165649414,0.2597768783569336
0.3149900436401367,0.2693555831909180
0.3149900436401367,0.2693555831909180
0.3086872100830078,0.2577838897705078
0.3086872100830078,0.2577838897705078
0.3191545486450195,0.2683628082275391
0.3191545486450195,0.2683628082275391
0.3054513931274414,0.2657220840454101
0.3054513931274414,0.2657220840454101
0.3154420852661133,0.2619855880737305
0.3154420852661133,0.2619855880737305
0.3160938262939453,0.2706310272216797
0.3160938262939453,0.2706310272216797
0.3092525482177734,0.2587114334106445
0.3092525482177734,0.2587114334106445
0.3172199249267578,0.2680257797241211
0.3172199249267578,0.2680257797241211
0.3068727493286132,0.2654359817504883
0.3068727493286132,0.2654359817504883
0.3149253845214844,0.2612468719482422
0.3149253845214844,0.2612468719482422
0.3152429580688477,0.2698871612548828
0.3152429580688477,0.2698871612548828
0.3066581726074218,0.2574405670166016
0.3066581726074218,0.2574405670166016
0.3185211181640625,0.2678827285766601
0.3185211181640625,0.2678827285766601
0.3071090698242188,0.2654720306396484
0.3071090698242188,0.2654720306396484
0.3152338027954101,0.2619192123413086
0.3152338027954101,0.2619192123413086
0.3138656616210938,0.2704221725463867
0.3138656616210938,0.2704221725463867
0.3091392517089844,0.2589780807495117
0.3091392517089844,0.2589780807495117
0.3195287704467774,0.2695724487304688
0.3195287704467774,0.2695724487304688
0.3079799652099609,0.2673620223999023
0.3079799652099609,0.2673620223999023
0.3145860671997070,0.2635940551757812
0.3145860671997070,0.2635940551757812
0.3169069290161133,0.2727682113647461
0.3169069290161133,0.2727682113647461
0.3108140945434570,0.2611324310302734
0.3108140945434570,0.2611324310302734
0.3210210800170898,0.2718172073364258
0.3210210800170898,0.2718172073364258
0.3073820114135742,0.2690362930297852
0.3073820114135742,0.2690362930297852
0.3175077438354492,0.2657844543457031
0.3175077438354492,0.2657844543457031
0.3181165695190429,0.2746559143066406
0.3181165695190429,0.2746559143066406
0.3116775512695312,0.2630762100219726
0.3116775512695312,0.2630762100219726
0.3199441909790039,0.2730331420898438
0.3199441909790039,0.2730331420898438
0.3100770950317382,0.2708158493041992
0.3100770950317382,0.2708158493041992
0.3187540054321289,0.2672481536865234
0.3187540054321289,0.2672481536865234
0.3189331054687500,0.2762603759765625
0.3189331054687500,0.2762603759765625
0.3105691909790039,0.2639430999755859
0.3105691909790039,0.2639430999755859
0.3225637435913086,0.2744104385375977
0.3225637435913086,0.2744104385375977
0.3108404159545898,0.2718818664550781
0.3108404159545898,0.2718818664550781
0.3192049026489258,0.2684154510498047
0.3192049026489258,0.2684154510498047
0.3175048828125000,0.2767032623291015
0.3175048828125000,0.2767032623291015
0.3128889083862305,0.2650611877441406
0.3128889083862305,0.2650611877441406
0.3233247756958008,0.2753786087036132
0.3233247756958008,0.2753786087036132
0.3114137649536133,0.2728328704833984
0.3114137649536133,0.2728328704833984
0.3177148818969727,0.2687421798706054
0.3177148818969727,0.2687421798706054
0.3197198867797851,0.2776554107666016
0.3197198867797851,0.2776554107666016
0.3134634017944336,0.2657524108886719
0.3134634017944336,0.2657524108886719
0.3235399246215820,0.2762186050415039
0.3235399246215820,0.2762186050415039
0.3098150253295898,0.2730331420898438
0.3098150253295898,0.2730331420898438
0.3199167251586914,0.2696714401245117
0.3199167251586914,0.2696714401245117
0.3203481674194336,0.2783500671386719
0.3203481674194336,0.2783500671386719
0.3138450622558593,0.2665426254272461
0.3138450622558593,0.2665426254272461
0.3218559265136718,0.2764360427856445
0.3218559265136718,0.2764360427856445
0.3119585037231445,0.2738771438598633
0.3119585037231445,0.2738771438598633
0.3202766418457031,0.2701068878173828
0.3202766418457031,0.2701068878173828
0.3203636169433594,0.2786516189575195
0.3203636169433594,0.2786516189575195
0.3116163253784179,0.2656448364257812
0.3152578353881836,0.2656448364257812
0.3227308273315430,0.2747360229492187
0.3227308273315430,0.2747360229492187
0.3097732543945312,0.2695020675659179
0.3097732543945312,0.2695020675659179
0.3158935546875000,0.2623672485351562
0.3158935546875000,0.2623672485351562
0.3112186431884765,0.2657066345214844
0.3112186431884765,0.2657066345214844
0.3035190582275391,0.2489748001098633
0.3035190582275391,0.2489748001098633
0.3109445571899414,0.2554813385009765
0.3109445571899414,0.2554813385009765
0.2976551055908203,0.2501592636108398
0.2976551055908203,0.2501592636108398
0.3032180786132813,0.2449974060058594
0.3032180786132813,0.2449974060058594
0.3047555923461914,0.2537052154541016
0.3047555923461914,0.2537052154541016
0.2990856170654297,0.2423898696899414
0.2990856170654297,0.2423898696899414
0.3096296310424805,0.2541584014892578
0.3096296310424805,0.2541584014892578
0.2969758987426758,0.2524057388305664
0.2969758987426758,0.2524057388305664
0.3081916809082031,0.2510850906372070
0.3081916809082031,0.2510850906372070
0.3096302032470703,0.2615953445434570
0.3096302032470703,0.2615953445434570
0.3047538757324219,0.2519388198852539
0.3047538757324219,0.2519388198852539
0.3139818191528320,0.2638137817382812
0.3139818191528320,0.2638137817382812
0.3051212310791016,0.2626361846923828
0.3051212310791016,0.2626361846923828
0.3146335601806641,0.2606718063354492
0.3146335601806641,0.2606718063354492
0.3153493881225586,0.2705068588256836
0.3153493881225586,0.2705068588256836
0.3076869964599609,0.2589168548583984
0.3076869964599609,0.2589168548583984
0.3197244644165039,0.2702384948730469
0.3122732162475586,0.2702384948730469
0.3085000991821289,0.2676887512207031
0.3085000991821289,0.2676887512207031
0.3170660018920898,0.2647418975830078
0.3170660018920898,0.2647418975830078
0.3153419494628906,0.2730886459350586
0.3153419494628906,0.2730886459350586
0.3109313964843750,0.2614814758300781
0.3109313964843750,0.2614814758300781
0.3212047576904297,0.2718744277954102
0.3212047576904297,0.2718744277954102
0.3092027664184570,0.2689453125000000
0.3092027664184570,0.2689453125000000
0.3155210494995117,0.2648466110229492
0.3155210494995117,0.2648466110229492
0.3170619964599609,0.2733890533447266
0.3170619964599609,0.2733890533447266
0.3107002258300781,0.2610843658447266
0.3107002258300781,0.2610843658447266
0.3205638885498047,0.2713256835937500
0.3205638885498047,0.2713256835937500
0.3066421508789062,0.2675931930541992
0.3066421508789062,0.2675931930541992
0.3167232513427734,0.2643053054809570
0.3167232513427734,0.2643053054809570
0.3169206619262695,0.2728511810302734
0.3169206619262695,0.2728511810302734
0.3105794906616211,0.2610506057739257
0.3105794906616211,0.2610506057739257
0.3185989379882813,0.2712038040161133
0.3185989379882813,0.2712038040161133
0.3087575912475586,0.2684246063232422
0.3087575912475586,0.2684246063232422
0.3173578262329101,0.2653816223144531
0.3173578262329101,0.2653816223144531
0.3175420761108398,0.2740945816040039
0.3175420761108398,0.2740945816040039
0.3095254898071289,0.2620628356933594
0.3095254898071289,0.2620628356933594
0.3213386535644531,0.2730096817016601
0.3213386535644531,0.2730096817016601
0.3100593566894531,0.2701881408691406
0.3100593566894531,0.2701881408691406
0.3184993743896484,0.2672618865966797
0.3184993743896484,0.2672618865966797
0.3166934967041016,0.2755393981933594
0.3166934967041016,0.2755393981933594
0.3124328613281250,0.2641267776489258
0.3124328613281250,0.2641267776489258
0.3224836349487304,0.2748584747314453
0.3224836349487304,0.2748584747314453
0.3110229492187500,0.2720735549926758
0.3110229492187500,0.2720735549926758
0.3175643920898437,0.2685276031494140
0.3175643920898437,0.2685276031494140
0.3194681167602539,0.2774763107299805
0.3194681167602539,0.2774763107299805
0.3136602401733398,0.2657604217529297
0.3136602401733398,0.2657604217529297
0.3235050201416015,0.2766139984130859
0.3235050201416015,0.2766139984130859
0.3099082946777343,0.2731000900268555
0.3099082946777343,0.2731000900268555
0.3201341629028320,0.2701520919799805
0.3201341629028320,0.2701520919799805
0.3202239990234375,0.2787014007568359
0.3202239990234375,0.2787014007568359
0.3142604827880859,0.2669889450073242
0.3142604827880859,0.2669889450073242
0.3221208572387695,0.2771610260009765
0.3221208572387695,0.2771610260009765
0.3122583389282226,0.2741329193115234
0.3122583389282226,0.2741329193115234
0.3209581375122070,0.2709823608398437
0.3130765914916992,0.2709823608398437
0.3207836151123047,0.2796752929687500
0.3207836151123047,0.2796752929687500
0.3126731872558594,0.2672172546386719
0.3126731872558594,0.2672172546386719
0.3243473052978516,0.2780405044555664
0.3243473052978516,0.2780405044555664
0.3126691818237304,0.2747560501098633
0.3126691818237304,0.2747560501098633
0.3211320877075195,0.2716609954833984
0.3211320877075195,0.2716609954833984
0.3190029144287109,0.2795785903930664
0.3190029144287109,0.2795785903930664
0.3145734786987305,0.2677116394042969
0.3145734786987305,0.2677116394042969
0.3243736267089843,0.2776931762695312
0.3243736267089843,0.2776931762695312
0.3118492126464844,0.2732528686523437
0.3118492126464844,0.2732528686523437
0.3169589996337890,0.2670095443725586
0.3169589996337890,0.2670095443725586
0.3161813735961914,0.2714315414428711
0.3161813735961914,0.2714315414428711
0.3064744949340820,0.2531965255737305
0.3064744949340820,0.2531965255737305
0.3122474670410156,0.2571928024291992
0.3019643783569336,0.2571928024291992
0.2951911926269531,0.2478023529052734
0.2951911926269531,0.2478023529052734
0.3025846481323242,0.2409650802612305
0.2946722030639649,0.2409650802612305
0.3012599945068359,0.2472953796386719
0.3012599945068359,0.2472953796386719
0.2944095611572266,0.2345993041992187
0.2944095611572266,0.2345993041992187
0.3022235870361328,0.2445407867431640
0.3022235870361328,0.2445407867431640
0.2923467636108398,0.2417982101440430
0.2923467636108398,0.2417982101440430
0.3014768600463867,0.2395723342895508
0.3014768600463867,0.2395723342895508
0.3021142959594726,0.2493770599365234
0.3021142959594726,0.2493770599365234
0.2952129364013672,0.2386058807373047
0.2952129364013672,0.2386058807373047
0.3075988769531250,0.2511520385742188
0.3075988769531250,0.2511520385742188
0.2973083496093750,0.2493381500244141
0.2973083496093750,0.2493381500244141
0.3067726135253906,0.2481754302978516
0.3067726135253906,0.2481754302978516
0.3058073043823242,0.2578542709350586
0.3058073043823242,0.2578542709350586
0.3024055480957031,0.2478309631347656
0.3024055480957031,0.2478309631347656
0.3069042205810547,0.2551689147949219
0.3031551361083984,0.2551689147949219
0.3144630432128906,0.2645227432250977
0.3109342575073242,0.2645227432250977
0.3057621002197266,0.2560649871826172
0.3148097991943359,0.2560649871826172
0.3171873092651367,0.2618350982666016
0.3062994003295899,0.2618350982666016
0.3097915649414062,0.2692771911621094
0.3178962707519531,0.2692771911621094
0.3109245300292969,0.2583360671997070
0.3065666198730468,0.2583360671997070
0.3170093536376953,0.2692251205444336
0.3130880355834961,0.2692251205444336
0.3086866378784179,0.2595485687255859
0.3168817520141601,0.2595485687255859
0.3181652069091797,0.2669580459594726
0.3074094772338867,0.2669580459594726
0.3105640411376953,0.2673597335815430
0.3181200027465820,0.2673597335815430
0.3110458374023438,0.2586399078369140
0.3064418792724609,0.2586399078369140
0.3177612304687500,0.2689321517944336
0.3134805679321289,0.2689321517944336
0.3075714111328125,0.2614694595336914
0.3161802291870117,0.2614694595336914
0.3174213409423828,0.2627386093139648
0.3063606262207031,0.2627386093139648
0.3090871810913086,0.2659521102905273
0.3167135238647461,0.2659521102905273
0.3107757568359375,0.2575704574584961
0.3057821273803711,0.2575704574584961
0.3166666030883789,0.2709709167480469
0.3128831863403320,0.2709709167480469
0.3072257995605469,0.2581140518188477
0.3158157348632812,0.2581140518188477
0.3173366546630859,0.2629205703735352
0.3065076828002929,0.2629205703735352
0.3105079650878906,0.2668756484985351
0.3181835174560547,0.2668756484985351
0.3110698699951172,0.2617944717407226
0.3068618774414062,0.2617944717407226
0.3177280426025391,0.2697647094726562
0.3139263153076172,0.2697647094726562
0.3079685211181640,0.2602363586425781
0.3166620254516602,0.2602363586425781
0.3193559646606445,0.2655687332153320
0.3081939697265625,0.2655687332153320
0.3116529464721680,0.2724655151367187
0.3197982788085937,0.2724655151367187
0.3128213882446289,0.2615753173828125
0.3083684921264648,0.2615753173828125
0.3193073272705078,0.2725770950317383
0.3156206130981445,0.2725770950317383
0.3106893539428711,0.2631071090698242
0.3191476821899414,0.2631071090698242
0.3205478668212891,0.2712924957275391
0.3100467681884765,0.2712924957275391
0.3132350921630859,0.2720815658569336
0.3211521148681640,0.2720815658569336
0.3137105941772461,0.2641181945800781
0.3092348098754883,0.2641181945800781
0.3213953018188476,0.2750696182250976
0.3172056198120117,0.2750696182250976
0.3116832733154297,0.2683216094970703
0.3204288482666016,0.2683216094970703
0.3217466354370117,0.2702693939208984
0.3110544204711914,0.2702693939208984
0.3143091201782227,0.2738948822021484
0.3221843719482422,0.2738948822021484
0.3158878326416015,0.2659818649291992
0.3110824584960937,0.2659818649291992
0.3218564987182617,0.2795866012573242
0.3181840896606445,0.2795866012573242
0.3124334335327149,0.2665849685668945
0.3111494064331055,0.2714887619018554
0.3155330657958984,0.2751085281372070
0.3228155136108398,0.2751085281372070
0.3159444808959961,0.2697853088378906
0.3115190505981445,0.2697853088378906
0.3222564697265625,0.2772480010986328
0.3184684753417968,0.2772480010986328
0.3128156661987305,0.2672269821166992
0.3213386535644531,0.2672269821166992
0.3233682632446289,0.2722606658935547
0.3122028350830078,0.2722606658935547
0.3152538299560547,0.2785177230834961
0.3232069015502930,0.2785177230834961
0.3160835266113281,0.2669528961181640
0.3112112045288086,0.2669528961181640
0.3213558197021484,0.2768205642700195
0.3173091888427734,0.2768205642700195
0.3123842239379883,0.2653610229492188
0.3196598052978515,0.2653610229492188
0.3204643249511719,0.2706945419311523
0.3085973739624023,0.2706945419311523
0.3101394653320312,0.2660007476806641
0.3159570693969727,0.2660007476806641
0.3069906234741211,0.2509626388549804
0.3000383377075195,0.2509626388549804
0.3094133377075195,0.2547912597656250
0.3034744262695312,0.2547912597656250
0.2960334777832031,0.2416402816772461
0.3032135009765625,0.2416402816772461
0.3036867141723633,0.2403734207153320
0.2920114517211914,0.2403734207153320
0.2941108703613281,0.2415584564208984
0.3014974594116211,0.2415584564208984
0.2952993392944336,0.2324174880981445
0.2901226043701172,0.2324174880981445
0.3010128021240234,0.2455427169799805
0.2975538253784180,0.2455427169799805
0.2919153213500976,0.2328586578369141
0.3005092620849609,0.2328586578369141
0.3023248672485351,0.2388948440551758
0.2917636871337890,0.2388948440551758
0.2959087371826172,0.2433774948120117
0.3040197372436523,0.2433774948120117
0.2973066329956054,0.2392175674438476
0.2932983398437500,0.2392175674438476
0.3044208526611328,0.2484369277954102
0.3012599945068359,0.2484369277954102
0.2956129074096679,0.2399036407470703
0.3045221328735351,0.2399036407470703
0.3076766967773437,0.2468914031982422
0.2968763351440429,0.2468914031982422
0.3006517410278320,0.2545188903808593
0.3092308044433594,0.2545188903808593
0.3026412963867187,0.2449974060058594
0.2985317230224609,0.2449974060058594
0.3097869873046875,0.2572099685668945
0.3066381454467773,0.2572099685668945
0.3020971298217773,0.2488986968994140
0.3109010696411132,0.2488986968994140
0.3127944946289062,0.2588258743286133
0.3027431488037109,0.2588258743286133
0.3063154220581055,0.2607805252075195
0.3146793365478516,0.2607805252075195
0.3076040267944336,0.2538751602172851
0.3033319473266601,0.2538751602172851
0.3156143188476562,0.2655138015747070
0.3116792678833007,0.2655138015747070
0.3061866760253906,0.2587406158447266
0.3149568557739258,0.2587406158447266
0.3165000915527343,0.2613904953002930
0.3057020187377930,0.2613904953002930
0.3088245391845703,0.2645318984985351
0.3166608810424805,0.2645318984985351
0.3103557586669922,0.2563842773437500
0.3052940368652344,0.2563842773437500
0.3159130096435547,0.2694477081298828
0.3122858047485351,0.2694477081298828
0.3062673568725586,0.2557531356811523
0.3145219802856445,0.2557531356811523
0.3154037475585937,0.2604463577270508
0.3044008255004882,0.2604463577270508
0.3083942413330078,0.2631986618041992
0.3156806945800781,0.2631986618041992
0.3086786270141602,0.2575103759765625
0.3040472030639648,0.2575103759765625
0.3146678924560547,0.2646675109863281
0.3109960556030273,0.2646675109863281
0.3052459716796875,0.2542745590209961
0.3135950088500977,0.2542745590209961
0.3158185958862305,0.2598180770874023
0.3048013687133789,0.2598180770874023
0.3077573776245117,0.2659543991088867
0.3160743713378906,0.2659543991088867
0.3090482711791992,0.2552221298217773
0.3044672012329102,0.2552221298217773
0.3149139404296875,0.2662382125854492
0.3115259170532226,0.2662382125854492
0.3069368362426758,0.2564970016479492
0.3151142120361328,0.2564970016479492
0.3168525695800781,0.2653902053833008
0.3064275741577148,0.2653902053833008
0.3095323562622070,0.2659406661987305
0.3176490783691406,0.2659406661987305
0.3108879089355469,0.2583658218383789
0.3063308715820313,0.2583658218383789
0.3178939819335938,0.2694808959960938
0.3143194198608398,0.2694808959960938
0.3085172653198242,0.2625560760498047
0.3171243667602539,0.2625560760498047
0.3188529968261719,0.2655853271484375
0.3081436157226562,0.2655853271484375
0.3108232498168945,0.2689487457275391
0.3188953399658203,0.2689487457275391
0.3132934570312500,0.2613126754760742
0.3082042694091797,0.2613126754760742
0.3191860198974609,0.2752441406250000
0.3159278869628906,0.2752441406250000
0.3101108551025391,0.2621875762939453
0.3185880661010742,0.2621875762939453
0.3202108383178711,0.2680898666381836
0.3095214843750000,0.2680898666381836
0.3132751464843750,0.2714509963989258
0.3211383819580078,0.2714509963989258
0.3140951156616211,0.2665992736816406
0.3096090316772461,0.2665992736816406
0.3204151153564453,0.2742502212524414
0.3169486999511719,0.2742502212524414
0.3106275558471679,0.2639814376831054
0.3189594268798828,0.2639814376831054
0.3218404769897461,0.2698722839355469
0.3106430053710937,0.2698722839355469
0.3137002944946289,0.2759490966796875
0.3219549179077149,0.2759490966796875
0.3150072097778320,0.2648328781127929
0.3101863861083984,0.2648328781127929
0.3209598541259766,0.2754610061645508
0.3175048828125000,0.2754610061645508
0.3122680664062500,0.2652156829833984
0.3204185485839844,0.2652156829833984
0.3219635009765625,0.2738439559936524
0.3113937377929688,0.2738439559936524
0.3142221450805664,0.2736528396606445
0.3222038269042969,0.2736528396606445
0.3147434234619140,0.2656002044677734
0.3099643707275391,0.2656002044677734
0.3219617843627929,0.2760887145996094
0.3179649353027343,0.2760887145996094
0.3121707916259766,0.2686763763427734
0.3205930709838867,0.2686763763427734
0.3219583511352539,0.2708410263061523
0.3110366821289062,0.2708410263061523
0.3136859893798828,0.2728385925292969
0.3212591171264648,0.2728385925292969
0.3144035339355469,0.2630996704101562
0.3085784912109375,0.2630996704101562
0.3183374404907227,0.2731847763061523
0.3134742736816406,0.2731847763061523
0.3059743881225586,0.2542127609252929
0.3120111465454101,0.2542127609252929
0.3112129211425781,0.2530282974243164
0.2982233047485351,0.2530282974243164
0.3004589080810547,0.2497610092163086
0.3061626434326172,0.2497610092163086
0.2979961395263672,0.2395992279052734
0.2921911239624023,0.2395992279052734
0.3021240234375000,0.2444818496704101
0.2980573654174805,0.2444818496704101
0.2918123245239257,0.2323968887329101
0.2997241973876953,0.2323968887329101
0.3018619537353516,0.2378116607666015
0.2909053802490234,0.2378116607666015
0.2937778472900390,0.2434267044067383
0.3021017074584961,0.2434267044067383
0.2953691482543945,0.2332128524780273
0.2909191131591797,0.2332128524780273
0.3014247894287109,0.2448503494262695
0.2984436035156250,0.2448503494262695
0.2940931320190430,0.2358089447021484
0.3024209976196289,0.2358089447021484
0.3046360015869141,0.2458986282348633
0.2946275711059570,0.2458986282348633
0.2979114532470703,0.2474121093750000
0.3064527511596680,0.2474121093750000
0.3000692367553711,0.2411418914794922
0.2958623886108399,0.2411418914794922
0.3077001571655273,0.2533321380615234
0.3046142578125000,0.2533321380615234
0.2991514205932617,0.2473320007324219
0.3081104278564453,0.2473320007324219
0.3101955413818359,0.2519748687744141
0.3000566482543945,0.2519748687744141
0.3029800415039062,0.2563991546630859
0.3116895675659180,0.2563991546630859
0.3064579010009765,0.2504213333129883
0.3018047332763672,0.2504213333129883
0.3131315231323242,0.2655212402343750
0.3104021072387695,0.2655212402343750
0.3048265457153320,0.2534322738647461
0.3134387969970703,0.2534322738647461
0.3154426574707031,0.2603679656982422
0.3050125122070312,0.2603679656982422
0.3087043762207031,0.2638406753540039
0.3167535781860352,0.2638406753540039
0.3098785400390625,0.2590879440307617
0.3052694320678711,0.2590879440307617
0.3159078598022461,0.2667675018310547
0.3124683380126953,0.2667675018310547
0.3061346054077148,0.2561044692993164
0.3143033981323242,0.2561044692993164
0.3170139312744141,0.2618906021118164
0.3057214736938477,0.2618906021118164
0.3085510253906250,0.2670227050781250
0.3166711807250976,0.2670227050781250
0.3094739913940430,0.2554189682006836
0.3044769287109375,0.2554189682006836
0.3150260925292969,0.2654474258422851
0.3115459442138672,0.2654474258422851
0.3060247421264649,0.2545349121093750
0.3139251708984375,0.2545349121093750
0.3153882980346679,0.2630212783813476
0.3047292709350586,0.2630212783813476
0.3074947357177734,0.2625022888183594
0.3156566619873047,0.2625022888183594
0.3169172286987305,0.2589712142944336
0.3152847290039062,0.2589712142944336
0.3128562927246094,0.2573959350585938
0.3128562927246094,0.2573959350585938
0.3122720718383789,0.2659950256347656
0.3122720718383789,0.2659950256347656
0.3052471160888672,0.2543449401855469
0.3052471160888672,0.2543449401855469
0.3166666030883789,0.2660717010498047
0.3166666030883789,0.2660717010498047
0.3057838439941406,0.2616136550903320
0.3057838439941406,0.2616136550903320
0.3146764755249024,0.2604652404785156
0.3146764755249024,0.2604652404785156
0.3122920989990234,0.2686517715454101
0.3157854080200195,0.2686517715454101
0.3088153839111328,0.2577278137207031
0.3088153839111328,0.2577278137207031
0.3185588836669922,0.2691896438598633
0.3185588836669922,0.2691896438598633
0.3075342178344727,0.2646326065063476
0.3075342178344727,0.2646326065063476
0.3146078109741211,0.2628456115722656
0.3146078109741211,0.2628456115722656
0.3156400680541992,0.2715900421142578
0.3156400680541992,0.2715900421142578
0.3106870651245117,0.2602214813232422
0.3106870651245117,0.2602214813232422
0.3202405929565429,0.2717445373535156
0.3202405929565429,0.2717445373535156
0.3070466995239258,0.2665998458862305
0.3070466995239258,0.2665998458862305
0.3175821304321289,0.2652391433715820
0.3175821304321289,0.2652391433715820
0.3168428421020508,0.2735429763793945
0.3168428421020508,0.2735429763793945
0.3116918563842773,0.2623140335083008
0.3116918563842773,0.2623140335083008
0.3194246292114258,0.2731155395507812
0.3194246292114258,0.2731155395507812
0.3096971511840820,0.2682907104492188
0.3096971511840820,0.2682907104492188
0.3187334060668945,0.2666679382324219
0.3187334060668945,0.2666679382324219
0.3178281784057617,0.2750347137451172
0.3178281784057617,0.2750347137451172
0.3105371475219726,0.2630887985229492
0.3105371475219726,0.2630887985229492
0.3217163085937500,0.2743034362792969
0.3217163085937500,0.2743034362792969
0.3102561950683594,0.2692520141601563
0.3102561950683594,0.2692520141601563
0.3191459655761719,0.2677173614501953
0.3191459655761719,0.2677173614501953
0.3162574768066406,0.2753774642944336
0.3162574768066406,0.2753774642944336
0.3126245498657226,0.2639230728149414
0.3126245498657226,0.2639230728149414
0.3222393035888672,0.2748373031616211
0.3222393035888672,0.2748373031616211
0.3106298446655273,0.2697366714477539
0.3106298446655273,0.2697366714477539
0.3172182083129882,0.2672264099121094
0.3172182083129882,0.2672264099121094
0.3174659729003906,0.2744911193847656
0.3174659729003906,0.2744911193847656
0.3109125137329101,0.2607753753662109
0.3109125137329101,0.2607753753662109
0.3185039520263672,0.2683038711547852
0.3185039520263672,0.2683038711547852
0.3018207550048828,0.2566022872924805
0.3018207550048828,0.2566022872924805
0.3078437805175781,0.2483390808105469
0.3078437805175781,0.2483390808105469
0.3032289505004883,0.2501970291137695
0.3032289505004883,0.2501970291137695
0.2948055267333984,0.2344270706176758
0.2948055267333984,0.2344270706176758
0.3008182525634766,0.2425088882446289
0.3008182525634766,0.2425088882446289
0.2899480819702148,0.2362392425537109
0.2899480819702148,0.2362392425537109
0.2985042572021484,0.2342348098754883
0.2905426025390625,0.2342348098754883
0.2977975845336914,0.2426496505737304
0.2977975845336914,0.2426496505737304
0.2911422729492187,0.2314453125000000
0.2911422729492187,0.2314453125000000
0.3028387069702148,0.2438879013061523
0.3028387069702148,0.2438879013061523
0.2923845291137695,0.2399860382080078
0.2923845291137695,0.2399860382080078
0.3021406173706054,0.2402578353881836
0.3021406173706054,0.2402578353881836
0.3004257202148438,0.2494897842407227
0.3004257202148438,0.2494897842407227
0.2977741241455078,0.2398492813110351
0.2977741241455078,0.2398492813110351
0.3082248687744141,0.2526037216186524
0.3082248687744141,0.2526037216186524
0.2979492187500000,0.2492242813110351
0.2979492187500000,0.2492242813110351
0.3060636520385742,0.2491064071655273
0.3060636520385742,0.2491064071655273
0.3078237533569336,0.2591978073120117
0.3078237533569336,0.2591978073120117
0.3039779663085938,0.2494863510131836
0.3039779663085938,0.2494863510131836
0.3143440246582031,0.2622756958007812
0.3143440246582031,0.2622756958007812
0.3018053054809570,0.2576562881469727
0.3018053054809570,0.2576562881469727
0.3128156661987305,0.2572917938232422
0.3128156661987305,0.2572917938232422
0.3121685028076172,0.2658073425292969
0.3156366348266602,0.2658073425292969
0.3072692871093750,0.2545349121093750
0.3072692871093750,0.2545349121093750
0.3147817611694336,0.2652420043945312
0.3147817611694336,0.2652420043945312
0.3048465728759766,0.2598524093627930
0.3048465728759766,0.2598524093627930
0.3135824203491211,0.2580081939697266
0.3135824203491211,0.2580081939697266
0.3122800827026367,0.2657426834106445
0.3122800827026367,0.2657426834106445
0.3048883438110351,0.2532062530517578
0.3048883438110351,0.2532062530517578
0.3154592514038086,0.2640020370483399
0.3154592514038086,0.2640020370483399
0.3037118911743164,0.2581357955932617
0.3037118911743164,0.2581357955932617
0.3124866485595703,0.2566286087036133
0.3124866485595703,0.2566286087036133
0.3095981597900391,0.2640827178955078
0.3095981597900391,0.2640827178955078
0.3059795379638672,0.2528079986572265
0.3059795379638672,0.2528079986572265
0.3156841278076172,0.2642566680908203
0.3156841278076172,0.2642566680908203
0.3043132781982422,0.2592458724975586
0.3043132781982422,0.2592458724975586
0.3116804122924804,0.2579521179199218
0.3116804122924804,0.2579521179199218
0.3125112533569336,0.2666810989379882
0.3125112533569336,0.2666810989379882
0.3076652526855468,0.2556856155395508
0.3076652526855468,0.2556856155395508
0.3174230575561524,0.2674581527709961
0.3174230575561524,0.2674581527709961
0.3044174194335937,0.2619821548461914
0.3044174194335937,0.2619821548461914
0.3151399612426758,0.2612749099731445
0.3151399612426758,0.2612749099731445
0.3146249771118164,0.2696542739868164
0.3146249771118164,0.2696542739868164
0.3096067428588867,0.2587440490722656
0.3096067428588867,0.2587440490722656
0.3173538208007812,0.2698350906372070
0.3173538208007812,0.2698350906372070
0.3076171875000000,0.2647928237915039
0.3076171875000000,0.2647928237915039
0.3167901992797851,0.2638641357421875
0.3167901992797851,0.2638641357421875
0.3159891128540039,0.2723030090332031
0.3159891128540039,0.2723030090332031
0.3091901779174804,0.2606203079223633
0.3091901779174804,0.2606203079223633
0.3202131271362305,0.2722137451171875
0.3202131271362305,0.2722137451171875
0.3092079162597656,0.2668378829956055
0.3092079162597656,0.2668378829956055
0.3180925369262695,0.2659458160400390
0.3180925369262695,0.2659458160400390
0.3152172088623047,0.2735984802246094
0.3152172088623047,0.2735984802246094
0.3118068695068359,0.2624427795410156
0.3118068695068359,0.2624427795410156
0.3212207794189453,0.2736923217773438
0.3212207794189453,0.2736923217773438
0.3099643707275391,0.2682929992675781
0.3099643707275391,0.2682929992675781
0.3169601440429687,0.2666845321655273
0.3169601440429687,0.2666845321655273
0.3175449371337891,0.2749219894409179
0.3175449371337891,0.2749219894409179
0.3126651763916016,0.2634899139404297
0.3148057937622070,0.2634899139404297
0.3219451904296875,0.2748046875000000
0.3219451904296875,0.2748046875000000
0.3084938049316406,0.2687141418457031
0.3084938049316406,0.2687141418457031
0.3190750122070312,0.2677139282226562
0.3190750122070312,0.2677139282226562
0.3178659439086914,0.2756063461303711
0.3178659439086914,0.2756063461303711
0.3128923416137695,0.2641622543334961
0.3128923416137695,0.2641622543334961
0.3202606201171875,0.2747308731079102
0.3202606201171875,0.2747308731079102
0.3102218627929688,0.2688508987426758
0.3102218627929688,0.2688508987426758
0.3188037872314453,0.2667703628540039
0.3188037872314453,0.2667703628540039
0.3165601730346679,0.2729827880859375
0.3165601730346679,0.2729827880859375
0.3077842712402344,0.2577535629272461
0.3077842712402344,0.2577535629272461
0.3154180526733398,0.2635322570800781
0.3154180526733398,0.2635322570800781
0.2999027252197266,0.2508716583251953
0.2999027252197266,0.2508716583251953
0.3051349639892578,0.2438083648681640
0.3051349639892578,0.2438083648681640
0.2991468429565430,0.2467077255249023
0.2991468429565430,0.2467077255249023
0.2936656951904297,0.2327791213989258
0.2936656951904297,0.2327791213989258
0.3021577835083007,0.2425523757934570
0.3021577835083007,0.2425523757934570
0.2903091430664063,0.2364789962768555
0.2903091430664063,0.2364789962768555
0.2976436614990234,0.2351943969726562
0.2976436614990234,0.2351943969726562
0.2984355926513672,0.2440183639526367
0.2984355926513672,0.2440183639526367
0.2939998626708984,0.2337009429931640
0.2939998626708984,0.2337009429931640
0.3042881011962891,0.2464113235473633
0.3042881011962891,0.2464113235473633
0.2920595169067383,0.2419710159301758
0.2920595169067383,0.2419710159301758
0.3036592483520508,0.2427869796752929
0.3036592483520508,0.2427869796752929
0.3037754058837890,0.2523885726928711
0.3037754058837890,0.2523885726928711
0.2998289108276367,0.2429712295532226
0.2998289108276367,0.2429712295532226
0.3083507537841797,0.2555219650268555
0.3083507537841797,0.2555219650268555
0.2996040344238281,0.2517442703247070
0.2996040344238281,0.2517442703247070
0.3098024368286132,0.2526048660278320
0.3098024368286132,0.2526048660278320
0.3098253250122070,0.2624771118164063
0.3098253250122070,0.2624771118164063
0.3040180206298828,0.2522375106811524
0.3040180206298828,0.2522375106811524
0.3155954360961914,0.2646955490112304
0.3155954360961914,0.2646955490112304
0.3049386978149414,0.2596097946166992
0.3049386978149414,0.2596097946166992
0.3142175674438477,0.2592384338378906
0.3142175674438477,0.2592384338378906
0.3112850189208984,0.2668350219726562
0.3112850189208984,0.2668350219726562
0.3078557968139649,0.2556146621704101
0.3078557968139649,0.2556146621704101
0.3169961929321289,0.2664842605590820
0.3169961929321289,0.2664842605590820
0.3053644180297851,0.2603158950805664
0.3053644180297851,0.2603158950805664
0.3121879577636719,0.2584173202514649
0.3121879577636719,0.2584173202514649
0.3120643615722656,0.2658617019653320
0.3120643615722656,0.2658617019653320
0.3069808959960937,0.2538110733032227
0.3069808959960937,0.2538110733032227
0.3157728195190430,0.2647333145141602
0.3157728195190430,0.2647333145141602
0.3022338867187500,0.2579572677612305
0.3022338867187500,0.2579572677612305
0.3127424240112305,0.2571630477905273
0.3127424240112305,0.2571630477905273
0.3115161895751953,0.2650720596313477
0.3115161895751953,0.2650720596313477
0.3068447113037109,0.2541143417358399
0.3068447113037109,0.2541143417358399
0.3144636154174805,0.2652317047119140
0.3144636154174805,0.2652317047119140
0.3048276901245117,0.2599159240722656
0.3048276901245117,0.2599159240722656
0.3144023895263672,0.2595674514770508
0.3144023895263672,0.2595674514770508
0.3133483886718750,0.2680801391601562
0.3133483886718750,0.2680801391601562
0.3069087982177734,0.2567722320556641
0.3069087982177734,0.2567722320556641
0.3178985595703125,0.2686912536621094
0.3178985595703125,0.2686912536621094
0.3066925048828125,0.2631185531616211
0.3066925048828125,0.2631185531616211
0.3161596298217773,0.2626956939697265
0.3161596298217773,0.2626956939697265
0.3133077621459961,0.2705337524414063
0.3133077621459961,0.2705337524414063
0.3101640701293945,0.2597265243530273
0.3101640701293945,0.2597265243530273
0.3131349563598633,0.2646320343017578
0.3082340240478516,0.2646320343017578
0.3161991119384766,0.2724975585937500
0.3157436370849609,0.2724975585937500
0.3094116210937500,0.2614362716674805
0.3174911499023437,0.2614362716674805
0.3208471298217773,0.2689762115478516
0.3099151611328125,0.2689762115478516
0.3123756408691406,0.2739349365234375
0.3211956024169922,0.2739349365234375
0.3142816543579102,0.2635276794433594
0.3090311050415039,0.2635276794433594
0.3198062896728516,0.2742233276367188
0.3170722961425781,0.2742233276367188
0.3113708496093750,0.2630859375000000
0.3193016052246094,0.2630859375000000
0.3212476730346679,0.2734645843505859
0.3109931945800781,0.2734645843505859
0.3130691528320312,0.2721227645874023
0.3216974258422852,0.2721227645874023
0.3144418716430664,0.2646675109863281
0.3091987609863281,0.2646675109863281
0.3210731506347656,0.2754209518432617
0.3179683685302734,0.2754209518432617
0.3115213394165039,0.2671760559082031
0.3197376251220703,0.2671760559082031
0.3218118667602539,0.2712821960449219
0.3112552642822266,0.2712821960449219
0.3134393692016602,0.2728935241699219
0.3219869613647461,0.2728935241699219
0.3158895492553711,0.2655429840087891
0.3103797912597656,0.2655429840087891
0.3208917617797851,0.2790773391723633
0.3183397293090820,0.2790773391723633
0.3118188858032226,0.2646286010742188
0.3198177337646484,0.2646286010742188
0.3214593887329101,0.2717788696289062
0.3109388351440430,0.2717788696289062
0.3141660690307617,0.2733747482299805
0.3223091125488281,0.2733747482299805
0.3154523849487305,0.2685510635375977
0.3101331710815430,0.2685510635375977
0.3203670501708984,0.2749935150146484
0.3172233581542969,0.2749935150146484
0.3102481842041016,0.2616600036621093
0.3172662734985351,0.2616600036621093
0.3191476821899414,0.2658039093017578
0.3069139480590820,0.2658039093017578
0.3073608398437500,0.2646589279174805
0.3140802383422852,0.2646589279174805
0.3052665710449219,0.2476770401000976
0.2978433609008789,0.2476770401000976
0.3064241409301758,0.2523210525512695
0.3019769668579101,0.2523210525512695
0.2952695846557617,0.2363811492919922
0.3017932891845703,0.2363811492919922
0.3034595489501953,0.2440040588378906
0.2925270080566406,0.2440040588378906
0.2942052841186523,0.2413135528564453
0.3026269912719726,0.2413135528564453
0.2957181930541992,0.2335779190063476
0.2904167175292969,0.2335779190063476
0.3017663955688477,0.2444194793701172
0.2991508483886718,0.2444194793701172
0.2928388595581055,0.2365013122558594
0.3013589859008789,0.2365013122558594
0.3039808273315430,0.2423767089843750
0.2937858581542969,0.2423767089843750
0.2959344863891601,0.2453756332397461
0.3052001953125000,0.2453756332397461
0.2999313354492187,0.2398847579956055
0.2947889328002929,0.2398847579956055
0.3060688018798828,0.2548770904541016
0.3043052673339844,0.2548770904541016
0.2982233047485351,0.2424779891967773
0.3066867828369140,0.2424779891967773
0.3095592498779297,0.2517459869384766
0.2996795654296875,0.2517459869384766
0.3029708862304688,0.2552845001220703
0.3120838165283203,0.2552845001220703
0.3056951522827148,0.2525951385498047
0.3011346817016601,0.2525951385498047
0.3122320175170898,0.2619758605957031
0.3101669311523437,0.2619758605957031
0.3037010192871094,0.2521699905395507
0.3121856689453125,0.2521699905395507
0.3159181594848633,0.2610134124755859
0.3053798675537109,0.2610134124755859
0.3077625274658203,0.2664270401000977
0.3170368194580078,0.2664270401000977
0.3102945327758789,0.2566417694091797
0.3049833297729492,0.2566417694091797
0.3157161712646484,0.2674764633178711
0.3132814407348632,0.2674764633178711
0.3073482513427734,0.2563516616821289
0.3150598526000977,0.2563516616821289
0.3173034667968750,0.2665987014770508
0.3069723129272461,0.2665987014770508
0.3087724685668945,0.2648260116577149
0.3173446655273438,0.2648260116577149
0.3100112915039062,0.2570194244384765
0.3044105529785156,0.2570194244384765
0.3160108566284179,0.2671697616577148
0.3128952026367187,0.2671697616577148
0.3063091278076172,0.2580900192260742
0.3141637802124023,0.2580900192260742
0.3163501739501953,0.2620977401733398
0.3056516647338867,0.2620977401733398
0.3075868606567383,0.2631534576416015
0.3162431716918945,0.2631534576416015
0.3099603652954102,0.2556993484497070
0.3042949676513672,0.2556993484497070
0.3148155212402344,0.2689561843872070
0.3125118255615234,0.2689561843872070
0.3059486389160156,0.2546493530273438
0.3138124465942383,0.2546493530273438
0.3158632278442383,0.2624427795410156
0.3054805755615234,0.2624427795410156
0.3085287094116211,0.2643270492553711
0.3171306610107422,0.2643270492553711
0.3104867935180664,0.2602981567382812
0.3054450988769531,0.2602981567382812
0.3161298751831055,0.2682254791259766
0.3137134552001953,0.2682254791259766
0.3073762893676757,0.2572763442993164
0.3153894424438476,0.2572763442993164
0.3185216903686524,0.2653810501098633
0.3079759597778320,0.2653810501098633
0.3099248886108398,0.2701383590698242
0.3190864562988281,0.2701383590698242
0.3123270034790039,0.2602993011474609
0.3069345474243164,0.2602993011474609
0.3172462463378906,0.2710561752319336
0.3149717330932617,0.2710561752319336
0.3095094680786133,0.2600429534912109
0.3171363830566406,0.2600429534912109
0.3197124481201172,0.2709274291992188
0.3095609664916992,0.2709274291992188
0.3114223480224609,0.2695055007934570
0.3203464508056640,0.2695055007934570
0.3136281967163086,0.2624599456787109
0.3082586288452148,0.2624599456787109
0.3195642471313476,0.2733781814575195
0.3170316696166992,0.2733781814575195
0.3104204177856445,0.2650640487670898
0.3184667587280273,0.2650640487670898
0.3208282470703125,0.2698431015014648
0.3104536056518555,0.2698431015014648
0.3119298934936524,0.2712965011596680
0.3208305358886719,0.2712965011596680
0.3152080535888672,0.2643321990966797
0.3093057632446289,0.2643321990966797
0.3200752258300781,0.2779438018798828
0.3179740905761719,0.2779438018798828
0.3112123489379883,0.2634017944335937
0.3190612792968750,0.2634017944335937
0.3215927124023437,0.2711912155151367
0.3111494064331055,0.2711912155151367
0.3136087417602539,0.2726623535156250
0.3224018096923828,0.2726623535156250
0.3155193328857422,0.2684314727783203
0.3102115631103515,0.2684314727783203
0.3207429885864257,0.2758518218994140
0.3182767868041992,0.2758518218994140
0.3112049102783203,0.2643630981445312
0.3190195083618164,0.2643630981445312
0.3226209640502929,0.2721290588378906
0.3117879867553711,0.2721290588378906
0.3135887145996094,0.2763845443725586
0.3227199554443359,0.2763845443725586
0.3158832550048828,0.2661363601684570
0.3102281570434570,0.2661363601684570
0.3210124969482422,0.2765304565429688
0.3186178207397461,0.2765304565429688
0.3125713348388672,0.2650772094726562
0.3201776504516601,0.2650772094726562
0.3224607467651367,0.2756372451782226
0.3121736526489258,0.2756372451782226
0.3137386322021484,0.2735893249511719
0.3225522994995117,0.2735893249511719
0.3151639938354492,0.2658748626708984
0.3093297958374023,0.2658748626708984
0.3207555770874023,0.2752910614013672
0.3173641204833984,0.2752910614013672
0.3102315902709961,0.2643768310546875
0.3173028945922852,0.2643768310546875
0.3184936523437500,0.2651412963867187
0.3063623428344727,0.2651412963867187
0.3063463211059570,0.2604829788208008
0.3131401062011719,0.2604829788208008
0.3050806045532227,0.2467695236206054
0.2973169326782226,0.2467695236206054
0.3062776565551757,0.2544433593750000
0.3026727676391601,0.2544433593750000
0.2947540283203125,0.2359697341918945
0.3015924453735351,0.2359697341918945
0.3031305313110351,0.2415550231933594
0.2922237396240234,0.2415550231933594
0.2946676254272461,0.2418085098266601
0.3031517028808594,0.2418085098266601
0.2963871002197265,0.2371982574462891
0.2912126541137695,0.2371982574462891
0.3019117355346679,0.2453178405761719
0.2999038696289062,0.2453178405761719
0.2934368133544922,0.2347200393676758
0.3017040252685547,0.2347200393676758
0.3052402496337890,0.2439359664916992
0.2951099395751953,0.2439359664916992
0.2972288131713867,0.2495389938354492
0.3069740295410156,0.2495389938354492
0.3006053924560547,0.2413896560668945
0.2955390930175781,0.2413896560668945
0.3062788009643554,0.2535667419433594
0.3045890808105469,0.2535667419433594
0.2995611190795898,0.2440052032470703
0.3076595306396484,0.2440052032470703
0.3108055114746094,0.2564838409423828
0.3012147903442383,0.2564838409423828
0.3033279418945312,0.2566846847534179
0.3129787445068359,0.2566846847534179
0.3067537307739258,0.2513225555419922
0.3015895843505859,0.2513225555419922
0.3134439468383789,0.2636621475219726
0.3115036010742188,0.2636621475219726
0.3052019119262695,0.2563676834106445
0.3135812759399414,0.2563676834106445
0.3163513183593750,0.2622762680053711
0.3061952590942383,0.2622762680053711
0.3076389312744141,0.2642057418823242
0.3168354034423828,0.2642057418823242
0.3113536834716797,0.2577936172485352
0.3053186416625976,0.2577936172485352
0.3162368774414062,0.2714086532592773
0.3142936706542969,0.2714086532592773
0.3074638366699219,0.2567916870117187
0.3152194976806640,0.2567916870117187
0.3177028656005859,0.2644958496093750
0.3072498321533203,0.2644958496093750
0.3093521118164063,0.2653587341308594
0.3180570602416992,0.2653587341308594
0.3110567092895508,0.2607713699340820
0.3053472518920898,0.2607713699340820
0.3158254623413086,0.2677322387695312
0.3134988784790039,0.2677322387695312
0.3062038421630859,0.2554916381835937
0.3137643814086914,0.2554916381835937
0.3172971725463867,0.2631288528442383
0.3063291549682617,0.2631288528442383
0.3079324722290039,0.2667783737182617
0.3171340942382813,0.2667783737182617
0.3102201461791992,0.2566011428833008
0.3044431686401367,0.2566011428833008
0.3151176452636719,0.2669940948486328
0.3129999160766602,0.2669940948486328
0.3068904876708984,0.2556123733520508
0.3145019531250000,0.2556123733520508
0.3171758651733398,0.2666627883911133
0.3070323944091797,0.2666627883911133
0.3085521697998047,0.2650720596313477
0.3178625106811523,0.2650720596313477
0.3107065200805664,0.2585289001464844
0.3051086425781250,0.2585289001464844
0.3170001983642578,0.2694208145141602
0.3146038055419922,0.2694208145141602
0.3080898284912109,0.2611066818237305
0.3161750793457031,0.2611066818237305
0.3188472747802734,0.2664728164672852
0.3085086822509766,0.2664728164672852
0.3101268768310547,0.2679359436035156
0.3194309234619140,0.2679359436035156
0.3133632659912109,0.2614076614379883
0.3075204849243164,0.2614076614379883
0.3182556152343750,0.2750038146972656
0.3165092468261719,0.2750038146972656
0.3096347808837890,0.2606391906738281
0.3174304962158203,0.2606391906738281
0.3198492050170899,0.2688497543334961
0.3094665527343750,0.2688497543334961
0.3120569229125976,0.2702556610107422
0.3209690093994140,0.2702556610107422
0.3143188476562500,0.2664825439453125
0.3088005065917969,0.2664825439453125
0.3194469451904297,0.2740682601928711
0.3174230575561524,0.2740682601928711
0.3106927871704102,0.2625921249389648
0.3185062408447266,0.2625921249389648
0.3218313217163086,0.2708444595336914
0.3113256454467773,0.2708444595336914
0.3127080917358399,0.2749723434448242
0.3222089767456054,0.2749723434448242
0.3153659820556641,0.2650697708129883
0.3095586776733398,0.2650697708129883
0.3197473526000976,0.2755067825317383
0.3177131652832031,0.2755067825317383
0.3120998382568359,0.2640752792358398
0.3193347930908203,0.2640752792358398
0.3221883773803711,0.2751274108886719
0.3119991302490234,0.2751274108886719
0.3133289337158203,0.2729850769042969
0.3225048065185547,0.2729850769042969
0.3158300399780273,0.2660814285278320
0.3103340148925781,0.2706848144531250
0.3213237762451172,0.2765327453613281
0.3190349578857422,0.2765327453613281
0.3120832443237305,0.2679296493530273
0.3200597763061523,0.2679296493530273
0.3226707458496094,0.2727762222290039
0.3122995376586914,0.2727762222290039
0.3131544113159180,0.2736442565917969
0.3223794937133789,0.2736442565917969
0.3167015075683594,0.2668195724487304
0.3103992462158203,0.2668195724487304
0.3211910247802734,0.2801525115966797
0.3193891525268555,0.2801525115966797
0.3124202728271484,0.2652517318725586
0.3200271606445312,0.2652517318725586
0.3228618621826172,0.2731945037841797
0.3123722076416016,0.2731945037841797
0.3141752243041992,0.2739509582519531
0.3230981826782227,0.2739509582519531
0.3161544799804688,0.2694202423095703
0.3100370407104492,0.2694202423095703
0.3201856613159180,0.2752264022827148
0.3175500869750976,0.2752264022827148
0.3094396591186523,0.2608560562133789
0.3159976959228515,0.2608560562133789
0.3185674667358399,0.2645553588867187
0.3058834075927734,0.2645553588867187
0.3054759979248047,0.2620010375976562
0.3128826141357422,0.2620010375976562
0.3042303085327148,0.2458757400512695
0.2963527679443359,0.2458757400512695
0.3056722640991211,0.2509860992431641
0.3022693634033203,0.2509860992431641
0.2949645996093750,0.2359056472778320
0.3017229080200195,0.2359056472778320
0.3039939880371094,0.2449596405029297
0.2934413909912109,0.2449596405029297
0.2944810867309570,0.2423606872558594
0.3037267684936523,0.2423606872558594
0.2967292785644531,0.2354873657226562
0.2908567428588867,0.2354873657226562
0.3028221130371094,0.2466602325439453
0.3008216857910156,0.2466602325439453
0.2943426132202148,0.2388238906860352
0.3026779174804687,0.2388238906860352
0.3058307647705078,0.2455175399780273
0.2959619522094726,0.2455175399780273
0.2977781295776367,0.2480878829956055
0.3076372146606445,0.2480878829956055
0.3020181655883789,0.2431863784790039
0.2965118408203125,0.2431863784790039
0.3077070236206055,0.2581575393676758
0.3066461563110351,0.2581575393676758
0.3001441955566406,0.2453052520751953
0.3083576202392578,0.2453052520751953
0.3113822937011719,0.2552999496459961
0.3016021728515625,0.2552999496459961
0.3042863845825195,0.2580476760864258
0.3139205932617187,0.2580476760864258
0.3078054428100586,0.2558996200561524
0.3025657653808594,0.2558996200561524
0.3137552261352539,0.2647882461547851
0.3123115539550781,0.2647882461547851
0.3057025909423828,0.2543363571166992
0.3137300491333008,0.2543363571166992
0.3174482345581054,0.2634149551391601
0.3071290969848633,0.2634149551391601
0.3084239959716797,0.2678112030029297
0.3181365966796875,0.2678112030029297
0.3114532470703125,0.2583646774291992
0.3054399490356445,0.2583646774291992
0.3157939910888672,0.2689115524291992
0.3139749526977539,0.2689115524291992
0.3080532073974609,0.2572986602783203
0.3153041839599609,0.2572986602783203
0.3182950973510742,0.2680023193359375
0.3080457687377929,0.2680023193359375
0.3090202331542969,0.2655241012573242
0.3182527542114258,0.2655241012573242
0.3114212036132812,0.2584024429321289
0.3051515579223633,0.2584024429321289
0.3163278579711914,0.2683547973632812
0.3142072677612305,0.2683547973632812
0.3069900512695312,0.2590490341186523
0.3146987915039062,0.2590490341186523
0.3174116134643555,0.2638280868530273
0.3069608688354492,0.2638280868530273
0.3074707031250000,0.2642755508422852
0.3167953491210938,0.2642755508422852
0.3112220764160156,0.2575344085693359
0.3047121047973633,0.2575344085693359
0.3155530929565429,0.2708084106445313
0.3141031265258789,0.2708084106445313
0.3069894790649414,0.2561891555786133
0.3146312713623047,0.2561891555786133
0.3176742553710937,0.2645891189575195
0.3074340820312500,0.2645891189575195
0.3092004776000977,0.2658113479614257
0.3185377120971680,0.2658113479614257
0.3119424819946289,0.2623277664184570
0.3061019897460938,0.2623277664184570
0.3168766021728516,0.2700862884521484
0.3152212142944336,0.2700862884521484
0.3078569412231445,0.2586793899536133
0.3155490875244141,0.2586793899536133
0.3197519302368164,0.2673780441284180
0.3091684341430664,0.2673780441284180
0.3104312896728516,0.2713468551635742
0.3202972412109375,0.2713468551635742
0.3135818481445312,0.2620325088500977
0.3074037551879883,0.2620325088500977
0.3183420181274414,0.2726097106933594
0.3166076660156250,0.2726097106933594
0.3102642059326172,0.2612199783325195
0.3177343368530273,0.2612199783325195
0.3208539962768555,0.2726583480834961
0.3108398437500000,0.2726583480834961
0.3116861343383789,0.2705554962158203
0.3212911605834961,0.2705554962158203
0.3142770767211914,0.2641290664672851
0.3081235885620117,0.2641290664672851
0.3199951171875000,0.2747245788574219
0.3180696487426758,0.2747245788574219
0.3111230850219727,0.2660745620727539
0.3189891815185547,0.2660745620727539
0.3218816757202148,0.2713777542114258
0.3115436553955078,0.2713777542114258
0.3125730514526367,0.2722640991210937
0.3221414566040039,0.2722640991210937
0.3161853790283203,0.2657524108886719
0.3097663879394531,0.2657524108886719
0.3204339981079101,0.2791334152221679
0.3190235137939453,0.2791334152221679
0.3119132995605469,0.2643991470336914
0.3194549560546875,0.2643991470336914
0.3220029830932617,0.2725479125976563
0.3117387771606445,0.2725479125976563
0.3137008666992188,0.2733226776123047
0.3229127883911133,0.2733226776123047
0.3163352966308594,0.2697521209716797
0.3103088378906250,0.2697521209716797
0.3209541320800781,0.2769218444824219
0.3192884445190430,0.2769218444824219
0.3122234344482422,0.2652128219604492
0.3197587966918945,0.2652128219604492
0.3233831405639648,0.2734434127807617
0.3128980636596679,0.2734434127807617
0.3137369155883789,0.2770975112915039
0.3235553741455078,0.2770975112915039
0.3166528701782226,0.2672555923461914
0.3103889465332031,0.2672555923461914
0.3207195281982422,0.2774654388427734
0.3190395355224609,0.2774654388427734
0.3130004882812500,0.2656934738159180
0.3200529098510742,0.2656934738159180
0.3231702804565429,0.2767124176025391
0.3130233764648437,0.2767124176025391
0.3136230468750000,0.2737100601196289
0.3228183746337890,0.2737100601196289
0.3159341812133789,0.2659011840820312
0.3090551376342773,0.2659011840820312
0.3197742462158203,0.2740465164184570
0.3169721603393554,0.2740465164184570
0.3086500167846680,0.2612909317016601
0.3146718978881836,0.2612909317016601
0.3159954071044922,0.2607873916625976
0.3036043167114258,0.2607873916625976
0.3021944046020508,0.2547832489013672
0.3098442077636719,0.2547832489013672
0.3026258468627930,0.2428459167480469
0.2944942474365234,0.2428459167480469
0.3041141510009766,0.2517173767089844
0.3019105911254883,0.2517173767089844
0.2939970016479492,0.2350238800048828
0.3010391235351562,0.2350238800048828
0.3041021347045899,0.2423595428466797
0.2935993194580078,0.2423595428466797
0.2951042175292969,0.2429340362548828
0.3045753479003906,0.2429340362548828
0.2981294631958007,0.2396856307983398
0.2923725128173828,0.2396856307983398
0.3033124923706055,0.2481994628906250
0.3020799636840820,0.2481994628906250
0.2949422836303711,0.2378786087036133
0.3030086517333984,0.2378786087036133
0.3076103210449219,0.2479660034179687
0.2975738525390625,0.2479660034179687
0.2989969253540039,0.2531473159790039
0.3095472335815430,0.2531473159790039
0.3034240722656250,0.2455770492553711
0.2977037429809570,0.2455770492553711
0.3090906143188477,0.2577981948852539
0.3082260131835937,0.2577981948852539
0.3021371841430664,0.2479837417602539
0.3100118637084961,0.2479837417602539
0.3135017395019531,0.2609304428100586
0.3040832519531250,0.2609304428100586
0.3051887512207031,0.2602392196655273
0.3154180526733398,0.2602392196655273
0.3089183807373047,0.2552232742309570
0.3030017852783203,0.2552232742309570
0.3151697158813476,0.2667240142822265
0.3136465072631836,0.2667240142822265
0.3130050659179687,0.2589031219482422
0.3179277420043945,0.2647716522216797
0.3079330444335938,0.2647716522216797
0.3087913513183594,0.2657455444335937
0.3185520172119141,0.2657455444335937
0.3125495910644531,0.2594604492187500
0.3061162948608399,0.2594604492187500
0.3167970657348633,0.2726320266723632
0.3154855728149414,0.2726320266723632
0.3080749511718750,0.2577878952026367
0.3154123306274414,0.2577878952026367
0.3180782318115234,0.2657037734985351
0.3077013015747070,0.2657037734985351
0.3092124938964844,0.2658874511718750
0.3184804916381836,0.2658874511718750
0.3118532180786133,0.2619009017944336
0.3056190490722656,0.2619009017944336
0.3160915374755859,0.2685762405395508
0.3144464492797852,0.2685762405395508
0.3071668624877930,0.2564472198486328
0.3143880844116211,0.2564472198486328
0.3180690765380859,0.2645862579345703
0.3075942993164062,0.2645862579345703
0.3082214355468750,0.2678237915039062
0.3181863784790039,0.2678237915039062
0.3114824295043945,0.2583972930908203
0.3051052093505859,0.2583972930908203
0.3154415130615234,0.2686506271362304
0.3140012741088867,0.2686506271362304
0.3079530715942383,0.2572448730468750
0.3150621414184570,0.2572448730468750
0.3183174133300781,0.2687267303466797
0.3085229873657226,0.2687267303466797
0.3091461181640625,0.2665792465209961
0.3190338134765625,0.2665792465209961
0.3126491546630859,0.2604789733886719
0.3063343048095703,0.2604789733886719
0.3177692413330078,0.2711351394653320
0.3163227081298828,0.2711351394653320
0.3089796066284179,0.2626853942871094
0.3167461395263672,0.2626853942871094
0.3198898315429687,0.2682998657226562
0.3097549438476562,0.2682998657226562
0.3101303100585938,0.2691095352172851
0.3200368881225586,0.2691095352172851
0.3146295547485352,0.2630533218383789
0.3079828262329101,0.2630533218383789
0.3189033508300781,0.2765235900878906
0.3178001403808594,0.2765235900878906
0.3104930877685547,0.2620439529418945
0.3178133010864257,0.2620439529418945
0.3211566925048828,0.2705446243286133
0.3110218048095703,0.2705446243286133
0.3122880935668945,0.2713010787963867
0.3219858169555664,0.2713010787963867
0.3154958724975586,0.2680692672729492
0.3094116210937500,0.2680692672729492
0.3199762344360351,0.2753442764282226
0.3186000823974609,0.2753442764282226
0.3110052108764648,0.2638298034667969
0.3182458877563477,0.2638298034667969
0.3226198196411132,0.2722984313964844
0.3120643615722656,0.2722984313964844
0.3128082275390625,0.2757659912109375
0.3229150772094727,0.2757659912109375
0.3163936614990234,0.2663812637329102
0.3098007202148437,0.2663812637329102
0.3206302642822266,0.2765378952026367
0.3192638397216797,0.2765378952026367
0.3126028060913086,0.2649730682373047
0.3197284698486328,0.2649730682373047
0.3228046417236328,0.2763015747070313
0.3129455566406250,0.2763015747070313
0.3133323669433594,0.2735647201538086
0.3232475280761719,0.2735647201538086
0.3162603378295898,0.2672166824340820
0.3098173141479492,0.2672166824340820
0.3215755462646484,0.2774385452270507
0.3198028564453125,0.2774385452270507
0.3125581741333008,0.2687461853027344
0.3200752258300781,0.2687461853027344
0.3231651306152344,0.2738462448120117
0.3130743026733399,0.2738462448120117
0.3136465072631836,0.2741867065429687
0.3234386444091797,0.2741867065429687
0.3175386428833007,0.2678152084350586
0.3107975006103516,0.2678152084350586
0.3213764190673828,0.2808660507202148
0.3202497482299805,0.2808660507202148
0.3126153945922852,0.2656597137451172
0.3197341918945312,0.2656597137451172
0.3223920822143554,0.2733386993408203
0.3118623733520507,0.2733386993408203
0.3129346847534180,0.2722417831420899
0.3216522216796875,0.2722417831420899
0.3077087402343750,0.2661043167114258
0.3077087402343750,0.2651865005493164
0.3163261413574219,0.2684926986694336
0.3131961822509766,0.2684926986694336
0.3040815353393554,0.2505151748657227
0.3091094970703125,0.2505151748657227
0.3111099243164062,0.2527496337890625
0.2991891860961914,0.2527496337890625
0.2981540679931641,0.2507577896118164
0.3068429946899414,0.2507577896118164
0.2994409561157226,0.2382534027099609
0.2922037124633789,0.2382534027099609
0.3020999908447266,0.2468410491943359
0.3005252838134765,0.2468410491943359
0.2940198898315430,0.2347389221191406
0.3009475708007812,0.2347389221191406
0.3044694900512695,0.2460313796997070
0.2947797775268555,0.2460313796997070
0.2953662872314453,0.2442461013793945
0.3056419372558594,0.2442461013793945
0.2996252059936523,0.2392358779907227
0.2935661315917968,0.2392358779907227
0.3052001953125000,0.2509677886962891
0.3043630599975586,0.2509677886962891
0.2973741531372070,0.2438604354858398
0.3054370880126953,0.2438604354858398
0.3092250823974609,0.2512767791748047
0.2997591018676758,0.2512767791748047
0.3003633499145508,0.2534843444824219
0.3109245300292969,0.2534843444824219
0.3060785293579101,0.2491670608520508
0.2998420715332031,0.2491670608520508
0.3110807418823242,0.2639282226562500
0.3107769012451172,0.2639282226562500
0.3037748336791992,0.2511028289794922
0.3114166259765625,0.2511028289794922
0.3152423858642578,0.2609636306762695
0.3056802749633789,0.2609636306762695
0.3069969177246094,0.2627883911132812
0.3171586990356445,0.2627883911132812
0.3110549926757812,0.2605041503906250
0.3051395416259766,0.2605041503906250
0.3157676696777343,0.2683439254760742
0.3147651672363281,0.2683439254760742
0.3071702957153320,0.2571968078613281
0.3144887924194336,0.2571968078613281
0.3188644409179687,0.2660379409790039
0.3085029602050781,0.2660379409790039
0.3090911865234375,0.2692789077758789
0.3193084716796875,0.2692789077758789
0.3128288269042969,0.2600275039672851
0.3061511993408203,0.2600275039672851
0.3166992187500000,0.2698797225952148
0.3154169082641601,0.2698797225952148
0.3084651947021484,0.2578714370727539
0.3152709960937500,0.2578714370727539
0.3185462951660156,0.2687582015991211
0.3085756301879883,0.2687582015991211
0.3085086822509766,0.2655349731445312
0.3184078216552734,0.2655349731445312
0.3115648269653320,0.2588813781738281
0.3047681808471679,0.2588813781738281
0.3162305831909180,0.2686197280883789
0.3146341323852539,0.2686197280883789
0.3073162078857422,0.2596578598022461
0.3145957946777344,0.2596578598022461
0.3178173065185547,0.2650011062622070
0.3078454971313476,0.2650011062622070
0.3082036972045898,0.2651824951171875
0.3182613372802734,0.2651824951171875
0.3125215530395508,0.2592309951782226
0.3057569503784179,0.2592309951782226
0.3164022445678711,0.2724672317504883
0.3155765533447266,0.2724672317504883
0.3081207275390625,0.2581163406372070
0.3152750015258789,0.2581163406372070
0.3184003829956055,0.2668653488159179
0.3085126876831055,0.2668653488159179
0.3098808288574219,0.2674982070922852
0.3196815490722656,0.2674982070922852
0.3136127471923828,0.2646034240722656
0.3073036193847656,0.2646034240722656
0.3178087234497070,0.2718898773193359
0.3169057846069336,0.2718898773193359
0.3095323562622070,0.2605962753295898
0.3166231155395507,0.2605962753295898
0.3208522796630859,0.2694602966308594
0.3107191085815429,0.2694602966308594
0.3109794616699219,0.2728866577148437
0.3214296340942382,0.2728866577148437
0.3150163650512695,0.2639007568359375
0.3084074020385742,0.2639007568359375
0.3186510086059570,0.2742490768432617
0.3177354812622070,0.2742490768432617
0.3113227844238281,0.2628742218017578
0.3180799484252930,0.2628742218017578
0.3216384887695312,0.2745025634765625
0.3119064331054687,0.2745025634765625
0.3120134353637695,0.2716947555541992
0.3222753524780274,0.2716947555541992
0.3160320281982422,0.2656459808349609
0.3093074798583984,0.2656459808349609
0.3205947875976562,0.2760669708251953
0.3194332122802734,0.2760669708251953
0.3117931365966797,0.2674037933349609
0.3191734313964844,0.2674037933349609
0.3224401473999023,0.2728700637817383
0.3125009536743164,0.2728700637817383
0.3121908187866211,0.2730388641357422
0.3224384307861328,0.2730388641357422
0.3172313690185547,0.2670072555541992
0.3101617813110352,0.2670072555541992
0.3208305358886719,0.2801090240478515
0.3201210021972656,0.2801090240478515
0.3124168395996094,0.2653850555419922
0.3194034576416016,0.2653850555419922
0.3229774475097656,0.2737747192382812
0.3129100799560547,0.2737747192382812
0.3136081695556641,0.2739360809326172
0.3237419128417969,0.2739360809326172
0.3173532485961914,0.2707557678222656
0.3106950759887695,0.2707557678222656
0.3212156295776367,0.2776393890380859
0.3202457427978516,0.2776393890380859
0.3121953964233398,0.2658330917358399
0.3191934585571289,0.2658330917358399
0.3236595153808594,0.2743978500366211
0.3133283615112304,0.2743978500366211
0.3134948730468750,0.2774185180664062
0.3239187240600586,0.2774185180664062
0.3175294876098633,0.2679370880126953
0.3105749130249023,0.2679370880126953
0.3210605621337890,0.2775295257568359
0.3198869705200195,0.2775295257568359
0.3125232696533203,0.2649415969848632
0.3188570022583008,0.2649415969848632
0.3216808319091797,0.2742662429809570
0.3110372543334961,0.2742662429809570
0.3098957061767578,0.2676572799682617
0.3186372756958007,0.2676572799682617
0.3103368759155273,0.2560684204101563
0.3015031814575195,0.2560684204101563
0.3112272262573242,0.2595748901367188
0.3079593658447266,0.2595748901367188
0.2988824844360352,0.2450054168701172
0.3044185638427734,0.2450054168701172
0.3065757751464844,0.2463558197021484
0.2956037521362305,0.2463558197021484
0.2949983596801758,0.2438432693481445
0.3048620223999023,0.2438432693481445
0.2988613128662109,0.2367450714111328
0.2917482376098633,0.2367450714111328
0.3022539138793945,0.2493890762329102
0.3017074584960938,0.2493890762329102
0.2940313339233399,0.2353517532348633
0.3012771606445312,0.2353517532348633
0.3048334121704102,0.2449092864990234
0.2953067779541015,0.2449092864990234
0.2965919494628906,0.2463232040405273
0.3071771621704101,0.2463232040405273
0.3015878677368164,0.2447547912597656
0.2955356597900390,0.2447547912597656
0.3065826416015625,0.2537933349609375
0.3063022613525391,0.2537933349609375
0.2992132186889648,0.2439794540405273
0.3067417144775391,0.2439794540405273
0.3114715576171875,0.2545566558837891
0.3019449234008789,0.2545566558837891
0.3023672103881836,0.2591863632202148
0.3136865615844727,0.2591863632202148
0.3078186035156250,0.2520921707153320
0.3014757156372070,0.2520921707153320
0.3122348785400391,0.2637714385986328
0.3119756698608399,0.2637714385986328
0.3057495117187500,0.2536703109741211
0.3127544403076172,0.2536703109741211
0.3167942047119141,0.2664899826049805
0.3074644088745117,0.2664899826049805
0.3076086044311523,0.2643962860107422
0.3183111190795898,0.2643962860107422
0.3122365951538086,0.2589878082275390
0.3054542541503906,0.2589878082275390
0.3167295455932617,0.2695730209350586
0.3158866882324219,0.2695730209350586
0.3081172943115234,0.2609642028808594
0.3153499603271484,0.2609642028808594
0.3188678741455078,0.2665872573852539
0.3089715957641602,0.2665872573852539
0.3083839416503906,0.2663881301879883
0.3187065124511719,0.2663881301879883
0.3134227752685547,0.2601991653442383
0.3060384750366211,0.2601991653442383
0.3166294097900391,0.2726657867431641
0.3158975601196289,0.2726657867431641
0.3079170227050781,0.2575160980224609
0.3146301269531250,0.2575160980224609
0.3181165695190429,0.2656488418579102
0.3080188751220703,0.2656488418579102
0.3083873748779297,0.2651762008666992
0.3185972213745117,0.2651762008666992
0.3122692108154297,0.2617286682128906
0.3053987503051758,0.2617286682128906
0.3158077239990234,0.2686981201171875
0.3149957656860352,0.2686981201171875
0.3067657470703125,0.2568042755126953
0.3136608123779297,0.2568042755126953
0.3184123992919922,0.2656225204467773
0.3082065582275391,0.2656225204467773
0.3082036972045898,0.2686632156372070
0.3191413879394531,0.2686632156372070
0.3128356933593750,0.2599617004394531
0.3059623718261719,0.2599617004394531
0.3166116714477539,0.2701761245727539
0.3160154342651367,0.2701761245727539
0.3089595794677734,0.2589403152465820
0.3157201766967773,0.2589403152465820
0.3194246292114258,0.2708713531494141
0.3098934173583984,0.2708713531494141
0.3095094680786133,0.2680131912231445
0.3202852249145507,0.2680131912231445
0.3138404846191406,0.2624988555908203
0.3069414138793945,0.2624988555908203
0.3186252593994141,0.2728689193725586
0.3176874160766601,0.2728689193725586
0.3100439071655273,0.2643968582153320
0.3172433853149414,0.2643968582153320
0.3208774566650390,0.2703729629516601
0.3110258102416992,0.2703729629516601
0.3110052108764648,0.2704473495483398
0.3216196060180664,0.2704473495483398
0.3160680770874023,0.2648099899291992
0.3089544296264649,0.2648099899291992
0.3195350646972656,0.2780141830444336
0.3191917419433594,0.2780141830444336
0.3113096237182617,0.2634189605712891
0.3181268692016602,0.2634189605712891
0.3214839935302734,0.2722669601440429
0.3116443634033203,0.2722669601440429
0.3124231338500976,0.2723035812377930
0.3227851867675781,0.2723035812377930
0.3167095184326172,0.2694522857666016
0.3099809646606445,0.2694522857666016
0.3204700469970703,0.2765001296997070
0.3197828292846679,0.2765001296997070
0.3119859695434570,0.2647813796997070
0.3187889099121093,0.2647813796997070
0.3231685638427734,0.2735921859741211
0.3131710052490234,0.2735921859741211
0.3127201080322266,0.2764377593994141
0.3236223220825195,0.2764377593994141
0.3173635482788086,0.2674312591552734
0.3102115631103515,0.2674312591552734
0.3204259872436523,0.2773189544677734
0.3198789596557617,0.2773189544677734
0.3130468368530273,0.2657861709594727
0.3193479537963867,0.2657861709594727
0.3232286453247070,0.2773618698120117
0.3136470794677734,0.2773618698120117
0.3131223678588867,0.2739933013916016
0.3237167358398437,0.2739933013916016
0.3176742553710937,0.2679605484008789
0.3105062484741211,0.2679605484008789
0.3215921401977539,0.2779232025146484
0.3208253860473633,0.2779232025146484
0.3128288269042969,0.2690826416015625
0.3197158813476562,0.2690826416015625
0.3232915878295898,0.2744665145874023
0.3133152008056641,0.2744665145874023
0.3123762130737305,0.2735555648803711
0.3226753234863281,0.2735555648803711
0.3172719955444336,0.2665197372436524
0.3091798782348633,0.2665197372436524
0.3190475463867187,0.2769899368286133
0.3178270339965820,0.2769899368286133
0.3086328506469727,0.2581163406372070
0.3135360717773437,0.2581163406372070
0.3156509399414062,0.2607902526855468
0.3036712646484375,0.2607902526855468
0.3019712448120117,0.2541332244873047
0.3106887817382812,0.2541332244873047
0.3030984878540039,0.2456863403320312
0.2945989608764648,0.2456863403320312
0.3039327621459961,0.2490005493164062
0.3025794982910156,0.2490005493164062
0.2937143325805664,0.2353540420532226
0.3000406265258789,0.2353540420532226
0.3046731948852539,0.2433729171752930
0.2944473266601562,0.2433729171752930
0.2942653656005859,0.2458019256591797
0.3053232192993164,0.2458019256591797
0.2993528366088867,0.2378173828125000
0.2925367355346680,0.2378173828125000
0.3034481048583984,0.2487871170043945
0.3033073425292969,0.2487871170043945
0.2963270187377929,0.2387020111083984
0.3034337997436523,0.2387020111083984
0.3077247619628906,0.2519062042236328
0.2987680435180664,0.2519062042236328
0.2987045288085937,0.2506725311279297
0.3101291656494141,0.2506725311279297
0.2986267089843750,0.2511205673217773
0.2986267089843750,0.2494852066040039
0.3106595993041992,0.2525602340698242
0.3015724182128906,0.2525602340698242
0.3081041336059570,0.2612297058105469
0.3081041336059570,0.2612297058105469
0.3046846389770508,0.2529865264892578
0.3046846389770508,0.2529865264892578
0.3155433654785156,0.2648603439331055
0.3155433654785156,0.2648603439331055
0.3046543121337891,0.2588562011718750
0.3046543121337891,0.2588562011718750
0.3161853790283203,0.2610506057739257
0.3161853790283203,0.2610506057739257
0.3110555648803711,0.2679342269897461
0.3165464401245117,0.2679342269897461
0.3100250244140625,0.2590003967285156
0.3100250244140625,0.2590003967285156
0.3186841964721679,0.2697727203369141
0.3122337341308594,0.2697727203369141
0.3070323944091797,0.2626813888549804
0.3070323944091797,0.2626813888549804
0.3160366058349609,0.2631265640258789
0.3160366058349609,0.2631265640258789
0.3134181976318359,0.2693155288696289
0.3134181976318359,0.2693155288696289
0.3105125427246094,0.2596183776855469
0.3105125427246094,0.2596183776855469
0.3186887741088867,0.2695907592773437
0.3186887741088867,0.2695907592773437
0.3046422958374023,0.2611450195312500
0.3046422958374023,0.2611450195312500
0.3165859222412109,0.2618036270141602
0.3165859222412109,0.2618036270141602
0.3124351501464844,0.2681007385253906
0.3124351501464844,0.2681007385253906
0.3097183227539063,0.2588270187377930
0.3097183227539063,0.2588270187377930
0.3164319992065430,0.2683679580688477
0.3164319992065430,0.2683679580688477
0.3059503555297852,0.2609132766723632
0.3059503555297852,0.2609132766723632
0.3169984817504883,0.2623031616210937
0.3169984817504883,0.2623031616210937
0.3130914688110352,0.2691627502441406
0.3130914688110352,0.2691627502441406
0.3088760375976562,0.2596612930297851
0.3088760375976562,0.2596612930297851
0.3189393997192383,0.2703123092651367
0.3189393997192383,0.2703123092651367
0.3071983337402344,0.2633045196533203
0.3071983337402344,0.2633045196533203
0.3184049606323242,0.2651018142700195
0.3184049606323242,0.2651018142700195
0.3128087997436523,0.2713016510009765
0.3128087997436523,0.2713016510009765
0.3119087219238281,0.2622201919555664
0.3119087219238281,0.2622201919555664
0.3206108093261719,0.2730817794799805
0.3206108093261719,0.2730817794799805
0.3089847564697266,0.2659418106079102
0.3089847564697266,0.2659418106079102
0.3181503295898437,0.2669094085693359
0.3181503295898437,0.2669094085693359
0.3155914306640625,0.2736528396606445
0.3155914306640625,0.2736528396606445
0.3132797241210937,0.2647459030151367
0.3132797241210937,0.2647459030151367
0.3219829559326172,0.2755691528320313
0.3219829559326172,0.2755691528320313
0.3083576202392578,0.2675468444824219
0.3083576202392578,0.2675468444824219
0.3207590103149414,0.2688091278076172
0.3207590103149414,0.2688091278076172
0.3168897628784180,0.2755674362182617
0.3168897628784180,0.2755674362182617
0.3144275665283203,0.2663652420043945
0.3144275665283203,0.2663652420043945
0.3210313796997070,0.2763347625732422
0.3210313796997070,0.2763347625732422
0.3104965209960938,0.2688102722167969
0.3104965209960938,0.2688102722167969
0.3215217590332031,0.2700731277465820
0.3215217590332031,0.2700731277465820
0.3175191879272461,0.2768646240234375
0.3175191879272461,0.2768646240234375
0.3132127761840820,0.2669958114624023
0.3132127761840820,0.2669958114624023
0.3230792999267578,0.2771793365478515
0.3230792999267578,0.2771793365478515
0.3112672805786132,0.2696880340576172
0.3112672805786132,0.2696880340576172
0.3221431732177734,0.2710023880004883
0.3221431732177734,0.2710023880004883
0.3159994125366211,0.2768692016601562
0.3159994125366211,0.2768692016601562
0.3150426864624024,0.2673837661743164
0.3150426864624024,0.2673837661743164
0.3232967376708984,0.2777664184570313
0.3232967376708984,0.2777664184570313
0.3114629745483398,0.2702648162841797
0.3114629745483398,0.2702648162841797
0.3201616287231445,0.2701847076416016
0.3201616287231445,0.2701847076416016
0.3167037963867188,0.2752830505371094
0.3167037963867188,0.2752830505371094
0.3130159378051758,0.2635299682617188
0.3130159378051758,0.2635299682617188
0.3190526962280273,0.2693950653076172
0.3190526962280273,0.2693950653076172
0.3016645431518555,0.2551408767700195
0.3016645431518555,0.2551408767700195
0.3098590850830078,0.2497095108032227
0.3098590850830078,0.2497095108032227
0.3021554946899414,0.2507434844970703
0.3021554946899414,0.2507434844970703
0.2974462509155273,0.2380319595336914
0.2974462509155273,0.2380319595336914
0.3027631759643555,0.2459260940551758
0.3027631759643555,0.2459260940551758
0.2917304992675781,0.2375026702880859
0.2917304992675781,0.2375026702880859
0.3027357101440429,0.2389326095581055
0.3027357101440429,0.2389326095581055
0.2988201141357422,0.2461303710937500
0.2988201141357422,0.2461303710937500
0.2954126358032226,0.2375026702880859
0.2946710586547852,0.2375026702880859
0.3059949874877930,0.2492511749267578
0.3059949874877930,0.2492511749267578
0.2951276779174805,0.2434621810913086
0.2951276779174805,0.2434621810913086
0.3074209213256836,0.2469503402709961
0.3074209213256836,0.2469503402709961
0.3024959564208984,0.2545652389526367
0.3024959564208984,0.2545652389526367
0.3026401519775391,0.2471242904663086
0.3026401519775391,0.2471242904663086
0.3123126983642578,0.2594415664672852
0.3123126983642578,0.2594415664672852
0.3014888763427734,0.2537710189819336
0.3014888763427734,0.2537710189819336
0.3118291854858398,0.2562835693359375
0.3118291854858398,0.2562835693359375
0.3098224639892578,0.2642263412475586
0.3098224639892578,0.2642263412475586
0.3083267211914062,0.2563156127929687
0.3083267211914062,0.2563156127929687
0.3175815582275390,0.2679450988769531
0.3175815582275390,0.2679450988769531
0.3043018341064453,0.2603507995605469
0.3043018341064453,0.2603507995605469
0.3170591354370117,0.2620651245117188
0.3170591354370117,0.2620651245117188
0.3129312515258789,0.2688400268554688
0.3129312515258789,0.2688400268554688
0.3107076644897461,0.2597494125366211
0.3107076644897461,0.2597494125366211
0.3171260833740234,0.2693773269653320
0.3171260833740234,0.2693773269653320
0.3065568923950195,0.2612766265869140
0.3065568923950195,0.2612766265869140
0.3171295166015625,0.2623552322387695
0.3171295166015625,0.2623552322387695
0.3125484466552734,0.2685384750366211
0.3125484466552734,0.2685384750366211
0.3082454681396484,0.2580860137939453
0.3082454681396484,0.2580860137939453
0.3176799774169922,0.2679468154907226
0.3176799774169922,0.2679468154907226
0.3057741165161132,0.2600652694702149
0.3057741165161132,0.2600652694702149
0.3166820526123047,0.2613933563232422
0.3166820526123047,0.2613933563232422
0.3102521896362305,0.2672784805297851
0.3102521896362305,0.2672784805297851
0.3095277786254882,0.2580024719238281
0.3095277786254882,0.2580024719238281
0.3179517745971679,0.2687868118286132
0.3118583679199219,0.2687868118286132
0.3065076828002929,0.2616445541381836
0.3065076828002929,0.2616445541381836
0.3158403396606445,0.2627277374267578
0.3158403396606445,0.2627277374267578
0.3129661560058594,0.2694236755371094
0.3129661560058594,0.2694236755371094
0.3111625671386719,0.2607084274291992
0.3111625671386719,0.2607084274291992
0.3197090148925781,0.2715339660644531
0.3197090148925781,0.2715339660644531
0.3063508987426758,0.2637039184570312
0.3063508987426758,0.2637039184570312
0.3189622879028320,0.2654010772705078
0.3189622879028320,0.2654010772705078
0.3145122528076172,0.2723648071289063
0.3145122528076172,0.2723648071289063
0.3128602981567383,0.2635694503784179
0.3128602981567383,0.2635694503784179
0.3194990158081055,0.2736001968383789
0.3194990158081055,0.2736001968383789
0.3092170715332031,0.2659881591796875
0.3092170715332031,0.2659881591796875
0.3205347061157227,0.2679153442382812
0.3205347061157227,0.2679153442382812
0.3160303115844726,0.2745403289794922
0.3160303115844726,0.2745403289794922
0.3122966766357422,0.2649627685546875
0.3122966766357422,0.2649627685546875
0.3220018386840820,0.2753740310668945
0.3220018386840820,0.2753740310668945
0.3102235794067383,0.2680263519287109
0.3102235794067383,0.2680263519287109
0.3215475082397461,0.2697624206542968
0.3215475082397461,0.2697624206542968
0.3150901794433594,0.2754919052124024
0.3150901794433594,0.2754919052124024
0.3144962310791016,0.2661380767822266
0.3144962310791016,0.2661380767822266
0.3229482650756836,0.2767610549926758
0.3229482650756836,0.2767610549926758
0.3111539840698242,0.2691255569458008
0.3227108001708984,0.2691255569458008
0.3203561782836914,0.2701177597045898
0.3203561782836914,0.2701177597045898
0.3170122146606445,0.2763833999633789
0.3170122146606445,0.2763833999633789
0.3150020599365234,0.2671451568603516
0.3150020599365234,0.2671451568603516
0.3234014511108398,0.2777687072753906
0.3234014511108398,0.2777687072753906
0.3096771240234375,0.2693435668945313
0.3096771240234375,0.2693435668945313
0.3220750808715820,0.2706115722656250
0.3220750808715820,0.2706115722656250
0.3174579620361328,0.2770019531250000
0.3174579620361328,0.2770019531250000
0.3152595520019531,0.2673660278320312
0.3152595520019531,0.2673660278320312
0.3212659835815430,0.2764554977416992
0.3212659835815430,0.2764554977416992
0.3098459243774414,0.2669002532958984
0.3098459243774414,0.2669002532958984
0.3191888809204101,0.2654365539550781
0.3191888809204101,0.2654365539550781
0.3117845535278320,0.2667961120605469
0.3117845535278320,0.2667961120605469
0.3040214538574219,0.2501243591308593
0.3003971099853516,0.2501243591308593
0.3096542358398438,0.2540536880493164
0.3096542358398438,0.2540536880493164
0.2947437286376953,0.2414056777954101
0.2947437286376953,0.2414056777954101
0.3038280487060547,0.2400363922119141
0.3038280487060547,0.2400363922119141
0.2963607788085937,0.2443817138671875
0.2963607788085937,0.2443817138671875
0.2952318191528320,0.2343927383422851
0.2952318191528320,0.2343927383422851
0.3035356521606445,0.2452669143676758
0.3035356521606445,0.2452669143676758
0.2923593521118164,0.2386087417602539
0.2923593521118164,0.2386087417602539
0.3025257110595703,0.2406240463256836
0.3025257110595703,0.2406240463256836
0.2998672485351562,0.2483522415161133
0.2998672485351562,0.2483522415161133
0.2991268157958984,0.2410137176513672
0.2991268157958984,0.2410137176513672
0.3085538864135742,0.2533521652221680
0.3085538864135742,0.2533521652221680
0.2961318969726562,0.2470012664794922
0.2961318969726562,0.2470012664794922
0.3097063064575195,0.2501689910888672
0.3097063064575195,0.2501689910888672
0.3060430526733398,0.2584934234619141
0.3060430526733398,0.2584934234619141
0.3053398132324219,0.2514204025268554
0.3053398132324219,0.2514204025268554
0.3129438400268554,0.2628381729125976
0.3129438400268554,0.2628381729125976
0.3034658432006836,0.2565204620361328
0.3034658432006836,0.2565204620361328
0.3155010223388672,0.2593992233276367
0.3155010223388672,0.2593992233276367
0.3113588333129882,0.2667818069458008
0.3113588333129882,0.2667818069458008
0.3081247329711914,0.2576265335083008
0.3081247329711914,0.2576265335083008
0.3179706573486328,0.2683198928833008
0.3179706573486328,0.2683198928833008
0.3062845230102539,0.2609292984008789
0.3062845230102539,0.2609292984008789
0.3175603866577149,0.2626424789428711
0.3175603866577149,0.2626424789428711
0.3107843399047852,0.2679943084716797
0.3107843399047852,0.2679943084716797
0.3100358963012695,0.2581861495971680
0.3100358963012695,0.2581861495971680
0.3180347442626953,0.2683313369750976
0.3180347442626953,0.2683313369750976
0.3152458190917969,0.2679313659667968
0.3153327941894531,0.2679313659667968
0.3062261581420898,0.2557851791381836
0.3121553421020508,0.2557851791381836
0.3174768447875976,0.2644042968750000
0.3076229095458984,0.2644042968750000
0.3062536239624024,0.2662548065185547
0.3179855346679688,0.2662548065185547
0.3122989654541016,0.2578456878662109
0.3047201156616211,0.2578456878662109
0.3148801803588867,0.2677717208862305
0.3152469635009765,0.2677717208862305
0.3073934555053711,0.2563190460205078
0.3133460998535156,0.2563190460205078
0.3179746627807617,0.2684709548950195
0.3088434219360351,0.2684709548950195
0.3072469711303711,0.2652500152587891
0.3189228057861328,0.2652500152587891
0.3130926132202148,0.2601242065429688
0.3055973052978516,0.2601242065429688
0.3168342590332031,0.2703729629516601
0.3169269561767578,0.2703729629516601
0.3087444305419922,0.2619873046875000
0.3150632858276367,0.2619873046875000
0.3195413589477539,0.2683897018432617
0.3102046966552734,0.2683897018432617
0.3089103698730469,0.2679262161254883
0.3204826354980468,0.2679262161254883
0.3155370712280273,0.2629606246948242
0.3078678131103516,0.2629606246948242
0.3180381774902344,0.2758832931518554
0.3187963485717774,0.2758832931518554
0.3101909637451172,0.2615444183349609
0.3162300109863281,0.2615444183349609
0.3204992294311523,0.2707872390747070
0.3111024856567383,0.2707872390747070
0.3106601715087891,0.2703014373779297
0.3219612121582031,0.2703014373779297
0.3165510177612305,0.2680097579956054
0.3092628479003906,0.2680097579956054
0.3193119049072266,0.2750358581542969
0.3197021484375000,0.2750358581542969
0.3112506866455078,0.2634876251220703
0.3172479629516601,0.2634876251220703
0.3223606109619140,0.2726388931274414
0.3127395629882813,0.2726388931274414
0.3112415313720703,0.2748510360717774
0.3231536865234375,0.2748510360717774
0.3175025939941406,0.2664979934692382
0.3098270416259766,0.2664979934692382
0.3195522308349609,0.2763370513916015
0.3199310302734375,0.2763370513916015
0.3123001098632812,0.2647676467895508
0.3180227279663086,0.2647676467895508
0.3227268218994140,0.2767301559448242
0.3134565353393555,0.2767301559448242
0.3118434906005859,0.2728763580322265
0.3234100341796875,0.2728763580322265
0.3179117202758789,0.2673563003540039
0.3102115631103515,0.2673563003540039
0.3208826065063476,0.2771221160888672
0.3210966110229492,0.2771221160888672
0.3124122619628906,0.2684972763061523
0.3186058044433593,0.2684972763061523
0.3230867385864258,0.2742879867553711
0.3135326385498047,0.2742879867553711
0.3115722656250000,0.2733615875244140
0.3230850219726563,0.2733615875244140
0.3185754776000976,0.2678209304809570
0.3105102539062500,0.2678209304809570
0.3206817626953125,0.2803316116333008
0.3212385177612305,0.2803316116333008
0.3122978210449219,0.2650972366333008
0.3179706573486328,0.2650972366333008
0.3222518920898437,0.2728660583496094
0.3121501922607422,0.2728660583496094
0.3105257034301758,0.2698122024536133
0.3209569931030273,0.2698122024536133
0.3142559051513672,0.2632553100585938
0.3050880432128906,0.2632553100585938
0.3133232116699219,0.2638778686523438
0.3114801406860351,0.2638778686523438
0.3006757736206054,0.2455152511596680
0.3045627593994141,0.2455152511596680
0.3084617614746094,0.2487785339355469
0.2970634460449219,0.2487785339355469
0.2945657730102539,0.2466470718383789
0.3053804397583008,0.2466470718383789
0.2992715835571289,0.2361614227294922
0.2910673141479492,0.2361614227294922
0.3009017944335937,0.2447788238525390
0.3011964797973632,0.2447788238525390
0.2930505752563476,0.2330520629882812
0.2989471435546875,0.2330520629882812
0.3035694122314453,0.2451192855834961
0.2946590423583984,0.2451192855834961
0.2933269500732422,0.2424247741699219
0.3051881790161133,0.2424247741699219
0.2998243331909179,0.2382408142089844
0.2925355911254883,0.2382408142089844
0.3039356231689453,0.2496162414550781
0.3047046661376953,0.2496162414550781
0.2967493057250977,0.2424779891967773
0.3034898757934570,0.2424779891967773
0.3085727691650391,0.2504356384277344
0.2996789932250977,0.2504356384277344
0.2986839294433594,0.2513929367065429
0.3109062194824219,0.2513929367065429
0.3064115524291992,0.2479757308959961
0.2991863250732422,0.2479757308959961
0.3097869873046875,0.2621864318847656
0.3110670089721679,0.2621864318847656
0.3028707504272461,0.2496900558471680
0.3093595504760742,0.2496900558471680
0.3141448974609375,0.2604526519775390
0.3053295135498047,0.2604526519775390
0.3049421310424805,0.2611312866210938
0.3161705017089844,0.2611312866210938
0.3118589401245117,0.2598209381103516
0.3047487258911133,0.2598209381103516
0.3148206710815429,0.2674959182739258
0.3156314849853515,0.2674959182739258
0.3070976257324219,0.2563882827758789
0.3132110595703125,0.2563882827758789
0.3184398651123047,0.2657695770263672
0.3089166641235351,0.2657695770263672
0.3072841644287109,0.2678009033203125
0.3192169189453125,0.2678009033203125
0.3135200500488281,0.2593694686889648
0.3056900024414063,0.2593694686889648
0.3152406692504883,0.2687353134155273
0.3156246185302734,0.2687353134155273
0.3077178955078125,0.2567173004150390
0.3131544113159180,0.2567173004150390
0.3178562164306640,0.2680583953857422
0.3084337234497070,0.2680583953857422
0.3064905166625976,0.2637365341186523
0.3179191589355468,0.2637365341186523
0.3124065399169922,0.2577690124511718
0.3044511795043945,0.2577690124511718
0.3149585723876953,0.2671428680419922
0.3152647018432617,0.2671428680419922
0.3063274383544922,0.2580614089965820
0.3124271392822265,0.2580614089965820
0.3169933319091797,0.2640981674194336
0.3076057434082031,0.2640981674194336
0.3055549621582031,0.2632661819458008
0.3173349380493164,0.2632661819458008
0.3129112243652344,0.2581031799316406
0.3049026489257812,0.2581031799316406
0.3150375366210937,0.2708684921264649
0.3160818099975586,0.2708684921264649
0.3072933197021484,0.2567836761474609
0.3132368087768554,0.2567836761474609
0.3180685043334961,0.2661306381225586
0.3087570190429688,0.2661306381225586
0.3077527999877930,0.2657157897949219
0.3194852828979492,0.2657157897949219
0.3141471862792969,0.2636192321777344
0.3067548751831055,0.2636192321777344
0.3166929244995117,0.2708055496215820
0.3174625396728515,0.2708055496215820
0.3085086822509766,0.2595846176147461
0.3144435882568359,0.2595846176147461
0.3202697753906250,0.2690214157104492
0.3106601715087891,0.2690214157104492
0.3092113494873047,0.2714487075805664
0.3212877273559570,0.2714487075805664
0.3158105850219726,0.2635843276977539
0.3080989837646484,0.2635843276977539
0.3182287216186523,0.2734159469604492
0.3189645767211914,0.2734159469604492
0.3108736038208008,0.2622545242309570
0.3166625976562500,0.2622545242309570
0.3213495254516601,0.2743309020996094
0.3123327255249023,0.2743309020996094
0.3105852127075195,0.2707540512084961
0.3222301483154297,0.2707540512084961
0.3165876388549805,0.2655670166015625
0.3088394165039062,0.2655670166015625
0.3197736740112305,0.2753688812255859
0.3201272964477539,0.2753688812255859
0.3115791320800781,0.2668951034545898
0.3176542282104492,0.2668951034545898
0.3222255706787109,0.2729324340820312
0.3128053665161133,0.2729324340820312
0.3112083435058594,0.2720375061035156
0.3229145050048828,0.2720375061035156
0.3180971145629883,0.2667978286743164
0.3101217269897461,0.2667978286743164
0.3201175689697265,0.2794469833374023
0.3209953308105469,0.2794469833374023
0.3121690750122070,0.2647790908813477
0.3178934097290039,0.2647790908813477
0.3222169876098633,0.2737009048461914
0.3127733230590820,0.2737009048461914
0.3119905471801758,0.2728031158447266
0.3233882904052734,0.2728031158447266
0.3181285858154297,0.2703369140625000
0.3104873657226562,0.2703369140625000
0.3203430175781250,0.2768812179565430
0.3208620071411133,0.2768812179565430
0.3122611999511719,0.2650817871093750
0.3178327560424805,0.2650817871093750
0.3230861663818359,0.2738107681274414
0.3133838653564453,0.2738107681274414
0.3112689971923828,0.2749517440795898
0.3230020523071289,0.2749517440795898
0.3169458389282226,0.2650875091552734
0.3083564758300781,0.2650875091552734
0.3171804428100586,0.2719459533691406
0.3166168212890625,0.2719459533691406
0.3073276519775390,0.2555316925048828
0.3108770370483399,0.2555316925048828
0.3139612197875977,0.2609018325805664
0.3026710510253906,0.2609018325805664
0.2989648818969726,0.2508316040039062
0.3089807510375976,0.2508316040039062
0.3022716522216797,0.2403184890747070
0.2931587219238281,0.2403184890747070
0.3025749206542969,0.2469005584716797
0.3024936676025390,0.2469005584716797
0.2932216644287109,0.2362884521484375
0.2989408493041992,0.2362884521484375
0.3034360885620117,0.2418434143066406
0.2939357757568359,0.2418434143066406
0.2919296264648437,0.2410188674926758
0.3038618087768555,0.2410188674926758
0.2996091842651367,0.2363445281982422
0.2918718338012695,0.2363445281982422
0.3021640777587891,0.2497753143310547
0.3035848617553711,0.2497753143310547
0.2950447082519531,0.2368572235107422
0.3013618469238281,0.2368572235107422
0.3066467285156250,0.2475522994995117
0.2979217529296875,0.2475522994995117
0.2970903396606445,0.2485593795776367
0.3093750000000000,0.2485593795776367
0.3045227050781250,0.2478103637695312
0.2975824356079101,0.2478103637695312
0.3079725265502929,0.2566091537475586
0.3092359542846679,0.2566091537475586
0.3006940841674804,0.2468685150146484
0.3071193695068359,0.2468685150146484
0.3133861541748047,0.2579721450805664
0.3043785095214844,0.2579721450805664
0.3032106399536132,0.2616027832031250
0.3158082962036133,0.2616027832031250
0.3107305526733398,0.2551168441772461
0.3033697128295899,0.2551168441772461
0.3137540817260742,0.2659732818603516
0.3148012161254883,0.2659732818603516
0.3068819046020508,0.2554006576538086
0.3127212524414062,0.2554006576538086
0.3176479339599609,0.2678707122802734
0.3087415695190430,0.2678707122802734
0.3069082260131836,0.2644638061523437
0.3187585830688476,0.2644638061523437
0.3130416870117188,0.2592699050903320
0.3052116394042969,0.2592699050903320
0.3160915374755859,0.2689687728881836
0.3164302825927734,0.2689687728881836
0.3077722549438476,0.2599754333496094
0.3136344909667969,0.2599754333496094
0.3181634902954101,0.2656602859497070
0.3086402893066406,0.2656602859497070
0.3066661834716797,0.2642251968383789
0.3183317184448242,0.2642251968383789
0.3133008956909180,0.2585815429687500
0.3052768707275391,0.2585815429687500
0.3149585723876953,0.2705183029174805
0.3157945632934570,0.2705183029174805
0.3067422866821289,0.2556947708129882
0.3123332977294922,0.2556947708129882
0.3167701721191406,0.2642698287963867
0.3072950363159180,0.2642698287963867
0.3063388824462890,0.2633291244506836
0.3179334640502929,0.2633291244506836
0.3126966476440430,0.2609292984008789
0.3051561355590820,0.2609292984008789
0.3149082183837891,0.2678518295288086
0.3157178878784180,0.2678518295288086
0.3071239471435547,0.2564117431640625
0.3128511428833008,0.2564117431640625
0.3183443069458008,0.2658233642578125
0.3089263916015625,0.2658233642578125
0.3071205139160156,0.2680898666381836
0.3194206237792969,0.2680898666381836
0.3140058517456055,0.2603044509887695
0.3062873840332031,0.2603044509887695
0.3159284591674805,0.2703174591064453
0.3167667388916016,0.2703174591064453
0.3090871810913086,0.2591634750366211
0.3145414352416992,0.2591634750366211
0.3196792602539062,0.2715225219726562
0.3107145309448242,0.2715225219726562
0.3087272644042969,0.2679553985595703
0.3207944869995117,0.2679553985595703
0.3085212707519531,0.2641931533813476
0.3085212707519531,0.2641931533813476
0.3095294952392578,0.2665277481079101
0.3103219985961914,0.2665277481079101
0.3148040771484375,0.2729444503784180
0.3148040771484375,0.2729444503784180
0.3117399215698242,0.2635814666748047
0.3117399215698242,0.2635814666748047
0.3213169097900391,0.2740242004394531
0.3213169097900391,0.2740242004394531
0.3098012924194336,0.2665534973144531
0.3098012924194336,0.2665534973144531
0.3213689804077148,0.2688972473144531
0.3213689804077148,0.2688972473144531
0.3140316009521484,0.2742685317993164
0.3140316009521484,0.2742685317993164
0.3140384674072266,0.2648368835449219
0.3140384674072266,0.2648368835449219
0.3223800659179688,0.2757099151611328
0.3223800659179688,0.2757099151611328
0.3108535766601562,0.2679782867431640
0.3108535766601562,0.2679782867431640
0.3202445983886719,0.2692731857299804
0.3202445983886719,0.2692731857299804
0.3159856796264648,0.2750890731811523
0.3159856796264648,0.2750890731811523
0.3146152496337891,0.2663034439086914
0.3146152496337891,0.2663034439086914
0.3229991912841797,0.2771181106567382
0.3229991912841797,0.2771181106567382
0.3096416473388672,0.2683135986328125
0.3209787368774414,0.2683135986328125
0.3118801116943359,0.2698905944824219
0.3166065216064453,0.2761270523071289
0.3166065216064453,0.2761270523071289
0.3152246475219727,0.2669048309326172
0.3152246475219727,0.2669048309326172
0.3213872909545898,0.2767330169677734
0.3213872909545898,0.2767330169677734
0.3110000610351563,0.2680835723876953
0.3110000610351563,0.2680835723876953
0.3218170166015625,0.2696113586425781
0.3218170166015625,0.2696113586425781
0.3156320571899414,0.2745100021362304
0.3156320571899414,0.2745100021362304
0.3111946105957031,0.2623346328735351
0.3111946105957031,0.2623346328735351
0.3183946609497070,0.2684389114379883
0.3183946609497070,0.2684389114379883
0.3036964416503906,0.2552135467529297
0.3036964416503906,0.2552135467529297
0.3114475250244140,0.2512887954711914
0.3114475250244140,0.2512887954711914
0.3010374069213867,0.2520698547363281
0.3010374069213867,0.2520698547363281
0.2987646102905273,0.2393720626831055
0.2987646102905273,0.2393720626831055
0.3057065963745117,0.2485376358032226
0.3057065963745117,0.2485376358032226
0.2940124511718750,0.2405256271362305
0.2940124511718750,0.2405256271362305
0.3037370681762695,0.2420322418212890
0.3037370681762695,0.2420322418212890
0.2999731063842773,0.2487344741821289
0.2999731063842773,0.2487344741821289
0.2995822906494141,0.2414131164550781
0.2995822906494141,0.2414131164550781
0.3087953567504882,0.2539043426513672
0.3087953567504882,0.2539043426513672
0.2967836380004883,0.2476495742797852
0.2967836380004883,0.2476495742797852
0.3107099533081055,0.2513626098632812
0.3107099533081055,0.2513626098632812
0.3064338684082031,0.2597677230834961
0.3064338684082031,0.2597677230834961
0.3065734863281250,0.2531684875488281
0.3065734863281250,0.2531684875488281
0.3142324447631836,0.2647161483764648
0.3142324447631836,0.2647161483764648
0.3049192428588867,0.2580533981323242
0.3049192428588867,0.2580533981323242
0.3170339584350586,0.2613767623901367
0.3170339584350586,0.2613767623901367
0.3120672225952149,0.2683742523193359
0.3120672225952149,0.2683742523193359
0.3093172073364258,0.2594633102416992
0.3093172073364258,0.2594633102416992
0.3191448211669922,0.2701641082763672
0.3191448211669922,0.2701641082763672
0.3077150344848633,0.2627420425415039
0.3077150344848633,0.2627420425415039
0.3191230773925781,0.2649822235107422
0.3191230773925781,0.2649822235107422
0.3117622375488281,0.2700885772705078
0.3117622375488281,0.2700885772705078
0.3116626739501953,0.2606254577636719
0.3116626739501953,0.2606254577636719
0.3196249008178711,0.2710063934326172
0.3196249008178711,0.2710063934326172
0.3078060150146484,0.2626333236694336
0.3078060150146484,0.2626333236694336
0.3169486999511719,0.2634773254394531
0.3169486999511719,0.2634773254394531
0.3123086929321289,0.2687164306640625
0.3123086929321289,0.2687164306640625
0.3108203887939453,0.2597110748291016
0.3108203887939453,0.2597110748291016
0.3189067840576172,0.2702470779418945
0.3189067840576172,0.2702470779418945
0.3054731369018555,0.2614562988281250
0.3054731369018555,0.2614562988281250
0.3180461883544922,0.2629737854003906
0.3180461883544922,0.2629737854003906
0.3125753402709961,0.2692708969116211
0.3125753402709961,0.2692708969116211
0.3113725662231445,0.2604480743408203
0.3113725662231445,0.2604480743408203
0.3178127288818359,0.2706430435180664
0.3178127288818359,0.2706430435180664
0.3077167510986328,0.2626390457153320
0.3077167510986328,0.2626390457153320
0.3191242218017578,0.2650440216064453
0.3191242218017578,0.2650440216064453
0.3137317657470703,0.2716896057128906
0.3137317657470703,0.2716896057128906
0.3108747482299805,0.2620697021484375
0.3108747482299805,0.2620697021484375
0.3204923629760742,0.2725811004638672
0.3204923629760742,0.2725811004638672
0.3092296600341797,0.2652843475341797
0.3092296600341797,0.2652843475341797
0.3206542968750000,0.2675079345703125
0.3206542968750000,0.2675079345703125
0.3134450912475586,0.2733358383178711
0.3134450912475586,0.2733358383178711
0.3136259078979492,0.2641988754272461
0.3136259078979492,0.2641988754272461
0.3217792510986328,0.2752435684204101
0.3217792510986328,0.2752435684204101
0.3106492996215820,0.2679359436035156
0.3106492996215820,0.2679359436035156
0.3202074050903320,0.2691747665405274
0.3202074050903320,0.2691747665405274
0.3159238815307617,0.2748750686645507
0.3159238815307617,0.2748750686645507
0.3149557113647461,0.2663732528686523
0.3149557113647461,0.2663732528686523
0.3230438232421875,0.2769853591918945
0.3230438232421875,0.2769853591918945
0.3098035812377929,0.2686088562011719
0.3098035812377929,0.2686088562011719
0.3222919464111328,0.2702447891235352
0.3222919464111328,0.2702447891235352
0.3166099548339844,0.2764801025390625
0.3166099548339844,0.2764801025390625
0.3155525207519531,0.2678026199340820
0.3155525207519531,0.2678026199340820
0.3217792510986328,0.2774454116821289
0.3217792510986328,0.2774454116821289
0.3116312026977539,0.2692045211791992
0.3116312026977539,0.2692045211791992
0.3228801727294922,0.2712724685668945
0.3228801727294922,0.2712724685668945
0.3172336578369140,0.2772703170776367
0.3172336578369140,0.2772703170776367
0.3142198562622070,0.2675949096679687
0.3142198562622070,0.2675949096679687
0.3234369277954102,0.2776668548583984
0.3234369277954102,0.2776668548583984
0.3116992950439453,0.2697418212890625
0.3116992950439453,0.2697418212890625
0.3227754592895508,0.2712959289550781
0.3227754592895508,0.2712959289550781
0.3145671844482422,0.2749128341674805
0.3145671844482422,0.2749128341674805
0.3130960464477539,0.2628438949584961
0.3130960464477539,0.2628438949584961
0.3187969207763672,0.2690666198730469
0.3187969207763672,0.2690666198730469
0.3036821365356445,0.2549177169799804
0.3036821365356445,0.2549177169799804
0.3092050552368164,0.2499744415283203
0.3092050552368164,0.2499744415283203
0.3016090393066406,0.2504997253417969
0.3016090393066406,0.2504997253417969
0.2980550765991211,0.2384056091308594
0.2980550765991211,0.2384056091308594
0.3051017761230468,0.2476112365722656
0.3051017761230468,0.2476112365722656
0.2915239334106445,0.2383146286010742
0.2915239334106445,0.2383146286010742
0.3041095733642578,0.2400323867797851
0.3041095733642578,0.2400323867797851
0.2989826202392578,0.2470127105712890
0.2989826202392578,0.2470127105712890
0.2984086990356445,0.2393880844116211
0.2984086990356445,0.2393880844116211
0.3057592391967773,0.2508596420288086
0.3057592391967773,0.2508596420288086
0.2965078353881836,0.2446243286132812
0.2965078353881836,0.2446243286132812
0.3088966369628906,0.2486331939697266
0.3088966369628906,0.2486331939697266
0.3046754837036132,0.2568220138549804
0.3046754837036132,0.2568220138549804
0.3029497146606445,0.2489919662475586
0.3029497146606445,0.2489919662475586
0.3133358001708984,0.2608743667602539
0.3133358001708984,0.2608743667602539
0.3030876159667968,0.2550481796264648
0.3030876159667968,0.2550481796264648
0.3152744293212891,0.2585844039916992
0.3152744293212891,0.2585844039916992
0.3087650299072265,0.2653255462646484
0.3087650299072265,0.2653255462646484
0.3095146179199219,0.2569238662719727
0.3076990127563476,0.2569238662719727
0.3178550720214844,0.2685087203979492
0.3178550720214844,0.2685087203979492
0.3070816040039062,0.2615547180175781
0.3070816040039062,0.2615547180175781
0.3166643142700195,0.2629823684692383
0.3166643142700195,0.2629823684692383
0.3125238418579102,0.2687427520751953
0.3125238418579102,0.2687427520751953
0.3114509582519531,0.2601127624511719
0.3114509582519531,0.2601127624511719
0.3193611145019531,0.2705017089843750
0.3193611145019531,0.2705017089843750
0.3059188842773438,0.2618602752685547
0.3059188842773438,0.2618602752685547
0.3182424545288086,0.2629606246948242
0.3182424545288086,0.2629606246948242
0.3121971130371093,0.2686929702758789
0.3121971130371093,0.2686929702758789
0.3109588623046875,0.2596733093261719
0.3109588623046875,0.2596733093261719
0.3168039321899414,0.2687519073486328
0.3112123489379883,0.2687519073486328
0.3063755035400391,0.2601024627685547
0.3063755035400391,0.2601024627685547
0.3175523757934570,0.2621503829956054
0.3175523757934570,0.2621503829956054
0.3117679595947265,0.2679016113281250
0.3117679595947265,0.2679016113281250
0.3088130950927734,0.2584098815917968
0.3088130950927734,0.2584098815917968
0.3182304382324219,0.2686380386352539
0.3182304382324219,0.2686380386352539
0.3068315505981445,0.2614213943481445
0.3068315505981445,0.2614213943481445
0.3183660507202148,0.2639413833618164
0.3183660507202148,0.2639413833618164
0.3112060546875000,0.2694265365600586
0.3112060546875000,0.2694265365600586
0.3115282058715820,0.2604463577270508
0.3115282058715820,0.2604463577270508
0.3199150085449219,0.2717708587646484
0.3199150085449219,0.2717708587646484
0.3087152481079101,0.2642801284790039
0.3087152481079101,0.2642801284790039
0.3183511734008789,0.2660728454589844
0.3183511734008789,0.2660728454589844
0.3142295837402344,0.2719848632812500
0.3142295837402344,0.2719848632812500
0.3131772994995117,0.2637342453002929
0.3131772994995117,0.2637342453002929
0.3215332031250000,0.2746959686279297
0.3215332031250000,0.2746959686279297
0.3084085464477539,0.2662416458129883
0.3084085464477539,0.2662416458129883
0.3210840225219727,0.2678792953491211
0.3210840225219727,0.2678792953491211
0.3155942916870117,0.2743572235107422
0.3155942916870117,0.2743572235107422
0.3144556045532226,0.2655973434448242
0.3144556045532226,0.2655973434448242
0.3207962036132813,0.2756143569946289
0.3207962036132813,0.2756143569946289
0.3107540130615234,0.2673168182373047
0.3107540130615234,0.2673168182373047
0.3218358993530273,0.2697401046752930
0.3218358993530273,0.2697401046752930
0.3164096832275390,0.2759868621826172
0.3164096832275390,0.2759868621826172
0.3133741378784179,0.2662067413330078
0.3133741378784179,0.2662067413330078
0.3227125167846679,0.2762466430664062
0.3227125167846679,0.2762466430664062
0.3113348007202149,0.2687370300292969
0.3224098205566406,0.2687370300292969
0.3225460052490234,0.2705600738525391
0.3225460052490234,0.2705600738525391
0.3150260925292969,0.2758981704711914
0.3150260925292969,0.2758981704711914
0.3150175094604492,0.2663944244384766
0.3150175094604492,0.2663944244384766
0.3228178024291992,0.2768777847290039
0.3228178024291992,0.2768777847290039
0.3112466812133789,0.2687662124633789
0.3218839645385742,0.2687662124633789
0.3199613571166992,0.2684228897094726
0.3088239669799804,0.2684228897094726
0.3141305923461914,0.2714349746704102
0.3141305923461914,0.2714349746704102
0.3109336853027344,0.2589443206787109
0.3109336853027344,0.2589443206787109
0.3156578063964844,0.2638401031494140
0.3156578063964844,0.2638401031494140
0.2989809036254883,0.2496059417724609
0.2989809036254883,0.2496059417724609
0.3084291458129882,0.2463592529296875
0.3084291458129882,0.2463592529296875
0.3003965377807617,0.2491739273071289
0.3003965377807617,0.2491739273071289
0.2981443405151367,0.2388061523437500
0.2981443405151367,0.2388061523437500
0.3040374755859375,0.2480192184448242
0.3040374755859375,0.2480192184448242
0.2939798355102539,0.2399637222290039
0.2939798355102539,0.2399637222290039
0.3057741165161132,0.2430965423583984
0.3057741165161132,0.2430965423583984
0.3008708953857422,0.2504047393798828
0.3008708953857422,0.2504047393798828
0.2990535736083984,0.2427183151245117
0.2990535736083984,0.2427183151245117
0.3094207763671875,0.2548009872436524
0.3049243927001953,0.2548009872436524
0.2992212295532227,0.2493930816650390
0.2992212295532227,0.2493930816650390
0.3119808197021484,0.2537487030029297
0.3119808197021484,0.2537487030029297
0.3058788299560547,0.2609115600585937
0.3058788299560547,0.2609115600585937
0.3071508407592773,0.2534317016601562
0.3071508407592773,0.2534317016601562
0.3162443161010742,0.2658725738525390
0.3111127853393554,0.2658725738525390
0.3057649612426758,0.2593620300292969
0.3057649612426758,0.2593620300292969
0.3158317565917969,0.2617315292358398
0.3158317565917969,0.2617315292358398
0.3118789672851562,0.2678689956665039
0.3118789672851562,0.2678689956665039
0.3110229492187500,0.2597946166992187
0.3110229492187500,0.2597946166992187
0.3193073272705078,0.2708993911743164
0.3193073272705078,0.2708993911743164
0.3062713623046875,0.2623100280761719
0.3062713623046875,0.2623100280761719
0.3187568664550781,0.2637731552124024
0.3187568664550781,0.2637731552124024
0.3130348205566406,0.2699386596679688
0.3130348205566406,0.2699386596679688
0.3117616653442383,0.2606866836547851
0.3117616653442383,0.2606866836547851
0.3176834106445313,0.2702384948730469
0.3176834106445313,0.2702384948730469
0.3070375442504883,0.2613235473632812
0.3070375442504883,0.2613235473632812
0.3180307388305664,0.2632415771484375
0.3180307388305664,0.2632415771484375
0.3122257232666015,0.2690614700317382
0.3122257232666015,0.2690614700317382
0.3092170715332031,0.2590593338012695
0.3092170715332031,0.2590593338012695
0.3182727813720703,0.2688171386718750
0.3182727813720703,0.2688171386718750
0.3068080902099609,0.2609802246093750
0.3068080902099609,0.2609802246093750
0.3181566238403320,0.2631265640258789
0.3181566238403320,0.2631265640258789
0.3105812072753906,0.2685098648071289
0.3105812072753906,0.2685098648071289
0.3108192443847656,0.2592956542968750
0.3108192443847656,0.2592956542968750
0.3188055038452148,0.2705028533935547
0.3188055038452148,0.2705028533935547
0.3076910018920898,0.2629102706909179
0.3076910018920898,0.2629102706909179
0.3175775527954102,0.2645095825195312
0.3175775527954102,0.2645095825195312
0.3129798889160156,0.2701824188232422
0.3129798889160156,0.2701824188232422
0.3123498916625976,0.2620302200317383
0.3123498916625976,0.2620302200317383
0.3205066680908203,0.2730840682983398
0.3205066680908203,0.2730840682983398
0.3073745727539062,0.2645576477050781
0.3073745727539062,0.2645576477050781
0.3203916549682617,0.2667251586914062
0.3203916549682617,0.2667251586914062
0.3144247055053711,0.2731704711914062
0.3144247055053711,0.2731704711914062
0.3139297485351563,0.2649026870727539
0.3139297485351563,0.2649026870727539
0.3202165603637695,0.2750793457031250
0.3202165603637695,0.2750793457031250
0.3099769592285156,0.2662593841552734
0.3099769592285156,0.2662593841552734
0.3219268798828125,0.2693544387817383
0.3219268798828125,0.2693544387817383
0.3156967163085938,0.2752166748046875
