REDsignal,IRsignal
0.4846269607543945,0.4866559982299805
0.5002979278564453,0.4714153289794922
0.5002979278564453,0.4714153289794922
0.5078716278076172,0.4971828460693359
0.5078716278076172,0.4971828460693359
0.4849073410034179,0.4575920104980469
0.4849073410034179,0.4575920104980469
0.5137006759643554,0.4881998062133789
0.5137006759643554,0.4881998062133789
0.4852958679199219,0.4871166229248047
0.4852958679199219,0.4871166229248047
0.4991586685180664,0.4673755645751953
0.4991586685180664,0.4673755645751953
0.5049568176269531,0.4808097839355469
0.5049568176269531,0.4808097839355469
0.4789798736572266,0.4559778213500976
0.4789798736572266,0.4559778213500976
0.5051044464111328,0.4728561401367187
0.5051044464111328,0.4728561401367187
0.4735616683959961,0.4654203414916992
0.4735616683959961,0.4654203414916992
0.4861284255981445,0.4334421157836914
0.4861284255981445,0.4334421157836914
0.4918498992919922,0.4674367904663086
0.4918498992919922,0.4674367904663086
0.4671152114868164,0.4350803375244141
0.4671152114868164,0.4350803375244141
0.4949415206909180,0.4538177490234375
0.4949415206909180,0.4538177490234375
0.4654701232910156,0.4423988342285156
0.4654701232910156,0.4423988342285156
0.4805437088012695,0.4342294692993164
0.4805437088012695,0.4342294692993164
0.4886873245239258,0.4636745452880859
0.4886873245239258,0.4636745452880859
0.4649311065673828,0.4315011978149414
0.4649311065673828,0.4315011978149414
0.4943052291870117,0.4429155349731445
0.4943052291870117,0.4429155349731445
0.4654260635375976,0.4519906997680664
0.4654260635375976,0.4519906997680664
0.4810409545898438,0.4345109939575195
0.4810409545898438,0.4345109939575195
0.4886215209960937,0.4620992660522460
0.4886215209960937,0.4620992660522460
0.4648801803588867,0.4217737197875976
0.4648801803588867,0.4217737197875976
0.4942399978637695,0.4528501510620117
0.4942399978637695,0.4528501510620117
0.4656280517578125,0.4537731170654297
0.4656280517578125,0.4537731170654297
0.4810718536376953,0.4344766616821289
0.4810718536376953,0.4344766616821289
0.4890432357788086,0.4535762786865234
0.4890432357788086,0.4535762786865234
0.4982923507690429,0.4674785614013672
0.4964750289916992,0.4674785614013672
0.4728824615478515,0.4345670700073242
0.4728824615478515,0.4345670700073242
0.4968549728393554,0.4652149200439453
0.4968549728393554,0.4652149200439453
0.4665876388549804,0.4436782836914062
0.4665876388549804,0.4436782836914062
0.4943698883056640,0.4541318893432617
0.4943698883056640,0.4541318893432617
0.4818695068359375,0.4681371688842773
0.4818695068359375,0.4681371688842773
0.4751770019531250,0.4387481689453125
0.4751770019531250,0.4387481689453125
0.4988828659057617,0.4665361404418945
0.4988828659057617,0.4665361404418945
0.4678785324096679,0.4503398895263672
0.4678785324096679,0.4503398895263672
0.4946445465087890,0.4500188827514648
0.4946445465087890,0.4500188827514648
0.4814105987548828,0.4678276062011719
0.4814105987548828,0.4678276062011719
0.4748010635375977,0.4380237579345703
0.4748010635375977,0.4380237579345703
0.4989521026611328,0.4725259780883789
0.4989521026611328,0.4725259780883789
0.4677984237670898,0.4455968856811524
0.4677984237670898,0.4455968856811524
0.4950765609741211,0.4506265640258789
0.4950765609741211,0.4506265640258789
0.4821865081787109,0.4674442291259766
0.4821865081787109,0.4674442291259766
0.4761108398437500,0.4450424194335937
0.4761108398437500,0.4450424194335937
0.5001914978027343,0.4703155517578125
0.5001914978027343,0.4703155517578125
0.4686595916748046,0.4483062744140625
0.4686595916748046,0.4483062744140625
0.4965814590454101,0.4532855987548828
0.4965814590454101,0.4532855987548828
0.4843334197998047,0.4772649765014648
0.4843334197998047,0.4772649765014648
0.4780872344970703,0.4441097259521484
0.4780872344970703,0.4441097259521484
0.5022468566894531,0.4743118286132812
0.5022468566894531,0.4743118286132812
0.4711463928222656,0.4507633209228515
0.4711463928222656,0.4507633209228515
0.4989458084106445,0.4627223968505859
0.4989458084106445,0.4627223968505859
0.4865261077880859,0.4766218185424804
0.4865261077880859,0.4766218185424804
0.4797140121459961,0.4478937149047851
0.4797140121459961,0.4478937149047851
0.5040224075317382,0.4775682449340820
0.5040224075317382,0.4775682449340820
0.4733648300170898,0.4603471755981445
0.4733648300170898,0.4603471755981445
0.5008369445800781,0.4612987518310547
0.5008369445800781,0.4612987518310547
0.4881431579589843,0.4796379089355469
0.4881431579589843,0.4796379089355469
0.4815828323364257,0.4489391326904297
0.4815828323364257,0.4489391326904297
0.5058311462402344,0.4853462219238281
0.5058311462402344,0.4853462219238281
0.4745979309082031,0.4580148696899414
0.4745979309082031,0.4580148696899414
0.5015762329101562,0.4635326385498046
0.5015762329101562,0.4635326385498046
0.4890850067138672,0.4811210632324219
0.4890850067138672,0.4811210632324219
0.4830522537231445,0.4575548171997070
0.4830522537231445,0.4575548171997070
0.5069217681884766,0.4827987670898437
0.5069217681884766,0.4827987670898437
0.4757526397705078,0.4599220275878906
0.4757526397705078,0.4599220275878906
0.5028482437133789,0.4639131546020507
0.5028482437133789,0.4639131546020507
0.4903964996337891,0.4884481430053711
0.4903964996337891,0.4884481430053711
0.4841949462890625,0.4548974990844726
0.4841949462890625,0.4548974990844726
0.5072891235351562,0.4849822998046875
0.5072891235351562,0.4849822998046875
0.4764884948730468,0.4613639831542968
0.4764884948730468,0.4613639831542968
0.5041500091552734,0.4726186752319336
0.5041500091552734,0.4726186752319336
0.4916004180908203,0.4859361648559570
0.4853187561035156,0.4569585800170898
0.4853187561035156,0.4569585800170898
0.5087688446044921,0.4855733871459961
0.5087688446044921,0.4855733871459961
0.4779579162597656,0.4687311172485351
0.4779579162597656,0.4687311172485351
0.5054191589355469,0.4699321746826172
0.5054191589355469,0.4699321746826172
0.4920003890991211,0.4877323150634765
0.4920003890991211,0.4877323150634765
0.4861976623535156,0.4582288742065430
0.4861976623535156,0.4582288742065430
0.5099527359008789,0.4935979843139648
0.5099527359008789,0.4935979843139648
0.4787927627563476,0.4657762527465820
0.4787927627563476,0.4657762527465820
0.5063495635986328,0.4715612411499023
0.5063495635986328,0.4715612411499023
0.4929931640625000,0.4877025604248046
0.4929931640625000,0.4877025604248046
0.4873060226440429,0.4656909942626953
0.4873060226440429,0.4656909942626953
0.5112178802490234,0.4911787033081054
0.5112178802490234,0.4911787033081054
0.4795125961303711,0.4679660797119141
0.4795125961303711,0.4679660797119141
0.5073280334472656,0.4738855361938477
0.5073280334472656,0.4738855361938477
0.4947761535644531,0.4971078872680664
0.4947761535644531,0.4971078872680664
0.4891084671020507,0.4641054153442383
0.4891084671020507,0.4641054153442383
0.5127983093261719,0.4943910598754883
0.5127983093261719,0.4943910598754883
0.4814266204833984,0.4694766998291016
0.4814266204833984,0.4694766998291016
0.5091779708862304,0.4823581695556640
0.5091779708862304,0.4823581695556640
0.4963479995727539,0.4951326370239257
0.4963479995727539,0.4951326370239257
0.4900279998779297,0.4666110992431640
0.4900279998779297,0.4666110992431640
0.5136703491210938,0.4962547302246094
0.5136703491210938,0.4962547302246094
0.4827627182006836,0.4778554916381836
0.4827627182006836,0.4778554916381836
0.5101512908935547,0.4791996002197265
0.5101512908935547,0.4791996002197265
0.4967456817626953,0.4956727981567383
0.4967456817626953,0.4956727981567383
0.4898397445678710,0.4635589599609375
0.4898397445678710,0.4635589599609375
0.5119274139404296,0.4969081878662109
0.5119274139404296,0.4969081878662109
0.4781473159790039,0.4633180618286132
0.4781473159790039,0.4633180618286132
0.5018663406372070,0.4639863967895508
0.5018663406372070,0.4639863967895508
0.4861158370971679,0.4754796981811523
0.4861158370971679,0.4754796981811523
0.4780860900878906,0.4476007461547851
0.4780860900878906,0.4476007461547851
0.4992742538452148,0.4691568374633789
0.4992742538452148,0.4691568374633789
0.4661567687988281,0.4421957015991211
0.4661567687988281,0.4421957015991211
0.4919569015502929,0.4450298309326172
0.4919569015502929,0.4450298309326172
0.4783653259277343,0.4672697067260742
0.4783653259277343,0.4672697067260742
0.4724121093750000,0.4334941864013672
0.4724121093750000,0.4334941864013672
0.4950416564941406,0.4634239196777343
0.4950416564941406,0.4634239196777343
0.4641065597534180,0.4388586044311523
0.4641065597534180,0.4388586044311523
0.4918699264526367,0.4509286880493164
0.4918699264526367,0.4509286880493164
0.4786714553833007,0.4637472152709960
0.4786714553833007,0.4637472152709960
0.4734495162963867,0.4352422714233398
0.4734495162963867,0.4352422714233398
0.4963359832763672,0.4638313293457031
0.4963359832763672,0.4638313293457031
0.4654563903808593,0.4459241867065429
0.4654563903808593,0.4459241867065429
0.4930074691772461,0.4484275817871093
0.4930074691772461,0.4484275817871093
0.4795680999755859,0.4657241821289062
0.4795680999755859,0.4657241821289062
0.4745109558105469,0.4373044967651367
0.4745109558105469,0.4373044967651367
0.4984943389892578,0.4736171722412109
0.4984943389892578,0.4736171722412109
0.4678607940673828,0.4457422256469726
0.4678607940673828,0.4457422256469726
0.4958805084228515,0.4536157608032226
0.4958805084228515,0.4536157608032226
0.4826562881469726,0.4696712493896484
0.4826562881469726,0.4696712493896484
0.4781387329101562,0.4484241485595703
0.4781387329101562,0.4484241485595703
0.5015344619750977,0.4742431640625000
0.5015344619750977,0.4742431640625000
0.4698463439941406,0.4497928619384766
0.4698463439941406,0.4497928619384766
0.4972366333007812,0.4559532165527344
0.4972366333007812,0.4559532165527344
0.4840324401855469,0.4773365020751953
0.4840324401855469,0.4773365020751953
0.4784093856811523,0.4439958572387695
0.4784093856811523,0.4439958572387695
0.5012495040893554,0.4733190536499023
0.5012495040893554,0.4733190536499023
0.4692323684692383,0.4467121124267578
0.4692323684692383,0.4467121124267578
0.4968812942504883,0.4599042892456054
0.4968812942504883,0.4599042892456054
0.4834716796875000,0.4717798233032227
0.4834716796875000,0.4717798233032227
0.4776082992553711,0.4435581207275390
0.4776082992553711,0.4435581207275390
0.5009027481079101,0.4733911514282226
0.5009027481079101,0.4733911514282226
0.4701765060424805,0.4541936874389648
0.4701765060424805,0.4541936874389648
0.4978277206420898,0.4572813034057617
0.4978277206420898,0.4572813034057617
0.4846984863281250,0.4742208480834961
0.4846984863281250,0.4742208480834961
0.4795412063598632,0.4449153900146484
0.4795412063598632,0.4449153900146484
0.5030759811401367,0.4819622039794922
0.5030759811401367,0.4819622039794922
0.4720481872558593,0.4529726028442382
0.4720481872558593,0.4529726028442382
0.4991661071777344,0.4610527038574219
0.4991661071777344,0.4610527038574219
0.4862628936767578,0.4773410797119140
0.4862628936767578,0.4773410797119140
0.4818632125854492,0.4550737380981445
0.4818632125854492,0.4550737380981445
0.5051313400268554,0.4812618255615234
0.5051313400268554,0.4812618255615234
0.4739336013793945,0.4564247131347656
0.4739336013793945,0.4564247131347656
0.5013027191162109,0.4629495620727539
0.5013027191162109,0.4629495620727539
0.4884424209594727,0.4857839584350586
0.4884424209594727,0.4857839584350586
0.4835477828979492,0.4534990310668945
0.4835477828979492,0.4534990310668945
0.5060846328735351,0.4838476181030273
0.5060846328735351,0.4838476181030273
0.4751266479492187,0.4585647583007812
0.4751266479492187,0.4585647583007812
0.5029998779296875,0.4717775344848633
0.5029998779296875,0.4717775344848633
0.4896411895751953,0.4834911346435546
0.4896411895751953,0.4834911346435546
0.4847957611083984,0.4555332183837890
0.4847957611083984,0.4555332183837890
0.5074052810668945,0.4841714859008789
0.5074052810668945,0.4841714859008789
0.4765640258789062,0.4656291961669922
0.4765640258789062,0.4656291961669922
0.5040132522583007,0.4689657211303710
0.5040132522583007,0.4689657211303710
0.4898111343383789,0.4851568222045898
0.4898111343383789,0.4851568222045898
0.4853382110595703,0.4566535949707031
0.4853382110595703,0.4566535949707031
0.5085765838623046,0.4923740386962890
0.5085765838623046,0.4923740386962890
0.4774051666259765,0.4627035140991211
0.4774051666259765,0.4627035140991211
0.5048955917358399,0.4706199645996094
0.5048955917358399,0.4706199645996094
0.4909727096557617,0.4850543975830078
0.4909727096557617,0.4850543975830078
0.4867246627807617,0.4634290695190429
0.4867246627807617,0.4634290695190429
0.5095516204833984,0.4892801284790039
0.5095516204833984,0.4892801284790039
0.4776346206665039,0.4640333175659179
0.4776346206665039,0.4640333175659179
0.5052446365356446,0.4717031478881836
0.5052446365356446,0.4717031478881836
0.4920484542846679,0.4928398132324219
0.4920484542846679,0.4928398132324219
0.4873432159423828,0.4602121353149414
0.4873432159423828,0.4602121353149414
0.5102766036987304,0.4907215118408203
0.5102766036987304,0.4907215118408203
0.4784334182739258,0.4635417938232422
0.4784334182739258,0.4635417938232422
0.5063404083251953,0.4784339904785156
0.5063404083251953,0.4784339904785156
0.4928758621215820,0.4897087097167969
0.4928758621215820,0.4897087097167969
0.4880361557006836,0.4621913909912109
0.4880361557006836,0.4621913909912109
0.5110250473022461,0.4924879074096680
0.5110250473022461,0.4924879074096680
0.4804103851318359,0.4726839065551758
0.5009130477905274,0.4726839065551758
0.5079803466796875,0.4637477874755859
0.4839311599731445,0.4637477874755859
0.4932077407836914,0.4782915115356445
0.4897241592407227,0.4782915115356445
0.4840639114379883,0.4842418670654297
0.4840639114379883,0.4842418670654297
0.5009954452514648,0.4703001022338867
0.5009954452514648,0.4703001022338867
0.5070968627929687,0.4978048324584960
0.5070968627929687,0.4978048324584960
0.4848821640014648,0.4561941146850585
0.4848821640014648,0.4561941146850585
0.5137172698974609,0.4908857345581055
0.5137172698974609,0.4908857345581055
0.4858526229858398,0.4882364273071289
0.4858526229858398,0.4882364273071289
0.5025449752807617,0.4718708038330078
0.5025449752807617,0.4718708038330078
0.5074172973632812,0.4891696929931640
0.5074172973632812,0.4891696929931640
0.4852638244628906,0.4667982101440429
0.4916336059570312,0.4667982101440429
0.5135318756103515,0.4895719528198242
0.5135318756103515,0.4895719528198242
0.4836376190185547,0.4811765670776367
0.4836376190185547,0.4811765670776367
0.4967679977416992,0.4512634277343750
0.4967679977416992,0.4512634277343750
0.4992914199829102,0.4840026855468750
0.4992914199829102,0.4840026855468750
0.4753217697143555,0.4490644454956055
0.4753217697143555,0.4490644454956055
0.5020803451538086,0.4673789978027343
0.5020803451538086,0.4673789978027343
0.4707544326782226,0.4492870330810547
0.4707544326782226,0.4492870330810547
0.4856323242187500,0.4419673919677734
0.4856323242187500,0.4419673919677734
0.4901596069335937,0.4682584762573242
0.4901596069335937,0.4682584762573242
0.4682504653930664,0.4351747512817383
0.4682504653930664,0.4351747512817383
0.4961271286010742,0.4495038986206055
0.4961271286010742,0.4495038986206055
0.4678516387939453,0.4545427322387695
0.4678516387939453,0.4545427322387695
0.4847545623779297,0.4420206069946289
0.4847545623779297,0.4420206069946289
0.4907758712768555,0.4682865142822266
0.4907758712768555,0.4682865142822266
0.4684879302978515,0.4267993927001953
0.4684879302978515,0.4267993927001953
0.4978048324584960,0.4616294860839844
0.4978048324584960,0.4616294860839844
0.4697645187377930,0.4573207855224609
0.4697645187377930,0.4573207855224609
0.4867567062377929,0.4429504394531250
0.4867567062377929,0.4429504394531250
0.4914899826049804,0.4612289428710937
0.4914899826049804,0.4612289428710937
0.4702445983886718,0.4397941589355469
0.4702445983886718,0.4397941589355469
0.4999191284179687,0.4669212341308593
0.4999191284179687,0.4669212341308593
0.4722890853881836,0.4610538482666016
0.4722890853881836,0.4610538482666016
0.4886335372924804,0.4380517959594726
0.4886335372924804,0.4380517959594726
0.4945627212524414,0.4767660140991211
0.4945627212524414,0.4767660140991211
0.4739095687866210,0.4459997177124023
0.4739095687866210,0.4459997177124023
0.5035778045654297,0.4710170745849609
0.5035778045654297,0.4710170745849609
0.4743604660034180,0.4558605194091797
0.4743604660034180,0.4558605194091797
0.4908691406250000,0.4515827178955078
0.4908691406250000,0.4515827178955078
0.4961116790771484,0.4804636001586914
0.4961116790771484,0.4804636001586914
0.4746683120727539,0.4460678100585938
0.4746683120727539,0.4460678100585938
0.5025032043457031,0.4601526260375977
0.5025032043457031,0.4601526260375977
0.4736520767211914,0.4640796661376953
0.4736520767211914,0.4640796661376953
0.4902694702148437,0.4499673843383789
0.4902694702148437,0.4499673843383789
0.4955720901489258,0.4770727157592773
0.4955720901489258,0.4770727157592773
0.4733871459960937,0.4351530075073242
0.4733871459960937,0.4351530075073242
0.5024047851562500,0.4701467514038086
0.5024047851562500,0.4701467514038086
0.4744497299194336,0.4666522979736328
0.4744497299194336,0.4666522979736328
0.4914321899414062,0.4511953353881836
0.4914321899414062,0.4511953353881836
0.4959011077880859,0.4692483901977539
0.5025472640991211,0.4692483901977539
0.4748777389526367,0.4478164672851562
0.4748777389526367,0.4478164672851562
0.5043342590332031,0.4733768463134765
0.5043342590332031,0.4733768463134765
0.4765857696533203,0.4681091308593750
0.4765857696533203,0.4681091308593750
0.4926240921020508,0.4448072433471680
0.4926240921020508,0.4448072433471680
0.4979227066040039,0.4830905914306640
0.4979227066040039,0.4830905914306640
0.4774349212646484,0.4534189224243164
0.4774349212646484,0.4534189224243164
0.5069646835327148,0.4770441055297852
0.5069646835327148,0.4770441055297852
0.4777616500854492,0.4617267608642578
0.4777616500854492,0.4617267608642578
0.4947109222412109,0.4584445953369141
0.4947109222412109,0.4584445953369141
0.5000267028808594,0.4867235183715820
0.5000267028808594,0.4867235183715820
0.4795555114746093,0.4548357009887695
0.4795555114746093,0.4548357009887695
0.5078767776489258,0.4699047088623047
0.5078767776489258,0.4699047088623047
0.4794181823730468,0.4746248245239257
0.4794181823730468,0.4746248245239257
0.4964687347412109,0.4628625869750976
0.4964687347412109,0.4628625869750976
0.5020540237426757,0.4887748718261719
0.5020540237426757,0.4887748718261719
0.4799617767333984,0.4468551635742187
0.4799617767333984,0.4468551635742187
0.5091133117675781,0.4823867797851562
0.5091133117675781,0.4823867797851562
0.4809505462646484,0.4768135070800781
0.4809505462646484,0.4768135070800781
0.4982557296752930,0.4630640029907226
0.4982557296752930,0.4630640029907226
0.5019699096679687,0.4807010650634765
0.5019699096679687,0.4807010650634765
0.4809814453125000,0.4590333938598632
0.4809814453125000,0.4590333938598632
0.5104608535766602,0.4859155654907226
0.5104608535766602,0.4859155654907226
0.4824748992919922,0.4781513214111328
0.4824748992919922,0.4781513214111328
0.4982225418090820,0.4547161102294922
0.4982225418090820,0.4547161102294922
0.5029655456542969,0.4924558639526367
0.5029655456542969,0.4924558639526367
0.4823684692382812,0.4610212326049805
0.4823684692382812,0.4610212326049805
0.5119691848754883,0.4859613418579101
0.5119691848754883,0.4859613418579101
0.4824743270874023,0.4695030212402344
0.4824743270874023,0.4695030212402344
0.4992279052734375,0.4667535781860351
0.4992279052734375,0.4667535781860351
0.5041694641113281,0.4958518981933593
0.5041694641113281,0.4958518981933593
0.4837285995483398,0.4621376037597656
0.4837285995483398,0.4621376037597656
0.5116664886474609,0.4771213531494141
0.5116664886474609,0.4771213531494141
0.4834047317504883,0.4811090469360351
0.4834047317504883,0.4811090469360351
0.5002653121948242,0.4685297012329102
0.5002653121948242,0.4685297012329102
0.5055250167846680,0.4956705093383789
0.5055250167846680,0.4956705093383789
0.4837343215942382,0.4534566879272461
0.4837343215942382,0.4534566879272461
0.5129631042480468,0.4896755218505859
0.5129631042480468,0.4896755218505859
0.4847648620605469,0.4849559783935546
0.4847648620605469,0.4849559783935546
0.5022039413452148,0.4705438613891602
0.5022039413452148,0.4705438613891602
0.5060743331909180,0.4881214141845703
0.5060743331909180,0.4881214141845703
0.4852060317993164,0.4666282653808593
0.4852060317993164,0.4666282653808593
0.5147735595703125,0.4926898956298828
0.5147735595703125,0.4926898956298828
0.4870027542114257,0.4859436035156250
0.4870027542114257,0.4859436035156250
0.5028608322143554,0.4633472442626953
0.5028608322143554,0.4633472442626953
0.5075225830078125,0.5012763977050781
0.5075225830078125,0.5012763977050781
0.4870302200317382,0.4710828781127929
0.4870302200317382,0.4710828781127929
0.5166629791259766,0.4949472427368164
0.5166629791259766,0.4949472427368164
0.4872133255004882,0.4776603698730468
0.4872133255004882,0.4776603698730468
0.5037780761718750,0.4748067855834961
0.5037780761718750,0.4748067855834961
0.5078126907348632,0.5007717132568359
0.5078126907348632,0.5007717132568359
0.4859962463378906,0.4653121948242187
0.4859962463378906,0.4653121948242187
0.5114381790161132,0.4757881164550781
0.4910448074340820,0.4757881164550781
0.4796339035034179,0.4728738784790039
0.4796339035034179,0.4728738784790039
0.4936735153198242,0.4564704895019531
0.4936735153198242,0.4564704895019531
0.4956218719482421,0.4768323898315430
0.4956218719482421,0.4768323898315430
0.4714284896850586,0.4308208465576172
0.4714284896850586,0.4308208465576172
0.4984994888305664,0.4628963470458984
0.4984994888305664,0.4628963470458984
0.4688375473022461,0.4540031433105469
0.4688375473022461,0.4540031433105469
0.4855087280273437,0.4399246215820312
0.4855087280273437,0.4399246215820312
0.4882261276245117,0.4564699172973632
0.4882261276245117,0.4564699172973632
0.4672702789306640,0.4343118667602539
0.4672702789306640,0.4343118667602539
0.4965316772460937,0.4613290786743164
0.4965316772460937,0.4613290786743164
0.4687076568603515,0.4522430419921875
0.4687076568603515,0.4522430419921875
0.4845348358154297,0.4298727035522461
0.4845348358154297,0.4298727035522461
0.4886787414550781,0.4667524337768554
0.4886787414550781,0.4667524337768554
0.4680759429931640,0.4348691940307617
0.4680759429931640,0.4348691940307617
0.4975851058959961,0.4600038528442383
0.4975851058959961,0.4600038528442383
0.4678178787231445,0.4427101135253906
0.4678178787231445,0.4427101135253906
0.4847339630126953,0.4401941299438477
0.4847339630126953,0.4401941299438477
0.4890729904174804,0.4690120697021484
0.4890729904174804,0.4690120697021484
0.4693010330200195,0.4357120513916016
0.4693010330200195,0.4357120513916016
0.4975564956665039,0.4521377563476562
0.4975564956665039,0.4521377563476562
0.4697078704833984,0.4554714202880859
0.4697078704833984,0.4554714202880859
0.4873186111450195,0.4446910858154297
0.4873186111450195,0.4446910858154297
0.4926012039184570,0.4724149703979492
0.4926012039184570,0.4724149703979492
0.4712562561035156,0.4314245223999023
0.4712562561035156,0.4314245223999023
0.5007556915283203,0.4676221847534179
0.5007556915283203,0.4676221847534179
0.4725820541381835,0.4618537902832031
0.4725820541381835,0.4618537902832031
0.4901756286621093,0.4478816986083984
0.4901756286621093,0.4478816986083984
0.4929937362670898,0.4649339675903320
0.4929937362670898,0.4649339675903320
0.4722232818603516,0.4422803878784179
0.4722232818603516,0.4422803878784179
0.5012426376342773,0.4680501937866210
0.5012426376342773,0.4680501937866210
0.4731800079345703,0.4595769882202148
0.4731800079345703,0.4595769882202148
0.4888252258300781,0.4375236511230469
0.4888252258300781,0.4375236511230469
0.4925828933715820,0.4744503021240234
0.4925828933715820,0.4744503021240234
0.4725746154785156,0.4440902709960937
0.4725746154785156,0.4440902709960937
0.5022794723510742,0.4682538986206055
0.5022794723510742,0.4682538986206055
0.4727354049682617,0.4509653091430664
0.4727354049682617,0.4509653091430664
0.4899496078491211,0.4491519927978516
0.4899496078491211,0.4491519927978516
0.4943132400512695,0.4769886016845703
0.4943132400512695,0.4769886016845703
0.4746408462524414,0.4450510025024414
0.4746408462524414,0.4450510025024414
0.5028104782104492,0.4615058898925781
0.5028104782104492,0.4615058898925781
0.4744977951049805,0.4639600753784179
0.4744977951049805,0.4639600753784179
0.4921634674072266,0.4545295715332031
0.4921634674072266,0.4545295715332031
0.4969785690307617,0.4802101135253906
0.4969785690307617,0.4802101135253906
0.4756393432617188,0.4388454437255859
0.4756393432617188,0.4388454437255859
0.5049934387207031,0.4752130508422852
0.5049934387207031,0.4752130508422852
0.4769611358642578,0.4679191589355469
0.4769611358642578,0.4679191589355469
0.4949535369873047,0.4563251495361328
0.4949535369873047,0.4563251495361328
0.4978363037109375,0.4737127304077148
0.4978363037109375,0.4737127304077148
0.4860111236572265,0.4520067214965820
0.4860111236572265,0.4816137313842773
0.5070098876953125,0.4797918319702148
0.5070098876953125,0.4797918319702148
0.4794416427612305,0.4701765060424805
0.4794416427612305,0.4701765060424805
0.4952997207641601,0.4490655899047851
0.4952997207641601,0.4490655899047851
0.4991483688354492,0.4860717773437500
0.4991483688354492,0.4860717773437500
0.4790800094604492,0.4545867919921875
0.4790800094604492,0.4545867919921875
0.5088701248168945,0.4803337097167968
0.5088701248168945,0.4803337097167968
0.4791584014892578,0.4622171401977539
0.4791584014892578,0.4622171401977539
0.4964057922363281,0.4608518600463867
0.4964057922363281,0.4608518600463867
0.5004507064819336,0.4896549224853515
0.5004507064819336,0.4896549224853515
0.4809339523315430,0.4560276031494140
0.4809339523315430,0.4560276031494140
0.5088191986083984,0.4722204208374023
0.5088191986083984,0.4722204208374023
0.4801952362060546,0.4739444732666016
0.4801952362060546,0.4739444732666016
0.4976749420166016,0.4632287979125976
0.4976749420166016,0.4632287979125976
0.5023315429687499,0.4899141311645507
0.5023315429687499,0.4899141311645507
0.4808395385742187,0.4477775573730469
0.4808395385742187,0.4477775573730469
0.5098508834838867,0.4842996597290039
0.5098508834838867,0.4842996597290039
0.4816818237304688,0.4777032852172851
0.4816818237304688,0.4777032852172851
0.4996747970581055,0.4649139404296875
0.4996747970581055,0.4649139404296875
0.5022039413452148,0.4818672180175781
0.5022039413452148,0.4818672180175781
0.4820365905761719,0.4596216201782226
0.4820365905761719,0.4596216201782226
0.5111972808837890,0.4864843368530273
0.5111972808837890,0.4864843368530273
0.4836542129516601,0.4775951385498047
0.4836542129516601,0.4775951385498047
0.4994178771972656,0.4566238403320312
0.4994178771972656,0.4566238403320312
0.5030244827270508,0.4936094284057617
0.5030244827270508,0.4936094284057617
0.4830757141113281,0.4633512496948242
0.4830757141113281,0.4633512496948242
0.5132074356079102,0.4880882263183594
0.5132074356079102,0.4880882263183594
0.4834980010986328,0.4696809768676757
0.4834980010986328,0.4696809768676757
0.5007488250732421,0.4688404083251953
0.5007488250732421,0.4688404083251953
0.5046529769897461,0.4964967727661133
0.5046529769897461,0.4964967727661133
0.4855751037597656,0.4643674850463867
0.4855751037597656,0.4643674850463867
0.5134185791015625,0.4807577133178711
0.5134185791015625,0.4807577133178711
0.4849153518676758,0.4827198028564453
0.4849153518676758,0.4827198028564453
0.5027017593383789,0.4736143112182617
0.4822523117065429,0.4736143112182617
0.5072502136230469,0.4989498138427734
0.5072502136230469,0.4989498138427734
0.4857324600219726,0.4567697525024414
0.4857324600219726,0.4567697525024414
0.5148542404174804,0.4935321807861328
0.5148542404174804,0.4935321807861328
0.4865140914916992,0.4850486755371093
0.4865140914916992,0.4850486755371093
0.5045053482055664,0.4733470916748047
0.5045053482055664,0.4733470916748047
0.5060977935791016,0.4888555526733398
0.5060977935791016,0.4888555526733398
0.4846681594848632,0.4643686294555664
0.4846681594848632,0.4643686294555664
0.5119714736938477,0.4883399963378906
0.5119714736938477,0.4883399963378906
0.4811496734619141,0.4719125747680664
0.4811496734619141,0.4719125747680664
0.4939796447753906,0.4455997467041016
0.4939796447753906,0.4455997467041016
0.4945821762084961,0.4772129058837891
0.4945821762084961,0.4772129058837891
0.4719446182250976,0.4410312652587891
0.4719446182250976,0.4410312652587891
0.4997097015380859,0.4632253646850586
0.4997097015380859,0.4632253646850586
0.4680599212646484,0.4418489456176758
0.4680599212646484,0.4418489456176758
0.4842990875244140,0.4393152236938476
0.4842990875244140,0.4393152236938476
0.4874341964721680,0.4668748855590820
0.4874341964721680,0.4668748855590820
0.4678979873657226,0.4323583602905273
0.4678979873657226,0.4323583602905273
0.4954376220703125,0.4486753463745117
0.4954376220703125,0.4486753463745117
0.4667329788208008,0.4493751525878906
0.4667329788208008,0.4493751525878906
0.4843053817749023,0.4388534545898438
0.4843053817749023,0.4388534545898438
0.4884670257568359,0.4649991989135742
0.4935132980346679,0.4649991989135742
0.4668857574462890,0.4229661941528320
0.4668857574462890,0.4229661941528320
0.4957122802734375,0.4590265274047851
0.4957122802734375,0.4590265274047851
0.4673509597778320,0.4515089035034179
0.4673509597778320,0.4515089035034179
0.4854909896850585,0.4387418746948242
0.4854909896850585,0.4387418746948242
0.4875040054321289,0.4557895660400391
0.4875040054321289,0.4557895660400391
0.4674636840820312,0.4337104797363281
0.4674636840820312,0.4337104797363281
0.4971130371093750,0.4611310958862305
0.4971130371093750,0.4611310958862305
0.4698171615600586,0.4527311325073242
0.4698171615600586,0.4527311325073242
0.4863092422485351,0.4331148147583008
0.4863092422485351,0.4331148147583008
0.4902437210083008,0.4706892013549804
0.4902437210083008,0.4706892013549804
0.4707979202270507,0.4411399841308594
0.4707979202270507,0.4411399841308594
0.5012437820434570,0.4663364410400390
0.5012437820434570,0.4663364410400390
0.4713506698608398,0.4477397918701172
0.4713506698608398,0.4477397918701172
0.4887004852294922,0.4467487335205078
0.4887004852294922,0.4467487335205078
0.4920387268066406,0.4735811233520508
0.4920387268066406,0.4735811233520508
0.4728326797485352,0.4405792236328125
0.4728326797485352,0.4405792236328125
0.5000970840454101,0.4567611694335937
0.5000970840454101,0.4567611694335937
0.4712642669677734,0.4571903228759766
0.4712642669677734,0.4571903228759766
0.4887468338012695,0.4478897094726562
0.4887468338012695,0.4478897094726562
0.4928718566894531,0.4727005004882812
0.4928718566894531,0.4727005004882812
0.4713752746582031,0.4305925369262695
0.4713752746582031,0.4305925369262695
0.5004570007324218,0.4671621322631836
0.5004570007324218,0.4671621322631836
0.4721454620361328,0.4585481643676758
0.4721454620361328,0.4585481643676758
0.4908348083496094,0.4478101730346680
0.4908348083496094,0.4478101730346680
0.4927230834960937,0.4651273727416992
0.4927230834960937,0.4651273727416992
0.4729042053222656,0.4432102203369140
0.4729042053222656,0.4432102203369140
0.5022891998291016,0.4718891143798828
0.5022891998291016,0.4718891143798828
0.4749647140502929,0.4614978790283203
0.4749647140502929,0.4614978790283203
0.4911077499389648,0.4415050506591797
0.4911077499389648,0.4415050506591797
0.4947406768798828,0.4785289764404297
0.4947406768798828,0.4785289764404297
0.4752124786376953,0.4471389770507813
0.4752124786376953,0.4471389770507813
0.5055673599243163,0.4738655090332031
0.5055673599243163,0.4738655090332031
0.4753875732421875,0.4551126480102539
0.4753875732421875,0.4551126480102539
0.4931207656860351,0.4548740386962891
0.4931207656860351,0.4548740386962891
0.4969247817993164,0.4836021423339844
0.4969247817993164,0.4836021423339844
0.4781736373901367,0.4499256134033203
0.4781736373901367,0.4499256134033203
0.5056938171386719,0.4669052124023437
0.5056938171386719,0.4669052124023437
0.4770967483520507,0.4677297592163085
0.4770967483520507,0.4677297592163085
0.4949008941650390,0.4577882766723633
0.4949008941650390,0.4577882766723633
0.4993640899658203,0.4841131210327148
0.4993640899658203,0.4841131210327148
0.4777587890625000,0.4422403335571289
0.4777587890625000,0.4422403335571289
0.5067604064941406,0.4789546966552734
0.5067604064941406,0.4789546966552734
0.4785106658935547,0.4714422225952148
0.4785106658935547,0.4714422225952148
0.4972909927368164,0.4593114852905273
0.4972909927368164,0.4593114852905273
0.4987243652343750,0.4760976791381836
0.4987243652343750,0.4760976791381836
0.4789352416992188,0.4541662216186523
0.4789352416992188,0.4541662216186523
0.5081897735595703,0.4812063217163086
0.5081897735595703,0.4812063217163086
0.4806541442871093,0.4714731216430664
0.4806541442871093,0.4714731216430664
0.4966260910034179,0.4512199401855468
0.4966260910034179,0.4512199401855468
0.4997051239013672,0.4879451751708984
0.5069669723510742,0.4879451751708984
0.4801214218139648,0.4575977325439453
0.4801214218139648,0.4575977325439453
0.5102806091308594,0.4824308395385742
0.5102806091308594,0.4824308395385742
0.4799732208251953,0.4630840301513672
0.4799732208251953,0.4630840301513672
0.4976051330566406,0.4627017974853516
0.4976051330566406,0.4627017974853516
0.5007843017578125,0.4896165847778320
0.5007843017578125,0.4896165847778320
0.4820692062377929,0.4570644378662109
0.4820692062377929,0.4570644378662109
0.5093421936035156,0.4737682342529297
0.5093421936035156,0.4737682342529297
0.4807502746582031,0.4746025085449219
0.4807502746582031,0.4746025085449219
0.4987077713012695,0.4661453247070312
0.4987077713012695,0.4661453247070312
0.5030725479125976,0.4910940170288086
0.5030725479125976,0.4910940170288086
0.4816761016845703,0.4493637084960938
0.4816761016845703,0.4493637084960938
0.5107292175292969,0.4862628936767578
0.5107292175292969,0.4862628936767578
0.4824920654296875,0.4775545120239257
0.4824920654296875,0.4775545120239257
0.5013753890991210,0.4670734405517578
0.5013753890991210,0.4670734405517578
0.5030370712280273,0.4841623306274414
0.5030370712280273,0.4841623306274414
0.4830860137939453,0.4623046875000000
0.4830860137939453,0.4623046875000000
0.5125310897827148,0.4907552719116210
0.5125310897827148,0.4907552719116210
0.4851900100708008,0.4798027038574219
0.4851900100708008,0.4798027038574219
0.5012786865234374,0.4596960067749023
0.5012786865234374,0.4596960067749023
0.5042249679565429,0.4962896347045898
0.5042249679565429,0.4962896347045898
0.4847871780395507,0.4647748947143555
0.4847871780395507,0.4647748947143555
0.5148834228515625,0.4908210754394531
0.5148834228515625,0.4908210754394531
0.4841800689697265,0.4705169677734375
0.4841800689697265,0.4705169677734375
0.5010818481445313,0.4691574096679687
0.5010818481445313,0.4691574096679687
0.5029941558837890,0.4944614410400390
0.5029941558837890,0.4944614410400390
0.4821058273315429,0.4560705184936523
0.4821058273315429,0.4560705184936523
0.5064748764038086,0.4679506301879883
0.5064748764038086,0.4679506301879883
0.4751186370849609,0.4632694244384765
0.4751186370849609,0.4632694244384765
0.4903879165649414,0.4487016677856445
0.4903879165649414,0.4487016677856445
0.4921440124511718,0.4709976196289062
0.4921440124511718,0.4709976196289062
0.4687459945678711,0.4260446548461914
0.4687459945678711,0.4260446548461914
0.4962993621826172,0.4607036590576172
0.4962993621826172,0.4607036590576172
0.4671283721923828,0.4514648437500000
0.4671283721923828,0.4514648437500000
0.4859624862670898,0.4391618728637695
0.4859624862670898,0.4391618728637695
0.4870382308959961,0.4559371948242187
0.4870382308959961,0.4559371948242187
0.4673109054565430,0.4336263656616211
0.4673109054565430,0.4336263656616211
0.4966020584106445,0.4609165191650391
0.4966020584106445,0.4609165191650391
0.4691654205322265,0.4508708953857422
0.4691654205322265,0.4508708953857422
0.4853822708129882,0.4314971923828125
0.4853822708129882,0.4314971923828125
0.4883245468139648,0.4677566528320312
0.4883245468139648,0.4677566528320312
0.4689010620117187,0.4374172210693359
0.4689010620117187,0.4374172210693359
0.4991003036499023,0.4628065109252930
0.4991003036499023,0.4628065109252930
0.4690464019775391,0.4438653945922851
0.4690464019775391,0.4438653945922851
0.4871103286743164,0.4442516326904297
0.4871103286743164,0.4442516326904297
0.4907592773437500,0.4720012664794921
0.4907592773437500,0.4720012664794921
0.4782875061035156,0.4650232315063476
0.4782875061035156,0.4688507080078125
0.4782875061035156,0.4688507080078125
0.4786182403564453,0.4434682846069336
0.4786182403564453,0.4434682846069336
0.5001892089843750,0.4802742004394531
0.5001892089843750,0.4802742004394531
0.4691070556640625,0.4477638244628906
0.4691070556640625,0.4477638244628906
0.4975599288940429,0.4610137939453125
0.4975599288940429,0.4610137939453125
0.4801271438598633,0.4698795318603515
0.4801271438598633,0.4698795318603515
0.4800373077392578,0.4495908737182617
0.4683340072631836,0.4495908737182617
0.5003065109252930,0.4756919860839843
0.5003065109252930,0.4756919860839843
0.4682310104370117,0.4463001251220703
0.4682310104370117,0.4463001251220703
0.4962575912475586,0.4588050842285156
0.4962575912475586,0.4588050842285156
0.4796453475952148,0.4745618820190429
0.4796453475952148,0.4745618820190429
0.4795389175415039,0.4442636489868164
0.4795389175415039,0.4442636489868164
0.5002172470092773,0.4753154754638672
0.5002172470092773,0.4753154754638672
0.4683929443359375,0.4450761795043945
0.4683929443359375,0.4450761795043945
0.4972469329833984,0.4648733139038086
0.4972469329833984,0.4648733139038086
0.4807222366333008,0.4721426010131836
0.4807222366333008,0.4721426010131836
0.4803857803344727,0.4466457366943359
0.4803857803344727,0.4466457366943359
0.5012351989746093,0.4776838302612305
0.5012351989746093,0.4776838302612305
0.4706027984619141,0.4544734954833984
0.4897825241088867,0.4544734954833984
0.4992279052734375,0.4641843795776367
0.4992279052734375,0.4641843795776367
0.4825710296630859,0.4755523681640625
0.4825710296630859,0.4755523681640625
0.4823919296264648,0.4483074188232422
0.4823919296264648,0.4483074188232422
0.5036167144775391,0.4863407135009765
0.5036167144775391,0.4863407135009765
0.4725637435913086,0.4535305023193359
0.4725637435913086,0.4535305023193359
0.5006710052490234,0.4675832748413086
0.5006710052490234,0.4675832748413086
0.4838172912597656,0.4784437179565429
0.4838172912597656,0.4784437179565429
0.4845748901367187,0.4579370498657226
0.4845748901367187,0.4579370498657226
0.5053087234497070,0.4851448059082031
0.5053087234497070,0.4851448059082031
0.4742448806762695,0.4564744949340820
0.4742448806762695,0.4564744949340820
0.5022645950317383,0.4684713363647461
0.5022645950317383,0.4684713363647461
0.4856821060180664,0.4859521865844726
0.4856821060180664,0.4859521865844726
0.4859270095825195,0.4558130264282226
0.4859270095825195,0.4558130264282226
0.5060880661010742,0.4872968673706055
0.5060880661010742,0.4872968673706055
0.4748903274536133,0.4580984115600586
0.4748903274536133,0.4580984115600586
0.5037242889404296,0.4768043518066406
0.5037242889404296,0.4768043518066406
0.4868894577026367,0.4837051391601562
0.4868894577026367,0.4837051391601562
0.4869300842285156,0.4578151702880859
0.4869300842285156,0.4578151702880859
0.5070150375366210,0.4869935989379883
0.5070150375366210,0.4869935989379883
0.4762687683105469,0.4646472930908203
0.4762687683105469,0.4646472930908203
0.5046873092651367,0.4741567611694336
0.5046873092651367,0.4741567611694336
0.4872465133666992,0.4850938796997070
0.4872465133666992,0.4850938796997070
0.4872556686401367,0.4588897705078125
0.4872556686401367,0.4588897705078125
0.5083385467529297,0.4950393676757812
0.5083385467529297,0.4950393676757812
0.4772409439086914,0.4619796752929687
0.4772409439086914,0.4619796752929687
0.5054483413696289,0.4755140304565429
0.5054483413696289,0.4755140304565429
0.4880149841308594,0.4845159530639648
0.4880149841308594,0.4845159530639648
0.4885305404663086,0.4651336669921875
0.4885305404663086,0.4651336669921875
0.5091464996337890,0.4919660568237305
0.5091464996337890,0.4919660568237305
0.4775407791137695,0.4633123397827148
0.4775407791137695,0.4633123397827148
0.5059158325195312,0.4766675949096679
0.5059158325195312,0.4766675949096679
0.4893590927124023,0.4927585601806641
0.4893590927124023,0.4927585601806641
0.4896921157836914,0.4629804611206054
0.4896921157836914,0.4629804611206054
0.5105100631713867,0.4944259643554687
0.5105100631713867,0.4944259643554687
0.4788780212402344,0.4637992858886719
0.4788780212402344,0.4637992858886719
0.5078865051269531,0.4844038009643554
0.5078865051269531,0.4844038009643554
0.4909555435180664,0.4911483764648437
0.4909555435180664,0.4911483764648437
0.4908525466918945,0.4658323287963867
0.4787561416625976,0.4658323287963867
0.5114089965820312,0.4965888977050781
0.5114089965820312,0.4965888977050781
0.4806238174438476,0.4730901718139648
0.4806238174438476,0.4730901718139648
0.5092145919799804,0.4826831817626953
0.5092145919799804,0.4826831817626953
0.4922401428222656,0.4934864044189453
0.4922401428222656,0.4934864044189453
0.4916484832763672,0.4657018661499023
0.4916484832763672,0.4657018661499023
0.5125265121459961,0.5029375076293945
0.5125265121459961,0.5029375076293945
0.4808229446411132,0.4682762145996093
0.4808229446411132,0.4682762145996093
0.5072948455810546,0.4791881561279296
0.5072948455810546,0.4791881561279296
0.4878976821899414,0.4848930358886718
0.4878976821899414,0.4848930358886718
0.4855241775512695,0.4587060928344726
0.4855241775512695,0.4587060928344726
0.5030685424804687,0.4803525924682617
0.5030685424804687,0.4803525924682617
0.4690721511840820,0.4464815139770508
0.4690721511840820,0.4464815139770508
0.4945203781127929,0.4541009902954101
0.4945203781127929,0.4541009902954101
0.4757858276367187,0.4677629470825195
0.4757858276367187,0.4677629470825195
0.4746362686157226,0.4357532501220703
0.4746362686157226,0.4357532501220703
0.4937828063964844,0.4655078887939453
0.4937828063964844,0.4655078887939453
0.4622011184692383,0.4355066299438476
0.4622011184692383,0.4355066299438476
0.4907638549804687,0.4536884307861328
0.4907638549804687,0.4536884307861328
0.4733751296997070,0.4601114273071289
0.4733751296997070,0.4601114273071289
0.4738946914672851,0.4343164443969726
0.4738946914672851,0.4343164443969726
0.4938863754272461,0.4634862899780273
0.4938863754272461,0.4634862899780273
0.4629301071166992,0.4406793594360351
0.4629301071166992,0.4406793594360351
0.4913509368896484,0.4502277374267578
0.4913509368896484,0.4502277374267578
0.4737785339355469,0.4606784820556640
0.4737785339355469,0.4606784820556640
0.4737413406372070,0.4343095779418945
0.4737413406372070,0.4343095779418945
0.4945924758911133,0.4703012466430664
0.4945924758911133,0.4703012466430664
0.4633901596069336,0.4375711441040039
0.4633901596069336,0.4375711441040039
0.4921977996826172,0.4518018722534179
0.4921977996826172,0.4518018722534179
0.4749870300292969,0.4615076065063476
0.4749870300292969,0.4615076065063476
0.4763008117675781,0.4430076599121094
0.4763008117675781,0.4430076599121094
0.4972806930541992,0.4709449768066406
0.4972806930541992,0.4709449768066406
0.4661945343017578,0.4430946350097656
0.4661945343017578,0.4430946350097656
0.4950479507446289,0.4571857452392578
0.4950479507446289,0.4571857452392578
0.4783538818359375,0.4730237960815429
0.4783538818359375,0.4730237960815429
0.4789352416992188,0.4432731628417969
0.4789352416992188,0.4432731628417969
0.4992216110229492,0.4740720748901367
0.4992216110229492,0.4740720748901367
0.4673143386840820,0.4427833557128906
0.4673143386840820,0.4427833557128906
0.4958684921264648,0.4622697830200195
0.4958684921264648,0.4622697830200195
0.4782611846923828,0.4683025360107422
0.4782611846923828,0.4683025360107422
0.4778738021850586,0.4422557830810547
0.4778738021850586,0.4422557830810547
0.4982219696044922,0.4726604461669922
0.4982219696044922,0.4726604461669922
0.4673784255981445,0.4484247207641601
0.4673784255981445,0.4484247207641601
0.4958530426025390,0.4583135604858398
0.4958530426025390,0.4583135604858398
0.4786663055419922,0.4692180633544922
0.5017353057861328,0.4692180633544922
0.4787641525268554,0.4418552398681641
0.4787641525268554,0.4418552398681641
0.4997028350830078,0.4796064376831055
0.4997028350830078,0.4796064376831055
0.4687351226806640,0.4468763351440430
0.4687351226806640,0.4468763351440430
0.4969848632812500,0.4612644195556641
0.4969848632812500,0.4612644195556641
0.4799314498901367,0.4717683792114258
0.4799314498901367,0.4717683792114258
0.4809562683105468,0.4515380859375000
0.4809562683105468,0.4515380859375000
0.5016592025756835,0.4788442611694336
0.5016592025756835,0.4788442611694336
0.4709575653076172,0.4504280090332031
0.4753372192382812,0.4628242492675781
0.4822751998901367,0.4801963806152343
0.4822751998901367,0.4801963806152343
0.4829504013061523,0.4506958007812500
0.4829504013061523,0.4506958007812500
0.5031103134155274,0.4823003768920898
0.5031103134155274,0.4823003768920898
0.4721054077148437,0.4531471252441406
0.4721054077148437,0.4531471252441406
0.5011590957641602,0.4720785140991210
0.5011590957641602,0.4720785140991210
0.4839340209960937,0.4787956237792969
0.4839340209960937,0.4787956237792969
0.4844781875610351,0.4534572601318359
0.4844781875610351,0.4534572601318359
0.5046089172363281,0.4827615737915039
0.5046089172363281,0.4827615737915039
0.4739799499511719,0.4602373123168945
0.4739799499511719,0.4602373123168945
0.5024539947509765,0.4700935363769531
0.5024539947509765,0.4700935363769531
0.4846853256225586,0.4808830261230468
0.4846853256225586,0.4808830261230468
0.4850950241088867,0.4548700332641601
0.4850950241088867,0.4548700332641601
0.5060565948486327,0.4910774230957031
0.5060565948486327,0.4910774230957031
0.4749584197998047,0.4580720901489257
0.4749584197998047,0.4580720901489257
0.5034782409667968,0.4721031188964844
0.5034782409667968,0.4721031188964844
0.4856723785400390,0.4808040618896484
0.4856723785400390,0.4808040618896484
0.4865804672241211,0.4616140365600586
0.4865804672241211,0.4616140365600586
0.5070241928100586,0.4884962081909179
0.5070241928100586,0.4884962081909179
0.4754934310913086,0.4598413467407226
0.4754934310913086,0.4598413467407226
0.5039531707763671,0.4733104705810547
0.5039531707763671,0.4733104705810547
0.4870336532592773,0.4887651443481445
0.4870336532592773,0.4887651443481445
0.4874364852905273,0.4591787338256836
0.4874364852905273,0.4591787338256836
0.5079397201538086,0.4902654647827148
0.5079397201538086,0.4902654647827148
0.4762521743774414,0.4592811584472656
0.4762521743774414,0.4592811584472656
0.5050889968872070,0.4796287536621093
0.5050889968872070,0.4796287536621093
0.4877500534057617,0.4861421585083008
0.4877500534057617,0.4861421585083008
0.4877986907958984,0.4605920791625976
0.4877986907958984,0.4605920791625976
0.5083889007568360,0.4912719726562500
0.5083889007568360,0.4912719726562500
0.4777467727661133,0.4676273345947266
0.4777467727661133,0.4676273345947266
0.5062808990478516,0.4776483535766601
0.5062808990478516,0.4776483535766601
0.4891290664672852,0.4884498596191406
0.4891290664672852,0.4884498596191406
0.4893035888671875,0.4611053466796875
0.4893035888671875,0.4611053466796875
0.5102359771728515,0.4988908767700195
0.5102359771728515,0.4988908767700195
0.4791418075561523,0.4661041259765625
0.4791418075561523,0.4661041259765625
0.5074687957763672,0.4803285598754883
0.5074687957763672,0.4803285598754883
0.4902139663696289,0.4906517028808594
0.4902139663696289,0.4906517028808594
0.4911352157592773,0.4702463150024414
0.4911352157592773,0.4702463150024414
0.5117042541503906,0.4972417831420898
0.5117042541503906,0.4972417831420898
0.4806238174438476,0.4683116912841797
0.4806238174438476,0.4683116912841797
0.5084678649902343,0.4801975250244140
0.5084678649902343,0.4801975250244140
0.5133922576904296,0.4912193298339844
0.5133922576904296,0.4912193298339844
0.4851716995239257,0.4780574798583984
0.4851716995239257,0.4780574798583984
0.4988199234008789,0.4546308517456055
0.4988199234008789,0.4546308517456055
0.4981069564819336,0.4851905822753906
0.4981069564819336,0.4851905822753906
0.4761096954345703,0.4496400833129883
0.4761096954345703,0.4496400833129883
0.5037420272827148,0.4694406509399414
0.5037420272827148,0.4694406509399414
0.4695402145385742,0.4449474334716797
0.4695402145385742,0.4449474334716797
0.4857822418212890,0.4412961959838867
0.4857822418212890,0.4412961959838867
0.4867624282836914,0.4654129028320312
0.4867624282836914,0.4654129028320312
0.4682910919189453,0.4316694259643555
0.4682910919189453,0.4316694259643555
0.4942874908447266,0.4481723785400391
0.4942874908447266,0.4481723785400391
0.4648509979248047,0.4469089508056641
0.4648509979248047,0.4469089508056641
0.4833326339721680,0.4387115478515625
0.4833326339721680,0.4387115478515625
0.4875297546386719,0.4629713058471679
0.4875297546386719,0.4629713058471679
0.4655319213867187,0.4213897705078125
0.4655319213867187,0.4213897705078125
0.4942577362060547,0.4574094772338867
0.4942577362060547,0.4574094772338867
0.4654214859008789,0.4470577239990234
0.4654214859008789,0.4470577239990234
0.4854812622070312,0.4369560241699219
0.4854812622070312,0.4369560241699219
0.4851871490478515,0.4534606933593750
0.4851871490478515,0.4534606933593750
0.4655416488647461,0.4306978225708007
0.4655416488647461,0.4306978225708007
0.4945993423461914,0.4590631484985351
0.4945993423461914,0.4590631484985351
0.4677349090576172,0.4471223831176758
0.4677349090576172,0.4471223831176758
0.4839477539062500,0.4289394378662109
0.4839477539062500,0.4289394378662109
0.4864797592163086,0.4652853012084961
0.4864797592163086,0.4652853012084961
0.4678974151611328,0.4348062515258789
0.4678974151611328,0.4348062515258789
0.4993406295776367,0.4622491836547851
0.4993406295776367,0.4622491836547851
0.4683431625366211,0.4433624267578125
0.4683431625366211,0.4433624267578125
0.4868974685668945,0.4439495086669922
0.4868974685668945,0.4439495086669922
0.4898174285888672,0.4719005584716797
0.4898174285888672,0.4719005584716797
0.4723423004150391,0.4384202957153320
0.4723423004150391,0.4384202957153320
0.4984874725341797,0.4556425094604492
0.4984874725341797,0.4556425094604492
0.4693479537963867,0.4541971206665039
0.4693479537963867,0.4541971206665039
0.4876768112182617,0.4445949554443359
0.4876768112182617,0.4445949554443359
0.4917131423950195,0.4701393127441406
0.4917131423950195,0.4701393127441406
0.4695505142211914,0.4286304473876953
0.4695505142211914,0.4286304473876953
0.4983072280883789,0.4648000717163085
0.4983072280883789,0.4648000717163085
0.4695653915405273,0.4558279037475585
0.4695653915405273,0.4558279037475585
0.4901000976562500,0.4448982238769531
0.4901000976562500,0.4448982238769531
0.4898300170898438,0.4619585037231445
0.4898300170898438,0.4619585037231445
0.4707172393798828,0.4398038864135742
0.4707172393798828,0.4398038864135742
0.4999769210815430,0.4673624038696289
0.4999769210815430,0.4673624038696289
0.4732784271240234,0.4570964813232422
0.4991168975830078,0.4570964813232422
0.4891742706298828,0.4386571884155273
0.4891742706298828,0.4386571884155273
0.4918802261352539,0.4747512817382812
0.4918802261352539,0.4747512817382812
0.4727914810180664,0.4450904846191406
0.4727914810180664,0.4450904846191406
0.5039926528930664,0.4706886291503906
0.5039926528930664,0.4706886291503906
0.4728641510009766,0.4513051986694336
0.4728641510009766,0.4513051986694336
0.4914957046508789,0.4517194747924804
0.4914957046508789,0.4517194747924804
0.4941329956054688,0.4785896301269531
0.4941329956054688,0.4785896301269531
0.4769805908203125,0.4467418670654297
0.4769805908203125,0.4467418670654297
0.5034456253051758,0.4644693374633789
0.5034456253051758,0.4644693374633789
0.4745979309082031,0.4639669418334961
0.4745979309082031,0.4639669418334961
0.4934097290039062,0.4563903808593750
0.4934097290039062,0.4563903808593750
0.4978803634643554,0.4810340881347656
0.4978803634643554,0.4810340881347656
0.4758956909179687,0.4399240493774414
0.4758956909179687,0.4399240493774414
0.5048795700073242,0.4764581680297851
0.5048795700073242,0.4764581680297851
0.4762155532836914,0.4666969299316406
0.4762155532836914,0.4666969299316406
0.4967525482177734,0.4569173812866211
0.4967525482177734,0.4569173812866211
0.4964864730834961,0.4737367630004883
0.4964864730834961,0.4737367630004883
0.4771087646484375,0.4515518188476562
0.4771087646484375,0.4515518188476562
0.5062917709350586,0.4801391601562500
0.5062917709350586,0.4801391601562500
0.4796339035034179,0.4684169769287109
0.4796339035034179,0.4684169769287109
0.4953094482421875,0.4494197845458984
0.4748966217041015,0.4494197845458984
0.4975988388061523,0.4851671218872070
0.4975988388061523,0.4851671218872070
0.4783870697021484,0.4538709640502929
0.4811902999877929,0.4538709640502929
0.5096500396728515,0.4804870605468750
0.5096500396728515,0.4804870605468750
0.4780986785888672,0.4607980728149414
0.4780986785888672,0.4607980728149414
0.4963937759399414,0.4609897613525391
0.4963937759399414,0.4609897613525391
0.4990900039672851,0.4888584136962890
0.4990900039672851,0.4888584136962890
0.4818523406982422,0.4553421020507812
0.4816572189331054,0.4553421020507812
0.5079414367675781,0.4727136611938476
0.5079414367675781,0.4727136611938476
0.4791177749633789,0.4720550537109375
0.4791177749633789,0.4720550537109375
0.4974077224731445,0.4629158020019531
0.4974077224731445,0.4629158020019531
0.5023292541503906,0.4887880325317382
0.5023292541503906,0.4887880325317382
0.4800378799438476,0.4474576950073242
0.4800378799438476,0.4474576950073242
0.5088815689086914,0.4841136932373047
0.5088815689086914,0.4841136932373047
0.4804521560668945,0.4757823944091797
0.4804521560668945,0.4757823944091797
0.5009136199951172,0.4647451400756836
0.5009136199951172,0.4647451400756836
0.5008850097656250,0.4818025588989258
0.5008850097656250,0.4818025588989258
0.4815673828125000,0.4597560882568359
0.4815673828125000,0.4597560882568359
0.5107406616210938,0.4873443603515625
0.5107406616210938,0.4873443603515625
0.4843053817749023,0.4770664215087890
0.4843053817749023,0.4770664215087890
0.4998081207275391,0.4580091476440429
0.4998081207275391,0.4580091476440429
0.5024471282958984,0.4943635940551758
0.5024471282958984,0.4943635940551758
0.4833211898803711,0.4641443252563476
0.4833211898803711,0.4641443252563476
0.5145692825317383,0.4894420623779296
0.5145692825317383,0.4894420623779296
0.4829286575317382,0.4697639465332031
0.4829286575317382,0.4697639465332031
0.5009868621826171,0.4695350646972656
0.5009868621826171,0.4695350646972656
0.5035892486572265,0.4957477569580078
0.5035892486572265,0.4957477569580078
0.4857038497924804,0.4624248504638672
0.4857038497924804,0.4624248504638672
0.5107921600341797,0.4772706985473633
0.5107921600341797,0.4772706985473633
0.4797466278076172,0.4727342605590820
0.4797466278076172,0.4727342605590820
0.4952522277832031,0.4594659805297852
0.4952522277832031,0.4594659805297852
0.4973562240600586,0.4790176391601562
0.4973562240600586,0.4790176391601562
0.4720819473266601,0.4321798324584961
0.4720819473266601,0.4321798324584961
0.4981121063232422,0.4639348983764648
0.4981121063232422,0.4639348983764648
0.4672536849975586,0.4505298614501953
0.4672536849975586,0.4505298614501953
0.4860013961791992,0.4378749847412109
0.4860013961791992,0.4378749847412109
0.4849731445312500,0.4534149169921875
0.4849731445312500,0.4534149169921875
0.4648326873779297,0.4299665451049804
0.4648326873779297,0.4299665451049804
0.4936071395874023,0.4578512191772461
0.4936071395874023,0.4578512191772461
0.4670940399169922,0.4460678100585938
0.4670940399169922,0.4460678100585938
0.4822454452514648,0.4267416000366211
0.4822454452514648,0.4267416000366211
0.4847911834716797,0.4623413085937500
0.4847911834716797,0.4623413085937500
0.4653699874877930,0.4305330276489258
0.4653699874877930,0.4305330276489258
0.4965156555175781,0.4568550109863281
0.4965156555175781,0.4568550109863281
0.4648012161254882,0.4374687194824219
0.4648012161254882,0.4374687194824219
0.4826471328735351,0.4366807937622070
0.4826471328735351,0.4366807937622070
0.4855110168457031,0.4645545959472656
0.4855110168457031,0.4645545959472656
0.4683385848999023,0.4311847686767578
0.4683385848999023,0.4311847686767578
0.4946474075317382,0.4490730285644531
0.4946474075317382,0.4490730285644531
0.4662036895751953,0.4492767333984375
0.4662036895751953,0.4492767333984375
0.4848255157470703,0.4406896591186523
0.4644882202148437,0.4406896591186523
0.4905418395996093,0.4678613662719726
0.4905418395996093,0.4678613662719726
0.4685537338256835,0.4275020599365234
0.4685537338256835,0.4275020599365234
0.4978202819824218,0.4642438888549805
0.4978202819824218,0.4642438888549805
0.4694761276245117,0.4563692092895508
0.4694761276245117,0.4563692092895508
0.4900960922241211,0.4446109771728515
0.4900960922241211,0.4446109771728515
0.4897716522216797,0.4612976074218750
0.4897716522216797,0.4612976074218750
0.4698005676269531,0.4382921218872070
0.4698005676269531,0.4382921218872070
0.4983507156372070,0.4648429870605468
0.4983507156372070,0.4648429870605468
0.4717689514160156,0.4541931152343750
0.4717689514160156,0.4541931152343750
0.4866239547729492,0.4341985702514649
0.4866239547729492,0.4341985702514649
0.4891262054443359,0.4699636459350586
0.4891262054443359,0.4699636459350586
0.4696935653686523,0.4393037796020507
0.4696935653686523,0.4393037796020507
0.5010503768920899,0.4646352767944336
0.5010503768920899,0.4646352767944336
0.4694280624389648,0.4457073211669922
0.4694280624389648,0.4457073211669922
0.4874176025390625,0.4452701568603515
0.4874176025390625,0.4452701568603515
0.4906402587890625,0.4724361419677734
0.4906402587890625,0.4724361419677734
0.4736812591552734,0.4404390335083008
0.4736749649047851,0.4404390335083008
0.4997772216796875,0.4582906723022461
0.4997772216796875,0.4582906723022461
0.4713071823120117,0.4584537506103515
0.4713071823120117,0.4584537506103515
0.4897607803344726,0.4504039764404297
0.4897607803344726,0.4504039764404297
0.4951257705688477,0.4756902694702148
0.4951257705688477,0.4756902694702148
0.4728263854980468,0.4347719192504882
0.4728263854980468,0.4347719192504882
0.5019681930541992,0.4711721420288086
0.5019681930541992,0.4711721420288086
0.4734523773193359,0.4622972488403320
0.4734523773193359,0.4622972488403320
0.4941038131713867,0.4521669387817382
0.4941038131713867,0.4521669387817382
0.4940706253051758,0.4694869995117187
0.4940706253051758,0.4694869995117187
0.4744096755981445,0.4470926284790039
0.4744096755981445,0.4470926284790039
0.5035560607910156,0.4756101608276367
0.5035560607910156,0.4756101608276367
0.4775459289550781,0.4645254135131835
0.4775459289550781,0.4645254135131835
0.4924369812011719,0.4449525833129883
0.4924369812011719,0.4449525833129883
0.4953186035156250,0.4811857223510742
0.4953186035156250,0.4811857223510742
0.4759157180786133,0.4495428085327148
0.4759157180786133,0.4495428085327148
0.5074195861816406,0.4759506225585937
0.5074195861816406,0.4759506225585937
0.4757194519042969,0.4570077896118164
0.4757194519042969,0.4570077896118164
0.4935602188110351,0.4565420150756836
0.4935602188110351,0.4565420150756836
0.4967628479003906,0.4848014831542968
0.4967628479003906,0.4848014831542968
0.4840627670288086,0.4790536880493164
0.5068353652954102,0.4790536880493164
0.4833515167236328,0.4510688781738281
0.4715452194213867,0.4510688781738281
0.5045322418212891,0.4886850357055664
0.5045322418212891,0.4886850357055664
0.4732578277587891,0.4560390472412109
0.4732578277587891,0.4560390472412109
0.5012386322021484,0.4693737030029297
0.5012386322021484,0.4693737030029297
0.4844839096069335,0.4803131103515625
0.4844839096069335,0.4803131103515625
0.4846441268920898,0.4586626052856445
0.4846441268920898,0.4586626052856445
0.5054203033447265,0.4859064102172851
0.5054203033447265,0.4859064102172851
0.4741487503051758,0.4573036193847656
0.4741487503051758,0.4573036193847656
0.5018102645874023,0.4683094024658203
0.5018102645874023,0.4683094024658203
0.4857696533203125,0.4861896514892578
0.5089256286621093,0.4861896514892578
0.4854755401611328,0.4562250137329101
0.4854755401611328,0.4562250137329101
0.5060817718505859,0.4877946853637695
0.5060817718505859,0.4877946853637695
0.4747289657592773,0.4589481353759766
0.4747289657592773,0.4589481353759766
0.5035577774047851,0.4770664215087890
0.5035577774047851,0.4770664215087890
0.4870496749877929,0.4849433898925781
0.5140136718750000,0.4849433898925781
0.4871801376342773,0.4589910507202148
0.4871801376342773,0.4589910507202148
0.5075202941894531,0.4884670257568359
0.5075202941894531,0.4884670257568359
0.4767391204833984,0.4663965225219726
0.4767391204833984,0.4663965225219726
0.5050815582275391,0.4758161544799804
0.5050815582275391,0.4758161544799804
0.4883331298828125,0.4875503540039062
0.4883331298828125,0.4875503540039062
0.4878639221191406,0.4609090805053710
0.4878639221191406,0.4609090805053710
0.5092134475708008,0.4972452163696289
0.5092134475708008,0.4972452163696289
0.4779052734375000,0.4646621704101562
0.4779052734375000,0.4646621704101562
0.5062065124511719,0.4777421951293945
0.5062065124511719,0.4777421951293945
0.4890769958496093,0.4866840362548828
0.4890769958496093,0.4866840362548828
0.4886157989501953,0.4656492233276367
0.4886157989501953,0.4656492233276367
0.5081920623779297,0.4904354095458984
0.5081920623779297,0.4904354095458984
0.4742082595825195,0.4578054428100586
0.4742082595825195,0.4578054428100586
0.4995872497558593,0.4652807235717773
0.4995872497558593,0.4652807235717773
0.4810523986816406,0.4764398574829101
0.4810523986816406,0.4764398574829101
0.4774990081787109,0.4411302566528320
0.4774990081787109,0.4411302566528320
0.4958719253540039,0.4680181503295898
0.4958719253540039,0.4680181503295898
0.4618789672851562,0.4341070175170899
0.4618789672851562,0.4341070175170899
0.4891960144042968,0.4510734558105469
0.4891960144042968,0.4510734558105469
0.4720510482788086,0.4576961517333984
0.4720510482788086,0.4576961517333984
0.4709175109863281,0.4308912277221680
0.4709175109863281,0.4308912277221680
0.4915323257446289,0.4613788604736328
0.4915323257446289,0.4613788604736328
0.4605388641357422,0.4375957489013672
0.4605388641357422,0.4375957489013672
0.4887331008911133,0.4467802047729492
0.4887331008911133,0.4467802047729492
0.4724910736083984,0.4583576202392578
0.4724910736083984,0.4583576202392578
0.4714988708496093,0.4302457809448242
0.4714988708496093,0.4302457809448242
0.4928884506225586,0.4674608230590820
0.4928884506225586,0.4674608230590820
0.4614572525024414,0.4351570129394531
0.4614572525024414,0.4351570129394531
0.4892955780029297,0.4481769561767578
0.4892955780029297,0.4481769561767578
0.4732275009155273,0.4596422195434570
0.4732275009155273,0.4596422195434570
0.4732166290283203,0.4386137008666992
0.4732166290283203,0.4386137008666992
0.4945650100708008,0.4668251037597656
0.4945650100708008,0.4668251037597656
0.4637048721313476,0.4395795822143554
0.4637048721313476,0.4395795822143554
0.4920667648315429,0.4515649795532226
0.4920667648315429,0.4515649795532226
0.4770046234130859,0.4702125549316406
0.4770046234130859,0.4702125549316406
0.4766040802001953,0.4405946731567383
0.4766040802001953,0.4405946731567383
0.4974071502685546,0.4722324371337890
0.4974071502685546,0.4722324371337890
0.4657876968383789,0.4428983688354492
0.4657876968383789,0.4428983688354492
0.4941152572631836,0.4598928451538086
0.4941152572631836,0.4598928451538086
0.4773359298706055,0.4669509887695312
0.4773359298706055,0.4669509887695312
0.4765926361083984,0.4397758483886718
0.4765926361083984,0.4397758483886718
0.4965791702270508,0.4682790756225585
0.4965791702270508,0.4682790756225585
0.4651611328125000,0.4454469680786133
0.4651611328125000,0.4454469680786133
0.4930984497070312,0.4541702270507812
0.4930984497070312,0.4541702270507812
0.4765085220336914,0.4660148620605469
0.4765085220336914,0.4660148620605469
0.4758138656616211,0.4393049240112304
0.4758138656616211,0.4393049240112304
0.4972715377807617,0.4752897262573242
0.4972715377807617,0.4752897262573242
0.4660617828369140,0.4432771682739258
0.4660617828369140,0.4432771682739258
0.4944906234741211,0.4564601898193359
0.4944906234741211,0.4564601898193359
0.4778806686401367,0.4665784835815430
0.4778806686401367,0.4665784835815430
0.4778921127319335,0.4468626022338867
0.4778921127319335,0.4468626022338867
0.4992198944091797,0.4747398376464844
0.4992198944091797,0.4747398376464844
0.4676799774169922,0.4468276977539062
0.4676799774169922,0.4468276977539062
0.4958976745605468,0.4595764160156250
0.4958976745605468,0.4595764160156250
0.4805065155029297,0.4762344360351562
0.4805065155029297,0.4762344360351562
0.4797380447387695,0.4464345932006836
0.4797380447387695,0.4464345932006836
0.5012397766113281,0.4779602050781250
0.5012397766113281,0.4779602050781250
0.4691545486450195,0.4479578018188476
0.4691545486450195,0.4479578018188476
0.4980279922485351,0.4670316696166992
0.4980279922485351,0.4670316696166992
0.4820285797119140,0.4751718521118164
0.4820285797119140,0.4751718521118164
0.4810832977294922,0.4492835998535156
0.4810832977294922,0.4492835998535156
0.5020133972167968,0.4799600601196289
0.5020133972167968,0.4799600601196289
0.4711452484130859,0.4563663482666016
0.4711452484130859,0.4563663482666016
0.4993309020996093,0.4654340744018555
0.4993309020996093,0.4654340744018555
0.4833274841308594,0.4773302078247070
0.4833274841308594,0.4773302078247070
0.4821155548095703,0.4489253997802734
0.4821155548095703,0.4489253997802734
0.5034645080566406,0.4866577148437500
0.5034645080566406,0.4866577148437500
0.4721866607666015,0.4545581817626953
0.4721866607666015,0.4545581817626953
0.5001165390014648,0.4673154830932617
0.5001165390014648,0.4673154830932617
0.4837686538696289,0.4787590026855468
0.4837686538696289,0.4787590026855468
0.4836730957031250,0.4572761535644531
0.4836730957031250,0.4572761535644531
0.5045740127563476,0.4844758987426758
0.5045740127563476,0.4844758987426758
0.4733568191528320,0.4562713623046875
0.4733568191528320,0.4562713623046875
0.5008758544921875,0.4670242309570312
0.5008758544921875,0.4670242309570312
0.4852369308471680,0.4849805831909180
0.4852369308471680,0.4849805831909180
0.4843036651611328,0.4546846389770507
0.4843036651611328,0.4546846389770507
0.5050598144531250,0.4858314514160156
0.5050598144531250,0.4858314514160156
0.4733877182006836,0.4570472717285156
0.4733877182006836,0.4570472717285156
0.5020133972167968,0.4745304107666015
0.5020133972167968,0.4745304107666015
0.4859939575195312,0.4823833465576172
0.4859939575195312,0.4823833465576172
0.4854475021362304,0.4563051223754883
0.4854475021362304,0.4563051223754883
0.5058649063110351,0.4854812622070312
0.5058649063110351,0.4854812622070312
0.4750322341918945,0.4638307571411133
0.4750322341918945,0.4638307571411133
0.5032321929931640,0.4727783203125000
0.5032321929931640,0.4727783203125000
0.4871704101562500,0.4850200653076172
0.4871704101562500,0.4850200653076172
0.4862491607666015,0.4585046768188477
0.4862491607666015,0.4585046768188477
0.5078355789184570,0.4947298049926758
0.5078355789184570,0.4947298049926758
0.4764610290527344,0.4628019332885742
0.4764610290527344,0.4628019332885742
0.5050363540649414,0.4756135940551758
0.5050363540649414,0.4756135940551758
0.4884235382080078,0.4854772567749023
0.4884235382080078,0.4854772567749023
0.4880996704101562,0.4658094406127929
0.4880996704101562,0.4658094406127929
0.5091327667236328,0.4929548263549804
0.5091327667236328,0.4929548263549804
0.4775190353393555,0.4649253845214844
0.4775190353393555,0.4649253845214844
0.5054031372070312,0.4769353866577148
0.5054031372070312,0.4769353866577148
0.4896772384643555,0.4929588317871094
0.4896772384643555,0.4929588317871094
0.4882810592651367,0.4612564086914062
0.4882810592651367,0.4612564086914062
0.5078876495361327,0.4895542144775391
0.5078876495361327,0.4895542144775391
0.4735136032104492,0.4544614791870117
0.4735136032104492,0.4544614791870117
0.4991804122924804,0.4684770584106445
0.4991804122924804,0.4684770584106445
0.4801408767700195,0.4711086273193359
0.4801408767700195,0.4711086273193359
0.4761474609375000,0.4395378112792969
0.4761474609375000,0.4395378112792969
0.4943756103515625,0.4657894134521484
0.4943756103515625,0.4657894134521484
0.4611688613891601,0.4388711929321289
0.4798135757446289,0.4388711929321289
0.4881797790527344,0.4455923080444336
0.4881797790527344,0.4455923080444336
0.4713586807250976,0.4562530517578125
0.4713586807250976,0.4562530517578125
0.4696506500244140,0.4270059585571289
0.4696506500244140,0.4270059585571289
0.4908102035522461,0.4639635086059570
0.4908102035522461,0.4639635086059570
0.4592451095581054,0.4315057754516601
0.4592451095581054,0.4315057754516601
0.4870794296264648,0.4440914154052734
0.4870794296264648,0.4440914154052734
0.4707796096801757,0.4554365158081055
0.4707796096801757,0.4554365158081055
0.4703819274902343,0.4334644317626953
0.4703819274902343,0.4334644317626953
0.4912078857421875,0.4605119705200195
0.4912078857421875,0.4605119705200195
0.4598184585571289,0.4319412231445313
0.4598184585571289,0.4319412231445313
0.4872871398925781,0.4424486160278320
0.4872871398925781,0.4424486160278320
0.4715503692626953,0.4603786468505859
0.4715503692626953,0.4603786468505859
0.4708368301391601,0.4302875518798828
0.4708368301391601,0.4302875518798828
0.4917549133300781,0.4620803833007812
0.4917549133300781,0.4620803833007812
0.4604736328125000,0.4340560913085937
0.4604736328125000,0.4340560913085937
0.4896617889404297,0.4522321701049805
0.4896617889404297,0.4522321701049805
0.4741928100585937,0.4613954544067382
0.4741928100585937,0.4613954544067382
0.4740474700927734,0.4358093261718750
0.4740474700927734,0.4358093261718750
0.4948133468627929,0.4655605316162109
0.4948133468627929,0.4655605316162109
0.4640178680419922,0.4437520980834961
0.4640178680419922,0.4437520980834961
0.4920450210571289,0.4523363113403320
0.4920450210571289,0.4523363113403320
0.4756748199462890,0.4639812469482422
0.4756748199462890,0.4639812469482422
0.4742443084716796,0.4365663528442383
0.4742443084716796,0.4365663528442383
0.4955766677856445,0.4718038558959960
0.4955766677856445,0.4718038558959960
0.4636167526245117,0.4393878936767578
0.4636167526245117,0.4393878936767578
0.4918201446533203,0.4513921737670898
0.4918201446533203,0.4513921737670898
0.4750820159912109,0.4610984802246094
0.4750820159912109,0.4610984802246094
0.4744600296020507,0.4408813476562500
0.4744600296020507,0.4408813476562500
0.4956733703613281,0.4681829452514648
0.4956733703613281,0.4681829452514648
0.4638896942138672,0.4403629302978516
0.4638896942138672,0.4403629302978516
0.4921440124511718,0.4526710510253906
0.4921440124511718,0.4526710510253906
0.4982242584228516,0.4659444808959960
0.4797964096069336,0.4659444808959960
0.4730180740356445,0.4559246063232422
0.4730180740356445,0.4559246063232422
0.4870153427124023,0.4361497879028320
0.4870153427124023,0.4361497879028320
0.4906196594238281,0.4727439880371094
0.4906196594238281,0.4727439880371094
0.4709901809692383,0.4414867401123047
0.4709901809692383,0.4414867401123047
0.5035223007202149,0.4680410385131836
0.5035223007202149,0.4680410385131836
0.4714765548706055,0.4502311706542969
0.4714765548706055,0.4502311706542969
0.4890787124633789,0.4490861892700195
0.4688770294189453,0.4490861892700195
0.4928730010986328,0.4777788162231445
0.4997795104980469,0.4777788162231445
0.4762973785400391,0.4446058273315430
0.4763082504272461,0.4446058273315430
0.5017438888549804,0.4617261886596680
0.5017438888549804,0.4617261886596680
0.4730661392211914,0.4626880645751953
0.4730661392211914,0.4626880645751953
0.4909498214721679,0.4522882461547851
0.4909498214721679,0.4522882461547851
0.4978403091430664,0.4789564132690429
0.4978403091430664,0.4789564132690429
0.4739467620849609,0.4375213623046875
0.4739467620849609,0.4375213623046875
0.5029151916503906,0.4736743927001953
0.4848529815673828,0.4736743927001953
0.4748399734497070,0.4666248321533203
0.4748399734497070,0.4666248321533203
0.4956436157226562,0.4541164398193359
0.4956436157226562,0.4541164398193359
0.4953203201293945,0.4716001510620117
0.5023859024047851,0.4716001510620117
0.4752096176147461,0.4489986419677734
0.4752096176147461,0.4489986419677734
0.5045024871826171,0.4758333206176757
0.5045024871826171,0.4758333206176757
0.4791950225830078,0.4669870376586914
0.4791950225830078,0.4669870376586914
0.4928684234619141,0.4464586257934570
0.4928684234619141,0.4464586257934570
0.4962415695190430,0.4830053329467773
0.4962415695190430,0.4830053329467773
0.4764776229858398,0.4527311325073242
0.4764776229858398,0.4527311325073242
0.5090314865112304,0.4775201797485351
0.4865358352661133,0.4775201797485351
0.4766836166381836,0.4595346450805664
0.4766836166381836,0.4595346450805664
0.4940237045288086,0.4579233169555664
0.4940237045288086,0.4579233169555664
0.4977836608886719,0.4852455139160156
0.4977836608886719,0.4852455139160156
0.4809001922607422,0.4530344009399414
0.4809001922607422,0.4530344009399414
0.5061475753784179,0.4699481964111328
0.5061475753784179,0.4699481964111328
0.4775247573852539,0.4707841873168945
0.4775247573852539,0.4707841873168945
0.4952470779418945,0.4614217758178711
0.4952470779418945,0.4614217758178711
0.5022016525268554,0.4867309570312500
0.5022016525268554,0.4867309570312500
0.4782875061035156,0.4454189300537109
0.4782875061035156,0.4454189300537109
0.5074556350708007,0.4814254760742187
0.5074556350708007,0.4814254760742187
0.4791921615600586,0.4734535217285156
0.4791921615600586,0.4734535217285156
0.5001468658447266,0.4623727798461914
0.5001468658447266,0.4623727798461914
0.4998601913452148,0.4800138473510742
0.4998601913452148,0.4800138473510742
0.4798507690429688,0.4579450607299804
0.4798507690429688,0.4579450607299804
0.5093044281005860,0.4860042572021484
0.5093044281005860,0.4860042572021484
0.4843465805053710,0.4759820938110351
0.4843465805053710,0.4759820938110351
0.4977373123168945,0.4556362152099609
0.4977373123168945,0.4556362152099609
0.5013410568237304,0.4923076629638672
0.5013410568237304,0.4923076629638672
0.4815896987915039,0.4607065200805664
0.4815896987915039,0.4607065200805664
0.5142705917358398,0.4866857528686523
0.5142705917358398,0.4866857528686523
0.4814397811889648,0.4684329986572265
0.4814397811889648,0.4684329986572265
0.4983821868896484,0.4662317276000976
0.4983821868896484,0.4662317276000976
0.5014034271240234,0.4928976058959961
0.5014034271240234,0.4928976058959961
0.4829978942871094,0.4558925628662109
0.4829978942871094,0.4558925628662109
0.5054838180541992,0.4674751281738281
0.5054838180541992,0.4674751281738281
0.4738655090332031,0.4628437042236328
0.4738655090332031,0.4628437042236328
0.4880962371826172,0.4462778091430664
0.4880962371826172,0.4462778091430664
0.4921548843383789,0.4676250457763672
0.4921548843383789,0.4676250457763672
0.4651880264282227,0.4218881607055664
0.4651880264282227,0.4218881607055664
0.4924386978149414,0.4546617507934570
0.4924386978149414,0.4546617507934570
0.4627801895141601,0.4456970214843750
0.4627801895141601,0.4456970214843750
0.4830476760864257,0.4317890167236328
0.4830476760864257,0.4317890167236328
0.4822540283203125,0.4486433029174804
0.4822540283203125,0.4486433029174804
0.4618743896484375,0.4252813339233398
0.4618743896484375,0.4252813339233398
0.4909240722656250,0.4513463973999023
0.4909240722656250,0.4513463973999023
0.4655982971191406,0.4423027038574219
0.4655982971191406,0.4423027038574219
0.4788877487182617,0.4217010498046875
0.4788877487182617,0.4217010498046875
0.4820377349853515,0.4574083328247070
0.4820377349853515,0.4574083328247070
0.4618989944458007,0.4264228820800781
0.4618989944458007,0.4264228820800781
0.4943115234375000,0.4508508682250976
0.4943115234375000,0.4508508682250976
0.4614830017089844,0.4326192855834961
0.4614830017089844,0.4326192855834961
0.4786611557006836,0.4304861068725586
0.4786611557006836,0.4304861068725586
0.4823598861694336,0.4575428009033203
0.4823598861694336,0.4575428009033203
0.4657951354980469,0.4254089355468750
0.4657951354980469,0.4254089355468750
0.4911935806274414,0.4431100845336914
0.4731433868408203,0.4431100845336914
0.4628946304321289,0.4445589065551758
0.4628946304321289,0.4445589065551758
0.4810066223144531,0.4358070373535156
0.4810066223144531,0.4358070373535156
0.4886959075927734,0.4623046875000000
0.4886959075927734,0.4623046875000000
0.4649150848388672,0.4217308044433594
0.4649150848388672,0.4217308044433594
0.4943441390991211,0.4578689575195312
0.4943441390991211,0.4578689575195312
0.4660623550415039,0.4499822616577148
0.4660623550415039,0.4499822616577148
0.4869546890258789,0.4383974075317383
0.4869546890258789,0.4383974075317383
0.4864385604858398,0.4556161880493164
0.4864385604858398,0.4556161880493164
0.4658729553222656,0.4326175689697265
0.4658729553222656,0.4326175689697265
0.4951229095458984,0.4599586486816406
0.4951229095458984,0.4599586486816406
0.4698440551757812,0.4496675491333008
0.4698440551757812,0.4496675491333008
0.4829956054687500,0.4289388656616211
0.4829956054687500,0.4289388656616211
0.4865140914916992,0.4650054931640625
0.4865140914916992,0.4650054931640625
0.4664583206176758,0.4331411361694336
0.4664583206176758,0.4331411361694336
0.4993280410766601,0.4593017578125000
0.4993280410766601,0.4593017578125000
0.4665647506713867,0.4418649673461914
0.4665647506713867,0.4418649673461914
0.4841377258300781,0.4405122756958008
0.4841377258300781,0.4405122756958008
0.4881849288940430,0.4693090438842773
0.4881849288940430,0.4693090438842773
0.4718215942382812,0.4361618041992187
0.4718215942382812,0.4361618041992187
0.4972412109375000,0.4535963058471679
0.4972412109375000,0.4535963058471679
0.4687648773193359,0.4548746109008789
0.4687648773193359,0.4548746109008789
0.4865770339965820,0.4444375991821289
0.4865770339965820,0.4444375991821289
0.4940746307373047,0.4715017318725586
0.4940746307373047,0.4715017318725586
0.4699396133422851,0.4306211471557617
0.4699396133422851,0.4306211471557617
0.4992256164550781,0.4667501449584961
0.4992256164550781,0.4667501449584961
0.4710639953613281,0.4603036880493164
0.4710639953613281,0.4603036880493164
0.4923654556274414,0.4477758407592773
0.4923654556274414,0.4477758407592773
0.4920513153076171,0.4656074523925781
0.4920513153076171,0.4656074523925781
0.4718198776245117,0.4431993484497070
0.4718198776245117,0.4431993484497070
0.5013771057128906,0.4699905395507812
0.5013771057128906,0.4699905395507812
0.4764987945556640,0.4615316390991211
0.4764987945556640,0.4615316390991211
0.4897544860839844,0.4410129547119140
0.4897544860839844,0.4410129547119140
0.4932821273803711,0.4776987075805664
0.4932821273803711,0.4776987075805664
0.4734518051147460,0.4473735809326172
0.4734518051147460,0.4473735809326172
0.5064851760864257,0.4721294403076172
0.5064851760864257,0.4721294403076172
0.4736698150634766,0.4543207168579101
0.4736698150634766,0.4543207168579101
0.4910293579101562,0.4527774810791015
0.4910293579101562,0.4527774810791015
0.4948322296142578,0.4799772262573242
0.4948322296142578,0.4799772262573242
0.4785993576049805,0.4479801177978516
0.4785993576049805,0.4479801177978516
0.5033803939819336,0.4647994995117187
0.5033803939819336,0.4647994995117187
0.4748868942260742,0.4658380508422851
0.4748868942260742,0.4658380508422851
0.4924152374267578,0.4565093994140625
0.4924152374267578,0.4565093994140625
0.5000083923339843,0.4820274353027343
0.5000083923339843,0.4820274353027343
0.4754676818847656,0.4405838012695312
0.4754676818847656,0.4405838012695312
0.5046930313110352,0.4763654708862304
0.5046930313110352,0.4763654708862304
0.4763048171997070,0.4685428619384766
0.4763048171997070,0.4685428619384766
0.4976406097412109,0.4571119308471679
0.4976406097412109,0.4571119308471679
0.4968755722045898,0.4746694564819336
0.4968755722045898,0.4746694564819336
0.4765623092651367,0.4523002624511718
0.4765623092651367,0.4523002624511718
0.5060606002807617,0.4800939559936523
0.5060606002807617,0.4800939559936523
0.4814998626708984,0.4701175689697266
0.4814998626708984,0.4701175689697266
0.4943361282348633,0.4494638442993164
0.4943361282348633,0.4494638442993164
0.4978631973266601,0.4860649108886719
0.4978631973266601,0.4860649108886719
0.4782176971435547,0.4545450210571289
0.4782176971435547,0.4545450210571289
0.5111383438110352,0.4808315277099609
0.5111383438110352,0.4808315277099609
0.4783441543579101,0.4628974914550781
0.4783441543579101,0.4628974914550781
0.4956521987915039,0.4616769790649414
0.4956521987915039,0.4616769790649414
0.4998413085937500,0.4903718948364257
0.4998413085937500,0.4903718948364257
0.4837434768676758,0.4570529937744141
0.4837434768676758,0.4570529937744141
0.5085433959960938,0.4739553451538085
0.5085433959960938,0.4739553451538085
0.4798576354980468,0.4753664016723633
0.4798576354980468,0.4753664016723633
0.4976978302001953,0.4648349761962891
0.4976978302001953,0.4648349761962891
0.5053653717041016,0.4917634963989257
0.5053653717041016,0.4917634963989257
0.4807657241821289,0.4500738143920898
0.4807657241821289,0.4500738143920898
0.5098320007324219,0.4860288619995117
0.5098320007324219,0.4860288619995117
0.4814483642578125,0.4791584014892578
0.4814483642578125,0.4791584014892578
0.5024877548217773,0.4657705307006836
0.5024877548217773,0.4657705307006836
0.5009222030639648,0.4816371917724609
0.5009222030639648,0.4816371917724609
0.4791624069213867,0.4560150146484375
0.4791624069213867,0.4560150146484375
0.5060491561889648,0.4776437759399414
0.5060491561889648,0.4776437759399414
0.4783218383789062,0.4635377883911133
0.4783218383789062,0.4635377883911133
0.4879720687866211,0.4370756149291992
0.4879720687866211,0.4370756149291992
0.4884138107299805,0.4680433273315430
0.4884138107299805,0.4680433273315430
0.4655479431152343,0.4325157165527344
0.4655479431152343,0.4325157165527344
0.4964298248291015,0.4542406082153320
0.4964298248291015,0.4542406082153320
0.4622371673583984,0.4343713760375976
0.4622371673583984,0.4343713760375976
0.4788940429687500,0.4310846328735352
0.4788940429687500,0.4310846328735352
0.4820903778076172,0.4575736999511719
0.4820903778076172,0.4575736999511719
0.4656148910522461,0.4247594833374023
0.4692346572875976,0.4525526046752930
0.4557970046997070,0.4253780364990234
0.4612083435058594,0.4253780364990234
0.4890901565551757,0.4608850479125977
0.4890901565551757,0.4608850479125977
0.4573883056640625,0.4287483215332031
0.4573883056640625,0.4287483215332031
0.4856266021728515,0.4406827926635742
0.4856266021728515,0.4406827926635742
0.4690114974975585,0.4504686355590820
0.4690114974975585,0.4504686355590820
0.4681154251098633,0.4295545578002929
0.4681154251098633,0.4295545578002929
0.4890867233276367,0.4565683364868164
0.4890867233276367,0.4565683364868164
0.4571834564208984,0.4284307479858399
0.4571834564208984,0.4284307479858399
0.4850143432617187,0.4404384613037109
0.4850143432617187,0.4404384613037109
0.4701335906982422,0.4575799942016601
0.4701335906982422,0.4575799942016601
0.4693410873413086,0.4280502319335938
0.4693410873413086,0.4280502319335938
0.4912570953369140,0.4602848052978515
0.4912570953369140,0.4602848052978515
0.4593795776367187,0.4311824798583984
0.4593795776367187,0.4311824798583984
0.4887376785278320,0.4505498886108398
0.4887376785278320,0.4505498886108398
0.4733402252197265,0.4596862792968750
0.4733402252197265,0.4596862792968750
0.4722782135009765,0.4336326599121094
0.4722782135009765,0.4336326599121094
0.4933198928833007,0.4644590377807617
0.4933198928833007,0.4644590377807617
0.4621221542358398,0.4407732009887695
0.4814031600952148,0.4407732009887695
0.4901613235473632,0.4488338470458984
0.4901613235473632,0.4488338470458984
0.4743381500244140,0.4605812072753906
0.4743381500244140,0.4605812072753906
0.4721820831298828,0.4314222335815430
0.4721820831298828,0.4314222335815430
0.4936426162719726,0.4683374404907226
0.4936426162719726,0.4683374404907226
0.4619630813598632,0.4365892410278320
0.4619630813598632,0.4365892410278320
0.4897310256958007,0.4486101150512695
0.4653636932373046,0.4486101150512695
0.4739427566528320,0.4606996536254883
0.4739427566528320,0.4606996536254883
0.4731451034545898,0.4387029647827148
0.4731451034545898,0.4387029647827148
0.4944963455200195,0.4664583206176758
0.4944963455200195,0.4664583206176758
0.4632865905761718,0.4388540267944336
0.4632865905761718,0.4388540267944336
0.4910150527954101,0.4492355346679687
0.4910150527954101,0.4492355346679687
0.4760187149047851,0.4681543350219726
0.4760187149047851,0.4681543350219726
0.4751226425170898,0.4384689331054688
0.4751226425170898,0.4384689331054688
0.4964527130126953,0.4701107025146484
0.4964527130126953,0.4701107025146484
0.4647668838500976,0.4423610687255859
0.4647668838500976,0.4423610687255859
0.4936534881591796,0.4593486785888672
0.4936534881591796,0.4593486785888672
0.4781438827514648,0.4682865142822266
0.4781438827514648,0.4682865142822266
0.4775264739990234,0.4422935485839843
0.4775264739990234,0.4422935485839843
0.4983146667480469,0.4715921401977539
0.4983146667480469,0.4715921401977539
0.4673950195312500,0.4502952575683594
0.4673950195312500,0.4502952575683594
0.4955926895141601,0.4589733123779297
0.4955926895141601,0.4589733123779297
0.4800596237182617,0.4715143203735351
0.5020637512207031,0.4715143203735351
0.4784442901611328,0.4447683334350586
0.4784442901611328,0.4447683334350586
0.5002218246459961,0.4806507110595703
0.5002218246459961,0.4806507110595703
0.4687671661376953,0.4489316940307617
0.4687671661376953,0.4489316940307617
0.4972566604614257,0.4613451004028320
0.4972566604614257,0.4613451004028320
0.4810009002685547,0.4715337753295898
0.4810009002685547,0.4715337753295898
0.4802633285522461,0.4514110565185547
0.4802633285522461,0.4514110565185547
0.5014812469482421,0.4787750244140625
0.5014812469482421,0.4787750244140625
0.4697719573974609,0.4511266708374023
0.4697719573974609,0.4511266708374023
0.4976354598999023,0.4627710342407226
0.4976354598999023,0.4627710342407226
0.4825338363647461,0.4797735214233398
0.4825338363647461,0.4797735214233398
0.4814088821411133,0.4497350692749023
0.4814088821411133,0.4497350692749023
0.5029346466064453,0.4808086395263672
0.5029346466064453,0.4808086395263672
0.4706113815307617,0.4507444381713867
0.4706113815307617,0.4507444381713867
0.4991878509521484,0.4694143295288086
0.4991878509521484,0.4694143295288086
0.4837881088256836,0.4780700683593750
0.4837881088256836,0.4780700683593750
0.4822402954101562,0.4517578125000000
0.4822402954101562,0.4517578125000000
0.5032831192016601,0.4824645996093750
0.5032831192016601,0.4824645996093750
0.4722496032714844,0.4590385437011719
0.4722496032714844,0.4590385437011719
0.5002664566040039,0.4675289154052734
0.5002664566040039,0.4675289154052734
0.4848289489746094,0.4798404693603515
0.4848289489746094,0.4798404693603515
0.4828863143920898,0.4509572982788086
0.4828863143920898,0.4509572982788086
0.5044904708862304,0.4884166717529297
0.5044904708862304,0.4884166717529297
0.4729728698730469,0.4566255569458008
0.4729728698730469,0.4566255569458008
0.5010292053222656,0.4691453933715820
0.5010292053222656,0.4691453933715820
0.4851722717285156,0.4812120437622070
0.4851722717285156,0.4812120437622070
0.4846000671386719,0.4595249176025391
0.4846000671386719,0.4595249176025391
0.5058053970336914,0.4872390747070312
0.5058053970336914,0.4872390747070312
0.4748079299926757,0.4595157623291015
0.4748079299926757,0.4595157623291015
0.5023166656494140,0.4698692321777344
0.5023166656494140,0.4698692321777344
0.4871910095214844,0.4888772964477539
0.4871910095214844,0.4888772964477539
0.4861204147338867,0.4587123870849609
0.4861204147338867,0.4587123870849609
0.5073366165161133,0.4902311325073242
0.5073366165161133,0.4902311325073242
0.4755214691162109,0.4619567871093750
0.4755214691162109,0.4619567871093750
0.5041746139526367,0.4788900375366211
0.4804229736328125,0.4788900375366211
0.4887113571166992,0.4874170303344726
0.4887113571166992,0.4874170303344726
0.4878124237060547,0.4609308242797852
0.4878124237060547,0.4609308242797852
0.5081663131713867,0.4896806716918945
0.5081663131713867,0.4896806716918945
0.4768861770629882,0.4676942825317383
0.4768861770629882,0.4676942825317383
0.5044572830200195,0.4750722885131836
0.5044572830200195,0.4750722885131836
0.4874822616577148,0.4850618362426757
0.4874822616577148,0.4850618362426757
0.4839483261108398,0.4539699554443359
0.4839483261108398,0.4539699554443359
0.5028385162353516,0.4844919204711914
0.5028385162353516,0.4844919204711914
0.4682893753051758,0.4475240707397461
0.4682893753051758,0.4475240707397461
0.4936815261840820,0.4541799545288085
0.4936815261840820,0.4541799545288085
0.4745676040649414,0.4595970153808593
0.4745676040649414,0.4595970153808593
0.4713352203369141,0.4354333877563477
0.4713352203369141,0.4354333877563477
0.4910688400268555,0.4603614807128906
0.4910688400268555,0.4603614807128906
0.4583198547363281,0.4310995101928711
0.4583198547363281,0.4310995101928711
0.4857433319091797,0.4419656753540039
0.4857433319091797,0.4419656753540039
0.4703647613525390,0.4584737777709961
0.4703647613525390,0.4584737777709961
0.4690864562988281,0.4281320571899414
0.4690864562988281,0.4281320571899414
0.4907878875732422,0.4594190597534180
0.4907878875732422,0.4594190597534180
0.4582569122314453,0.4293731689453125
0.4582569122314453,0.4293731689453125
0.4869878768920898,0.4476819992065429
0.4869878768920898,0.4476819992065429
0.4713392257690430,0.4563949584960937
0.4713392257690430,0.4563949584960937
0.4700826644897461,0.4298046112060547
0.4700826644897461,0.4298046112060547
0.4910842895507812,0.4605068206787109
0.4910842895507812,0.4605068206787109
0.4599340438842773,0.4371477127075195
0.4599340438842773,0.4371477127075195
0.4882919311523437,0.4461370468139648
0.4882919311523437,0.4461370468139648
0.4733974456787109,0.4592914581298828
0.4956859588623047,0.4592914581298828
0.4717191696166992,0.4314702987670898
0.4717191696166992,0.4314702987670898
0.4941478729248047,0.4699207305908203
0.4941478729248047,0.4699207305908203
0.4630691528320312,0.4392202377319336
0.4630691528320312,0.4392202377319336
0.4914991378784179,0.4521881103515625
0.4914991378784179,0.4521881103515625
0.4760032653808594,0.4644453048706054
0.4760032653808594,0.4644453048706054
0.4750934600830078,0.4423667907714844
0.4750934600830078,0.4423667907714844
0.4961477279663086,0.4695339202880859
0.4961477279663086,0.4695339202880859
0.4646335601806640,0.4409242630004883
0.4646335601806640,0.4409242630004883
0.4915735244750976,0.4502511978149414
0.4915735244750976,0.4502511978149414
0.4762275695800781,0.4680347442626953
0.4762275695800781,0.4680347442626953
0.4743524551391601,0.4372129440307617
0.4743524551391601,0.4372129440307617
0.4952962875366211,0.4681531906127929
0.4952962875366211,0.4681531906127929
0.4632001876831054,0.4394147872924805
0.4632001876831054,0.4394147872924805
0.4918001174926758,0.4560888290405273
0.4918001174926758,0.4560888290405273
0.4762310028076172,0.4647233963012695
0.4762310028076172,0.4647233963012695
0.4753772735595703,0.4385353088378906
0.4753772735595703,0.4385353088378906
0.4961059570312500,0.4678092956542969
0.4961059570312500,0.4678092956542969
0.4651187896728515,0.4462938308715820
0.4651187896728515,0.4462938308715820
0.4934429168701172,0.4552631378173828
0.4934429168701172,0.4552631378173828
0.4778720855712890,0.4681428909301757
0.4778720855712890,0.4681428909301757
0.4765296936035156,0.4415531158447266
0.4765296936035156,0.4415531158447266
0.4985464096069336,0.4777061462402343
0.4985464096069336,0.4777061462402343
0.4671054840087890,0.4465330123901367
0.4671054840087890,0.4465330123901367
0.4957717895507812,0.4589990615844726
0.4957717895507812,0.4589990615844726
0.4796928405761718,0.4694807052612304
0.4796928405761718,0.4694807052612304
0.4790937423706054,0.4495794296264649
0.4679088592529297,0.4495794296264649
0.5003705978393554,0.4771436691284179
0.5003705978393554,0.4771436691284179
0.4689004898071289,0.4495599746704101
0.4689004898071289,0.4495599746704101
0.4967451095581055,0.4615653991699218
0.4967451095581055,0.4615653991699218
0.4816377639770508,0.4783475875854492
0.4816377639770508,0.4783475875854492
0.4805351257324219,0.4483268737792969
0.4805351257324219,0.4483268737792969
0.5020940780639648,0.4796281814575195
0.5020940780639648,0.4796281814575195
0.4698177337646484,0.4495960235595703
0.4698177337646484,0.4495960235595703
0.4984474182128906,0.4681102752685546
0.4984474182128906,0.4681102752685546
0.4828948974609375,0.4767213821411133
0.4828948974609375,0.4767213821411133
0.4815708160400390,0.4503582000732422
0.4815708160400390,0.4503582000732422
0.5024362564086914,0.4810838699340820
0.5024362564086914,0.4810838699340820
0.4712722778320312,0.4576904296875000
0.4712722778320312,0.4576904296875000
0.4994178771972656,0.4661985397338867
0.4994178771972656,0.4661985397338867
0.4842309951782227,0.4786422729492187
0.4842309951782227,0.4786422729492187
0.4820846557617187,0.4499444961547852
0.4820846557617187,0.4499444961547852
0.5039651870727538,0.4873266220092773
0.5039651870727538,0.4873266220092773
0.4722930908203125,0.4556190490722656
0.4722930908203125,0.4556190490722656
0.5003168106079101,0.4679197311401367
0.5003168106079101,0.4679197311401367
0.4842704772949218,0.4798376083374023
0.4842704772949218,0.4798376083374023
0.4834831237792969,0.4576927185058594
0.4834831237792969,0.4576927185058594
0.5048303604125977,0.4850984573364258
0.5048303604125977,0.4850984573364258
0.4733814239501953,0.4570095062255859
0.4733814239501953,0.4570095062255859
0.5005708694458008,0.4669052124023437
0.5005708694458008,0.4669052124023437
0.4854984283447266,0.4855556488037109
0.5065738677978515,0.4828342437744140
0.4843294143676757,0.4553071975708007
0.4786451339721680,0.4553071975708007
0.5054494857788085,0.4866216659545898
0.5054494857788085,0.4866216659545898
0.4737253189086914,0.4585533142089844
0.4737253189086914,0.4585533142089844
0.5024288177490234,0.4753973007202148
0.5024288177490234,0.4753973007202148
0.4869884490966797,0.4843832015991211
0.4869884490966797,0.4843832015991211
0.4861433029174804,0.4581727981567383
0.4861433029174804,0.4581727981567383
0.5067506790161133,0.4873340606689453
0.5067506790161133,0.4873340606689453
0.4758184432983398,0.4659542083740234
0.4758184432983398,0.4659542083740234
0.5039897918701172,0.4743610382080078
0.5039897918701172,0.4743610382080078
0.4883417129516601,0.4871223449707031
0.4883417129516601,0.4871223449707031
0.4868963241577148,0.4602373123168945
0.4868963241577148,0.4602373123168945
0.5086658477783202,0.4959754943847656
0.5086658477783202,0.4959754943847656
0.4770286560058594,0.4644424438476562
0.4770286560058594,0.4644424438476562
0.5053676605224610,0.4765468597412109
0.5053676605224610,0.4765468597412109
0.4890226364135742,0.4864614486694336
0.4890226364135742,0.4864614486694336
0.4879177093505859,0.4656898498535156
0.4879177093505859,0.4656898498535156
0.5083665847778320,0.4912954330444336
0.5083665847778320,0.4912954330444336
0.4753143310546875,0.4603208541870117
0.4753143310546875,0.4603208541870117
0.5003425598144531,0.4673440933227539
0.5003425598144531,0.4673440933227539
0.4824703216552734,0.4788482666015625
0.4824703216552734,0.4788482666015625
0.4782909393310547,0.4434236526489257
0.4782909393310547,0.4434236526489257
0.4966947555541992,0.4694835662841796
0.4966947555541992,0.4694835662841796
0.4619585037231445,0.4350185394287109
0.4619585037231445,0.4350185394287109
0.4884183883666992,0.4500446319580078
0.4884183883666992,0.4500446319580078
0.4715795516967773,0.4568103790283203
0.4715795516967773,0.4568103790283203
0.4694309234619141,0.4292158126831054
0.4694309234619141,0.4292158126831054
0.4900932312011719,0.4592668533325195
0.4900932312011719,0.4592668533325195
0.4587776184082031,0.4352594375610351
0.4587776184082031,0.4352594375610351
0.4869134902954101,0.4437257766723633
0.4869134902954101,0.4437257766723633
0.4716424942016602,0.4563199996948242
0.4716424942016602,0.4563199996948242
0.4695384979248047,0.4274848937988281
0.4695384979248047,0.4274848937988281
0.4913606643676758,0.4647296905517578
0.4913606643676758,0.4647296905517578
0.4597349166870117,0.4330816268920898
0.4597349166870117,0.4330816268920898
0.4876733779907226,0.4451379776000977
0.4876733779907226,0.4451379776000977
0.4718965530395507,0.4571548461914062
0.4718965530395507,0.4571548461914062
0.4709175109863281,0.4352497100830078
0.4709175109863281,0.4352497100830078
0.4925142288208008,0.4633237838745117
0.4925142288208008,0.4633237838745117
0.4616065979003906,0.4360370635986328
0.4616065979003906,0.4360370635986328
0.4895078659057617,0.4470508575439453
0.4895078659057617,0.4470508575439453
0.4750797271728515,0.4667501449584961
0.4750797271728515,0.4667501449584961
0.4741378784179687,0.4372312545776367
0.4741378784179687,0.4372312545776367
0.4957500457763672,0.4691963195800781
0.4957500457763672,0.4691963195800781
0.4640693664550781,0.4412710189819336
0.4640693664550781,0.4412710189819336
0.4925874710083007,0.4575056076049804
0.4925874710083007,0.4575056076049804
0.4770526885986328,0.4660669326782226
0.4770526885986328,0.4660669326782226
0.4754917144775390,0.4388071060180664
0.4754917144775390,0.4388071060180664
0.4957145690917968,0.4671140670776367
0.4957145690917968,0.4671140670776367
0.4642627716064453,0.4447208404541015
0.4642627716064453,0.4447208404541015
0.4921251296997070,0.4526052474975586
0.4921251296997070,0.4526052474975586
0.4762264251708984,0.4648235321044922
0.4762264251708984,0.4648235321044922
0.4743015289306640,0.4374647140502930
0.4743015289306640,0.4374647140502930
0.4961265563964843,0.4731176376342773
0.4961265563964843,0.4731176376342773
0.4646015167236328,0.4418649673461914
0.4646015167236328,0.4418649673461914
0.4931373596191406,0.4539167404174804
0.4931373596191406,0.4539167404174804
0.4769262313842773,0.4645751953125000
0.4769262313842773,0.4645751953125000
0.4761394500732422,0.4444404602050781
0.4761394500732422,0.4444404602050781
0.4979135513305664,0.4722290039062500
0.4979135513305664,0.4722290039062500
0.4662998199462891,0.4449748992919922
0.4662998199462891,0.4449748992919922
0.4941444396972656,0.4570198059082031
0.4941444396972656,0.4570198059082031
0.4794353485107422,0.4742752075195312
0.4794353485107422,0.4742752075195312
0.4781547546386719,0.4444593429565429
0.4781547546386719,0.4444593429565429
0.5001285552978515,0.4759672164916992
0.5001285552978515,0.4759672164916992
0.4678236007690429,0.4463373184204101
0.4678236007690429,0.4463373184204101
0.4966787338256836,0.4647834777832031
0.4966787338256836,0.4647834777832031
0.4815422058105469,0.4739828109741211
0.4815422058105469,0.4739828109741211
0.4800189971923828,0.4478553771972656
0.4800189971923828,0.4478553771972656
0.5010921478271484,0.4787286758422851
0.5010921478271484,0.4787286758422851
0.4700637817382812,0.4555715560913086
0.4700637817382812,0.4555715560913086
0.4983999252319335,0.4638748168945312
0.4983999252319335,0.4638748168945312
0.4832960128784179,0.4767522811889648
0.4832960128784179,0.4767522811889648
0.4809951782226562,0.4479263305664062
0.4809951782226562,0.4479263305664062
0.5028705596923828,0.4853736877441406
0.5028705596923828,0.4853736877441406
0.4713186264038086,0.4539665222167968
0.4713186264038086,0.4539665222167968
0.4991941452026367,0.4659519195556641
0.4991941452026367,0.4659519195556641
0.4835861206054687,0.4782428741455078
0.4835861206054687,0.4782428741455078
0.4824594497680664,0.4560350418090820
0.4824594497680664,0.4560350418090820
0.5039640426635742,0.4835535049438476
0.5039640426635742,0.4835535049438476
0.4726358413696289,0.4556871414184570
0.4726358413696289,0.4556871414184570
0.4999952316284180,0.4654489517211914
0.4756885528564453,0.4654489517211914
0.4849851608276367,0.4841291427612304
0.4849851608276367,0.4841291427612304
0.4834608078002929,0.4540311813354492
0.4834608078002929,0.4540311813354492
0.5047971725463867,0.4853462219238281
0.5047971725463867,0.4853462219238281
0.4728321075439453,0.4571050643920898
0.4728321075439453,0.4571050643920898
0.5013908386230469,0.4733270645141601
0.5013908386230469,0.4733270645141601
0.4860145568847656,0.4823736190795898
0.4860145568847656,0.4823736190795898
0.4848770141601562,0.4558628082275391
0.4848770141601562,0.4558628082275391
0.5053796768188477,0.4845834732055664
0.5053796768188477,0.4845834732055664
0.4742454528808593,0.4630805969238281
0.4742454528808593,0.4630805969238281
0.5022354125976562,0.4713003158569335
0.5022354125976562,0.4713003158569335
0.4867847442626953,0.4839220046997070
0.4867847442626953,0.4839220046997070
0.4848478317260742,0.4569534301757812
0.4848478317260742,0.4569534301757812
0.5068983078002930,0.4926504135131836
0.5068983078002930,0.4926504135131836
0.4754522323608398,0.4614778518676758
0.4754522323608398,0.4614778518676758
0.5038753509521484,0.4734169006347656
0.5038753509521484,0.4734169006347656
0.4877740859985351,0.4840925216674805
0.4877740859985351,0.4840925216674805
0.4867492675781250,0.4640110015869141
0.4867492675781250,0.4640110015869141
0.5084621429443359,0.4916290283203125
0.5084621429443359,0.4916290283203125
0.4767271041870117,0.4643114089965820
0.4767271041870117,0.4643114089965820
0.5045516967773437,0.4759672164916992
0.5045516967773437,0.4759672164916992
0.4896852493286132,0.4930749893188476
0.4896852493286132,0.4930749893188476
0.4883560180664062,0.4631126403808594
0.4883560180664062,0.4631126403808594
0.5101787567138671,0.4941341400146484
0.5101787567138671,0.4941341400146484
0.4776105880737305,0.4642009735107422
0.4776105880737305,0.4642009735107422
0.5060720443725586,0.4817739486694336
0.5060720443725586,0.4817739486694336
0.4901779174804687,0.4898494720458984
0.4901779174804687,0.4898494720458984
0.4874530792236328,0.4611631393432617
0.4874530792236328,0.4611631393432617
0.5064863204956055,0.4876304626464844
0.5064863204956055,0.4876304626464844
0.4722530364990234,0.4583942413330078
0.4722530364990234,0.4583942413330078
0.4971382141113281,0.4610761642456054
0.4971382141113281,0.4610761642456054
0.4789026260375976,0.4677726745605468
0.4789026260375976,0.4677726745605468
0.4734970092773437,0.4338449478149414
0.4734970092773437,0.4338449478149414
0.4927408218383789,0.4668754577636718
0.4927408218383789,0.4668754577636718
0.4594116210937500,0.4326908111572266
0.4594116210937500,0.4326908111572266
0.4863538742065430,0.4430145263671875
0.4863538742065430,0.4430145263671875
0.4699939727783203,0.4542978286743164
0.4699939727783203,0.4542978286743164
0.4684999465942383,0.4312299728393554
0.4684999465942383,0.4312299728393554
0.4898265838623047,0.4583673477172852
0.4898265838623047,0.4583673477172852
0.4584119796752930,0.4303442001342773
0.4584119796752930,0.4303442001342773
0.4855625152587890,0.4398336410522461
0.4855625152587890,0.4398336410522461
0.4703018188476562,0.4580131530761719
0.4703018188476562,0.4580131530761719
0.4689079284667969,0.4276748657226562
0.4689079284667969,0.4276748657226562
0.4899805068969726,0.4584703445434570
0.4899805068969726,0.4584703445434570
0.4577362060546875,0.4298400878906250
0.4577362060546875,0.4298400878906250
0.4860197067260742,0.4456689834594726
0.4860197067260742,0.4456689834594726
0.4706949234008789,0.4545066833496094
0.4706949234008789,0.4545066833496094
0.4694131851196289,0.4282333374023438
0.4694131851196289,0.4282333374023438
0.4900772094726562,0.4574907302856445
0.4900772094726562,0.4574907302856445
0.4593606948852539,0.4364833831787109
0.4593606948852539,0.4364833831787109
0.4880504608154297,0.4456809997558593
0.4703979492187500,0.4456809997558593
0.4732006072998047,0.4592010498046875
0.4732006072998047,0.4592010498046875
0.4717340469360352,0.4330816268920898
0.4717340469360352,0.4330816268920898
0.4938457489013672,0.4691087722778320
0.4938457489013672,0.4691087722778320
0.4625043869018555,0.4381319046020508
0.4625043869018555,0.4381319046020508
0.4908874511718750,0.4500160217285156
0.4908874511718750,0.4500160217285156
0.4743993759155273,0.4600124359130859
0.4743993759155273,0.4600124359130859
0.4734037399291992,0.4391023635864258
0.4734037399291992,0.4391023635864258
0.4944391250610352,0.4662008285522461
0.4944391250610352,0.4662008285522461
0.4624008178710937,0.4380449295043945
0.4624008178710937,0.4380449295043945
0.4898300170898438,0.4489934921264648
0.4898300170898438,0.4489934921264648
0.4748554229736328,0.4655982971191406
0.4748554229736328,0.4655982971191406
0.4731874465942383,0.4354362487792969
0.4731874465942383,0.4354362487792969
0.4948425292968750,0.4666385650634766
0.4948425292968750,0.4666385650634766
0.4625741958618164,0.4366338729858398
0.4625741958618164,0.4366338729858398
0.4911483764648437,0.4548374176025390
0.4911483764648437,0.4548374176025390
0.4760381698608398,0.4642730712890625
0.4760381698608398,0.4642730712890625
0.4746545791625976,0.4381530761718750
0.4746545791625976,0.4381530761718750
0.4958032608032226,0.4692077636718750
0.4958032608032226,0.4692077636718750
0.4650318145751953,0.4463155746459961
0.4650318145751953,0.4463155746459961
0.4932443618774414,0.4549621582031250
0.4932443618774414,0.4549621582031250
0.4987226486206054,0.4680702209472656
0.4987226486206054,0.4690778732299805
0.4650695800781250,0.4395069122314453
0.4704317092895507,0.4395069122314453
0.4984783172607422,0.4771419525146484
0.4984783172607422,0.4771419525146484
0.4671266555786133,0.4461416244506836
0.4671266555786133,0.4461416244506836
0.4952716827392578,0.4585447311401367
0.4952716827392578,0.4585447311401367
0.4797397613525390,0.4708465576171875
0.4797397613525390,0.4708465576171875
0.4677234649658203,0.4489768981933593
0.4677234649658203,0.4489768981933593
0.5001359939575195,0.4767677307128906
0.5001359939575195,0.4767677307128906
0.4689554214477539,0.4490718841552734
0.4689554214477539,0.4490718841552734
0.4963508605957031,0.4588342666625976
0.4963508605957031,0.4588342666625976
0.4815576553344726,0.4777833938598632
0.5039228439331055,0.4777833938598632
0.4800132751464843,0.4477220535278320
0.4800132751464843,0.4477220535278320
0.5013015747070312,0.4789707183837890
0.5013015747070312,0.4789707183837890
0.4694274902343750,0.4506843566894531
0.4694274902343750,0.4506843566894531
0.4979232788085937,0.4669635772705078
0.4979232788085937,0.4669635772705078
0.4825893402099609,0.4761995315551757
0.4825893402099609,0.4761995315551757
0.4813854217529296,0.4498003005981445
0.4813854217529296,0.4498003005981445
0.5020637512207031,0.4786520004272461
0.5020637512207031,0.4786520004272461
0.4710422515869140,0.4569631576538086
0.4710422515869140,0.4569631576538086
0.4991249084472656,0.4653511047363281
0.4991249084472656,0.4653511047363281
0.4836771011352539,0.4781770706176758
0.4836771011352539,0.4781770706176758
0.4818374633789062,0.4512411117553711
0.4818374633789062,0.4512411117553711
0.5036430358886719,0.4868373870849609
0.5036430358886719,0.4868373870849609
0.4719875335693359,0.4555675506591796
0.4719875335693359,0.4555675506591796
0.5005456924438476,0.4674465179443359
0.5005456924438476,0.4674465179443359
0.4843894958496093,0.4778989791870117
0.4843894958496093,0.4778989791870117
0.4834173202514648,0.4574352264404297
0.4834173202514648,0.4574352264404297
0.5047536849975586,0.4850320816040039
0.5047536849975586,0.4850320816040039
0.4730180740356445,0.4571783065795898
0.4730180740356445,0.4571783065795898
0.5006664276123046,0.4686738967895507
0.5006664276123046,0.4686738967895507
0.4858406066894531,0.4856821060180664
0.4858406066894531,0.4856821060180664
0.4842876434326172,0.4556882858276367
0.4796310424804687,0.4556882858276367
0.5061521530151367,0.4869346618652344
0.5061521530151367,0.4869346618652344
0.4738735198974609,0.4570346832275390
0.4738735198974609,0.4570346832275390
0.5024099349975586,0.4753005981445312
0.5024099349975586,0.4753005981445312
0.4872653961181641,0.4846899032592773
0.4872653961181641,0.4846899032592773
0.4857971191406250,0.4584651947021484
0.4857971191406250,0.4584651947021484
0.5069721221923827,0.4893642425537109
0.5069721221923827,0.4893642425537109
0.4758316040039062,0.4662248611450195
0.4758316040039062,0.4662248611450195
0.5040138244628906,0.4745870590209961
0.5040138244628906,0.4745870590209961
0.4892131805419921,0.4875274658203125
0.4892131805419921,0.4875274658203125
0.4867710113525390,0.4586729049682617
0.4867710113525390,0.4586729049682617
0.5087368011474609,0.4961585998535156
0.5087368011474609,0.4961585998535156
0.4771608352661132,0.4645460128784180
0.4771608352661132,0.4645460128784180
0.5047960281372070,0.4761125564575195
0.5047960281372070,0.4761125564575195
0.4886381149291992,0.4872985839843750
0.4886381149291992,0.4872985839843750
0.4863681793212891,0.4626869201660156
0.4863681793212891,0.4626869201660156
0.5059404373168945,0.4862852096557617
0.5059404373168945,0.4862852096557617
0.4715829849243164,0.4530406951904297
0.4715829849243164,0.4530406951904297
0.4960704803466797,0.4570936203002929
0.4960704803466797,0.4570936203002929
0.4778915405273437,0.4703144073486328
0.4778915405273437,0.4703144073486328
0.4732646942138672,0.4352005004882812
0.4732646942138672,0.4352005004882812
0.4922510147094726,0.4621564865112304
0.4922510147094726,0.4621564865112304
0.4584331512451172,0.4313392639160156
0.4584331512451172,0.4313392639160156
0.4860082626342773,0.4455350875854492
0.4860082626342773,0.4455350875854492
0.4701147079467773,0.4538578033447265
0.4701147079467773,0.4538578033447265
0.4683431625366211,0.4265733718872070
0.4683431625366211,0.4265733718872070
0.4889745712280273,0.4551057815551758
0.4889745712280273,0.4551057815551758
0.4576572418212890,0.4331680297851562
0.4576572418212890,0.4331680297851562
0.4856552124023437,0.4412561416625976
0.4856552124023437,0.4412561416625976
0.4703413009643554,0.4539487838745117
0.4703413009643554,0.4539487838745117
0.4679849624633789,0.4266654968261719
0.4679849624633789,0.4266654968261719
0.4898769378662109,0.4616563796997070
0.4828405380249023,0.4616563796997070
0.4581224441528320,0.4303939819335937
0.4840364456176758,0.4303939819335937
0.4864099502563476,0.4416767120361328
0.4617158889770507,0.4416767120361328
0.4702903747558593,0.4524381637573242
0.4924684524536133,0.4524381637573242
0.4692913055419922,0.4319858551025391
0.4582025527954101,0.4319858551025391
0.4910511016845703,0.4602945327758789
0.4905527114868164,0.4602945327758789
0.4598888397216797,0.4336017608642578
0.4598888397216797,0.4336017608642578
0.4879938125610351,0.4458738327026367
0.4879938125610351,0.4458738327026367
0.4738632202148437,0.4640047073364257
0.4738632202148437,0.4640047073364257
0.4726198196411133,0.4345985412597656
0.4726198196411133,0.4345985412597656
0.4948305130004882,0.4660789489746093
0.4948305130004882,0.4660789489746093
0.4624397277832031,0.4363042831420899
0.4624397277832031,0.4363042831420899
0.4907695770263671,0.4536947250366211
0.4907695770263671,0.4536947250366211
0.4753669738769531,0.4625959396362305
0.4753669738769531,0.4625959396362305
0.4731748580932617,0.4352548599243164
0.4731748580932617,0.4352548599243164
0.4938640594482422,0.4652446746826172
0.4938640594482422,0.4652446746826172
0.4623790740966797,0.4412424087524414
0.4623790740966797,0.4412424087524414
0.4901418685913086,0.4490930557250977
0.4901418685913086,0.4490930557250977
0.4752090454101562,0.4618989944458007
0.4752090454101562,0.4618989944458007
0.4725442886352539,0.4326066970825195
0.4725442886352539,0.4326066970825195
0.4947521209716796,0.4700151443481445
0.4947521209716796,0.4700151443481445
0.4632236480712890,0.4392230987548828
0.4632236480712890,0.4392230987548828
0.4912611007690429,0.4510871887207031
0.4912611007690429,0.4510871887207031
0.4759529113769531,0.4639846801757812
0.4759529113769531,0.4639846801757812
0.4747318267822265,0.4418918609619141
0.4747318267822265,0.4418918609619141
0.4965019226074219,0.4698995590209961
0.4965019226074219,0.4698995590209961
0.4655450820922851,0.4428565979003906
0.4655450820922851,0.4428565979003906
0.4929479598999023,0.4524284362792969
0.4929479598999023,0.4524284362792969
0.4784328460693359,0.4720006942749023
0.4784328460693359,0.4720006942749023
0.4768129348754883,0.4419301986694336
0.4768129348754883,0.4419301986694336
0.4986419677734375,0.4735542297363281
0.4986419677734375,0.4735542297363281
0.4665555953979492,0.4458578109741211
0.4665555953979492,0.4458578109741211
0.4951904296875000,0.4617605209350586
0.4951904296875000,0.4617605209350586
0.4802450180053711,0.4715784072875976
0.4802450180053711,0.4715784072875976
0.4786954879760742,0.4450401306152343
0.4786954879760742,0.4450401306152343
0.4996112823486328,0.4739570617675781
0.4996112823486328,0.4739570617675781
0.4686115264892578,0.4524702072143554
0.4686115264892578,0.4524702072143554
0.4966300964355468,0.4605834960937500
0.4966300964355468,0.4605834960937500
0.4814683914184570,0.4736497879028320
0.4814683914184570,0.4736497879028320
0.4791337966918945,0.4465192794799804
0.4791337966918945,0.4465192794799804
0.5011791229248047,0.4819959640502929
0.5011791229248047,0.4819959640502929
0.4697856903076172,0.4508972167968750
0.4697856903076172,0.4508972167968750
0.4980726242065430,0.4623847961425781
0.4980726242065430,0.4623847961425781
0.4820823669433594,0.4732589721679688
0.4820823669433594,0.4732589721679688
0.4805917739868164,0.4525274276733398
0.4805917739868164,0.4525274276733398
0.5022691726684571,0.4800991058349609
0.5022691726684571,0.4800991058349609
0.4706983566284180,0.4527706146240234
0.4706983566284180,0.4527706146240234
0.4981304168701172,0.4637981414794922
0.4981304168701172,0.4637981414794922
0.4832410812377930,0.4810884475708008
0.4832410812377930,0.4810884475708008
0.4815250396728515,0.4507444381713867
0.4815250396728515,0.4507444381713867
0.5036127090454101,0.4817224502563476
0.5036127090454101,0.4817224502563476
0.4708471298217773,0.4518917083740234
0.4708471298217773,0.4518917083740234
0.4994150161743164,0.4691986083984375
0.4994150161743164,0.4691986083984375
0.4843185424804687,0.4786954879760742
0.4843185424804687,0.4786954879760742
0.4821676254272461,0.4519123077392578
0.4821676254272461,0.4519123077392578
0.5034862518310547,0.4826070785522460
0.5034862518310547,0.4826070785522460
0.4722496032714844,0.4595964431762695
0.4722496032714844,0.4595964431762695
0.5004776000976562,0.4676004409790039
0.5004776000976562,0.4676004409790039
0.4861358642578125,0.4809293746948242
0.4861358642578125,0.4809293746948242
0.4830968856811523,0.4521194458007812
0.4830968856811523,0.4521194458007812
0.5054924011230468,0.4897510528564453
0.5054924011230468,0.4897510528564453
0.4739318847656250,0.4590631484985351
0.4739318847656250,0.4590631484985351
0.5019870758056640,0.4706823348999023
0.5019870758056640,0.4706823348999023
0.4867349624633789,0.4835414886474609
0.4867349624633789,0.4835414886474609
0.4850990295410156,0.4610464096069335
0.4850990295410156,0.4610464096069335
0.5068576812744140,0.4887010574340820
0.5068576812744140,0.4887010574340820
0.4756868362426758,0.4615076065063476
0.4756868362426758,0.4615076065063476
0.5028179168701171,0.4705701828002929
0.5028179168701171,0.4705701828002929
0.4885168075561523,0.4899015426635742
0.4885168075561523,0.4899015426635742
0.4862314224243164,0.4594408035278320
0.4862314224243164,0.4594408035278320
0.5078704833984374,0.4901321411132812
0.5078704833984374,0.4901321411132812
0.4751323699951172,0.4614910125732422
0.4751323699951172,0.4614910125732422
0.5028070449829102,0.4749710083007812
0.5028070449829102,0.4749710083007812
0.4861061096191406,0.4813339233398437
0.4861061096191406,0.4813339233398437
0.4817287445068359,0.4495187759399414
0.4817287445068359,0.4495187759399414
0.4997589111328125,0.4731170654296875
0.4997589111328125,0.4731170654296875
0.4656995773315429,0.4465730667114258
0.4656995773315429,0.4465730667114258
0.4908634185791015,0.4494970321655273
0.4908634185791015,0.4494970321655273
0.4735507965087891,0.4588834762573242
0.4735507965087891,0.4588834762573242
0.4691385269165039,0.4287855148315430
0.4691385269165039,0.4287855148315430
0.4901973724365234,0.4623590469360351
0.4901973724365234,0.4623590469360351
0.4580926895141602,0.4306703567504883
0.4580926895141602,0.4306703567504883
0.4861536026000977,0.4414592742919922
0.4861536026000977,0.4414592742919922
0.4703241348266601,0.4523677825927734
0.4703241348266601,0.4523677825927734
0.4687545776367187,0.4315206527709961
0.4687545776367187,0.4315206527709961
0.4905349731445312,0.4591730117797851
0.4905349731445312,0.4591730117797851
0.4588926315307617,0.4320470809936524
0.4588926315307617,0.4320470809936524
0.4865415573120117,0.4428869247436523
0.4865415573120117,0.4428869247436523
0.4924015045166015,0.4585676193237305
0.4924015045166015,0.4557838439941406
0.4702537536621094,0.4472717285156250
0.4931608200073242,0.4472717285156250
0.4808275222778320,0.4268611907958984
0.4808275222778320,0.4268611907958984
0.4854772567749023,0.4636745452880859
0.4854772567749023,0.4636745452880859
0.4656337738037109,0.4329998016357422
0.4656337738037109,0.4329998016357422
0.5016002655029297,0.4595981597900390
0.5016002655029297,0.4595981597900390
0.4670362472534180,0.4445560455322266
0.4670362472534180,0.4445560455322266
0.4842727661132812,0.4420423507690430
0.4842727661132812,0.4420423507690430
0.4892452239990234,0.4712911605834961
0.4892452239990234,0.4712911605834961
0.4750219345092773,0.4378910064697266
0.4750219345092773,0.4378910064697266
0.4974002838134766,0.4542938232421875
0.4784591674804687,0.4542938232421875
0.4682453155517578,0.4551309585571289
0.4682453155517578,0.4551309585571289
0.4850166320800781,0.4424623489379882
0.4850166320800781,0.4424623489379882
0.4951503753662109,0.4687282562255859
0.4951503753662109,0.4687282562255859
0.4674110412597656,0.4273481369018555
0.4674110412597656,0.4273481369018555
0.4962066650390625,0.4613393783569336
0.4962066650390625,0.4613393783569336
0.4677423477172851,0.4551801681518555
0.4677423477172851,0.4551801681518555
0.4910024642944336,0.4415113449096680
0.4910024642944336,0.4415113449096680
0.4885030746459961,0.4600822448730468
0.4885030746459961,0.4600822448730468
0.4679580688476562,0.4370658874511719
0.4679580688476562,0.4370658874511719
0.4973316192626953,0.4634525299072265
0.4973316192626953,0.4634525299072265
0.4755037307739258,0.4562656402587890
0.4755037307739258,0.4562656402587890
0.4857341766357421,0.4356416702270507
0.4857341766357421,0.4356416702270507
0.4902368545532226,0.4722433090209961
0.4902368545532226,0.4722433090209961
0.4701421737670898,0.4421739578247070
0.4701421737670898,0.4421739578247070
0.5060520172119141,0.4668485641479492
0.5060520172119141,0.4668485641479492
0.4708465576171875,0.4510923385620117
0.4708465576171875,0.4510923385620117
0.4879508972167969,0.4480247497558594
0.4879508972167969,0.4480247497558594
0.4926240921020508,0.4760902404785156
0.4926240921020508,0.4760902404785156
0.4786308288574219,0.4440256118774414
0.4786308288574219,0.4440256118774414
0.5011053085327148,0.4613233566284179
0.5011053085327148,0.4613233566284179
0.4724452972412109,0.4631681442260742
0.4724452972412109,0.4631681442260742
0.4898174285888672,0.4525875091552734
0.4898174285888672,0.4525875091552734
0.5007001876831054,0.4785627365112304
0.5007001876831054,0.4785627365112304
0.4733539581298828,0.4379425048828125
0.4785484313964843,0.4379425048828125
0.5025312423706054,0.4726209640502930
0.5025312423706054,0.4726209640502930
0.4742763519287109,0.4657190322875976
0.4742763519287109,0.4657190322875976
0.4976171493530273,0.4533954620361328
0.4976171493530273,0.4533954620361328
0.4950937271118164,0.4717632293701172
0.4950937271118164,0.4717632293701172
0.4744514465332031,0.4489940643310547
0.4744514465332031,0.4489940643310547
0.5037900924682617,0.4759666442871093
0.5037900924682617,0.4759666442871093
0.4816852569580078,0.4674058914184570
0.4816852569580078,0.4674058914184570
0.4918195724487304,0.4462017059326172
0.4918195724487304,0.4462017059326172
0.4959840774536133,0.4824279785156250
0.4959840774536133,0.4824279785156250
0.4756828308105469,0.4507146835327148
0.4756828308105469,0.4507146835327148
0.5113786697387696,0.4763700485229492
0.5113786697387696,0.4763700485229492
0.4759443283081055,0.4601840972900391
0.4759443283081055,0.4601840972900391
0.4927505493164062,0.4569746017456054
0.4927505493164062,0.4569746017456054
0.4972864151000976,0.4856191635131836
0.4972864151000976,0.4856191635131836
0.4831804275512695,0.4521560668945312
0.4831804275512695,0.4521560668945312
0.5052818298339844,0.4689691543579101
0.5052818298339844,0.4689691543579101
0.4767562866210937,0.4704162597656250
0.4767562866210937,0.4704162597656250
0.4937129974365234,0.4585206985473633
0.4937129974365234,0.4585206985473633
0.5047376632690429,0.4854337692260742
0.5047376632690429,0.4854337692260742
0.4769794464111328,0.4446624755859375
0.4769794464111328,0.4446624755859375
