REDsignal,IRsignal
0.6954557418823242,0.7745830535888671
0.6877006530761719,0.7546606063842773
0.6877006530761719,0.7546606063842773
0.6792560577392578,0.7446006774902344
0.6792560577392578,0.7446006774902344
0.6725023269653320,0.7319864273071289
0.6725023269653320,0.7319864273071289
0.6718454360961914,0.7308082580566406
0.6718454360961914,0.7308082580566406
0.6656730651855468,0.7257946014404296
0.6656730651855468,0.7257946014404296
0.6669588088989258,0.7220901489257813
0.6669588088989258,0.7220901489257813
0.6662504196166992,0.7232419967651367
0.6662504196166992,0.7232419967651367
0.6637229919433594,0.7178569793701172
0.6637229919433594,0.7178569793701172
0.6661016464233398,0.7214492797851563
0.6661016464233398,0.7214492797851563
0.6616767883300781,0.7194923400878906
0.6616767883300781,0.7194923400878906
0.6646745681762695,0.7177076339721680
0.6646745681762695,0.7177076339721680
0.6645275115966797,0.7201475143432617
0.6645275115966797,0.7201475143432617
0.6622667312622070,0.7153638839721680
0.6622667312622070,0.7153638839721680
0.6646442413330078,0.7192342758178710
0.6646442413330078,0.7192342758178710
0.6609678268432617,0.7173643112182617
0.6652187347412110,0.7173643112182617
0.6635644912719726,0.7156843185424805
0.6607870101928711,0.7156843185424805
0.6634511947631836,0.7182483673095703
0.6634511947631836,0.7182483673095703
0.6611806869506835,0.7137588500976563
0.6611806869506835,0.7137588500976563
0.6642768859863281,0.7182094573974609
0.6642768859863281,0.7182094573974609
0.6610055923461914,0.7178804397583007
0.6610055923461914,0.7178804397583007
0.6644233703613281,0.7175708770751953
0.6644233703613281,0.7175708770751953
0.6651906967163086,0.7220375061035156
0.6651906967163086,0.7220375061035156
0.6645429611206054,0.7195787429809570
0.6645429611206054,0.7195787429809570
0.6687538146972656,0.7263210296630859
0.6687538146972656,0.7263210296630859
0.6663545608520508,0.7276565551757812
0.6663545608520508,0.7276565551757812
0.6702678680419921,0.7284307479858398
0.6702678680419921,0.7284307479858398
0.6718219757080078,0.7332155227661132
0.6718219757080078,0.7332155227661132
0.6707817077636719,0.7303979873657226
0.6707817077636719,0.7303979873657226
0.6742715835571289,0.7357309341430663
0.6742715835571289,0.7357309341430663
0.6709882736206054,0.7356445312500000
0.6709882736206054,0.7356445312500000
0.6743173599243164,0.7349452972412109
0.6743173599243164,0.7349452972412109
0.6750257492065429,0.7383213043212891
0.6750257492065429,0.7383213043212891
0.6767549514770508,0.7346088409423828
0.6740959167480468,0.7346088409423828
0.6725137710571288,0.7396963119506835
0.6725137710571288,0.7396963119506835
0.6734916687011718,0.7392454147338867
0.6734916687011718,0.7392454147338867
0.6764430999755859,0.7388231277465820
0.6764430999755859,0.7388231277465820
0.6773717880249023,0.7426826477050781
0.6773717880249023,0.7426826477050781
0.6757495880126952,0.7394720077514648
0.6757495880126952,0.7394720077514648
0.6793395996093750,0.7448856353759765
0.6793395996093750,0.7448856353759765
0.6765747070312500,0.7451471328735352
0.6765747070312500,0.7451471328735352
0.6798471450805664,0.7451368331909179
0.6798471450805664,0.7451368331909179
0.6808193206787109,0.7494758605957031
0.6808193206787109,0.7494758605957031
0.6800388336181641,0.7466405868530274
0.6800388336181641,0.7466405868530274
0.6837118148803710,0.7527551651000977
0.6837118148803710,0.7527551651000977
0.6812055587768554,0.7536226272583008
0.6812055587768554,0.7536226272583008
0.6845369338989258,0.7540666580200195
0.6845369338989258,0.7540666580200195
0.6862644195556641,0.7591043472290039
0.6862644195556641,0.7591043472290039
0.6857162475585937,0.7568572998046875
0.6857162475585937,0.7568572998046875
0.6896198272705077,0.7634439468383789
0.6896198272705077,0.7634439468383789
0.6870700836181640,0.7646730422973632
0.6870700836181640,0.7646730422973632
0.6910314559936523,0.7653774261474610
0.6910314559936523,0.7653774261474610
0.6927600860595703,0.7705982208251952
0.6927600860595703,0.7705982208251952
0.6920642852783203,0.7682704925537109
0.6920642852783203,0.7682704925537109
0.6957721710205078,0.7746036529541015
0.6957721710205078,0.7746036529541015
0.6934484481811524,0.7754453659057617
0.6934484481811524,0.7754453659057617
0.6968610763549804,0.7757343292236328
0.6968610763549804,0.7757343292236328
0.6982549667358399,0.7803737640380859
0.6982549667358399,0.7803737640380859
0.6971036911010742,0.7775447845458984
0.6971036911010742,0.7775447845458984
0.7010210037231445,0.7835712432861328
0.7010210037231445,0.7835712432861328
0.6985496520996094,0.7839242935180664
0.6985496520996094,0.7839242935180664
0.7015663146972656,0.7840238571166992
0.7015663146972656,0.7840238571166992
0.7027198791503906,0.7886678695678710
0.7027198791503906,0.7886678695678710
0.7018987655639648,0.7854566574096680
0.7018987655639648,0.7854566574096680
0.7053565979003906,0.7911420822143554
0.7053565979003906,0.7911420822143554
0.7024858474731445,0.7915117263793945
0.7024858474731445,0.7915117263793945
0.7051809310913085,0.7910213470458984
0.7051809310913085,0.7910213470458984
0.7066217422485351,0.7951000213623046
0.7066217422485351,0.7951000213623046
0.7053743362426758,0.7915718078613281
0.7053743362426758,0.7915718078613281
0.7081707000732421,0.7958850860595703
0.7081707000732421,0.7958850860595703
0.7038431167602539,0.7930131912231445
0.7038431167602539,0.7930131912231445
0.7025711059570312,0.7830665588378906
0.7025711059570312,0.7830665588378906
0.6949281692504883,0.7691345214843750
0.6949281692504883,0.7691345214843750
0.6823682785034180,0.7469644546508789
0.6823682785034180,0.7469644546508789
0.6777379989624023,0.7398662567138672
0.6777379989624023,0.7398662567138672
0.6696207046508789,0.7311023712158203
0.6696207046508789,0.7311023712158203
0.6683841705322265,0.7242147445678710
0.6683841705322265,0.7242147445678710
0.6669364929199219,0.7236980438232422
0.6669364929199219,0.7236980438232422
0.6634649276733399,0.7168664932250977
0.6634649276733399,0.7168664932250977
0.6654092788696289,0.7196474075317383
0.6654092788696289,0.7196474075317383
0.6613798141479492,0.7175096511840821
0.6613798141479492,0.7175096511840821
0.6627737045288086,0.7149770736694335
0.6627737045288086,0.7149770736694335
0.6629270553588867,0.7173460006713867
0.6629270553588867,0.7173460006713867
0.6608699798583985,0.7122728347778320
0.6608699798583985,0.7122728347778320
0.6634815216064452,0.7159858703613281
0.6634815216064452,0.7159858703613281
0.6595029830932617,0.7143619537353515
0.6595029830932617,0.7143619537353515
0.6608739852905273,0.7121606826782226
0.6608739852905273,0.7121606826782226
0.6615818023681640,0.7144351959228515
0.6615818023681640,0.7144351959228515
0.6594251632690430,0.7094770431518554
0.6594251632690430,0.7094770431518554
0.6618118286132812,0.7132043838500977
0.6618118286132812,0.7132043838500977
0.6579483032226562,0.7121355056762695
0.6579483032226562,0.7121355056762695
0.6600265502929688,0.7104154586791992
0.6600265502929688,0.7104154586791992
0.6611772537231445,0.7140563964843750
0.6611772537231445,0.7140563964843750
0.6598886489868164,0.7105419158935546
0.6598886489868164,0.7105419158935546
0.6633733749389649,0.7163452148437500
0.6633733749389649,0.7163452148437500
0.6609992980957031,0.7175874710083008
0.6652816772460938,0.7175874710083008
0.6643186569213867,0.7181625366210938
0.6643186569213867,0.7181625366210938
0.6665422439575195,0.7237140655517578
0.6665422439575195,0.7237140655517578
0.6658493041992187,0.7217531204223633
0.6658493041992187,0.7217531204223633
0.6700990676879882,0.7280181884765625
0.6700990676879882,0.7280181884765625
0.6676855087280273,0.7290058135986328
0.6676855087280273,0.7290058135986328
0.6702186584472656,0.7283849716186523
0.6702186584472656,0.7283849716186523
0.6714735031127930,0.7323108673095703
0.6714735031127930,0.7323108673095703
0.6703325271606445,0.7286384582519531
0.6703325271606445,0.7286384582519531
0.6733755111694336,0.7334329605102539
0.6733755111694336,0.7334329605102539
0.6702632904052734,0.7331039428710937
0.6702632904052734,0.7331039428710937
0.6721441268920898,0.7322307586669922
0.6721441268920898,0.7322307586669922
0.6738430023193359,0.7359277725219726
0.6738430023193359,0.7359277725219726
0.6724399566650391,0.7324802398681640
0.6724399566650391,0.7324802398681640
0.6756374359130859,0.7375734329223632
0.6756374359130859,0.7375734329223632
0.6726482391357421,0.7379076004028320
0.6726482391357421,0.7379076004028320
0.6752185821533203,0.7372701644897460
0.6752185821533203,0.7372701644897460
0.6771451950073242,0.7416978836059570
0.6771451950073242,0.7416978836059570
0.6758932113647461,0.7388557434082031
0.6758932113647461,0.7388557434082031
0.6792406082153321,0.7445114135742187
0.6792406082153321,0.7445114135742187
0.6771903991699219,0.7459310531616211
0.6771903991699219,0.7459310531616211
0.6798585891723633,0.7459705352783202
0.6798585891723633,0.7459705352783202
0.6822498321533202,0.7510997772216796
0.6822498321533202,0.7510997772216796
0.6812988281250000,0.7491090774536132
0.6812988281250000,0.7491090774536132
0.6854473114013672,0.7553386688232422
0.6854473114013672,0.7553386688232422
0.6833879470825195,0.7570089340209961
0.6833879470825195,0.7570089340209961
0.6864114761352539,0.7576978683471679
0.6864114761352539,0.7576978683471679
0.6886362075805664,0.7629964828491210
0.6886362075805664,0.7629964828491210
0.6881343841552734,0.7609273910522460
0.6881343841552734,0.7609273910522460
0.6920791625976562,0.7671678543090820
0.6920791625976562,0.7671678543090820
0.6898086547851562,0.7686321258544921
0.6898086547851562,0.7686321258544921
0.6925540924072265,0.7688816070556640
0.6925540924072265,0.7688816070556640
0.6950832366943359,0.7739650726318359
0.6950832366943359,0.7739650726318359
0.6940704345703125,0.7713775634765625
0.6984855651855468,0.7713775634765625
0.6977748870849609,0.7772747039794922
0.6977748870849609,0.7772747039794922
0.6950706481933594,0.7784597396850585
0.6950706481933594,0.7784597396850585
0.6978647232055664,0.7781696319580078
0.6978647232055664,0.7781696319580078
0.7000665664672852,0.7829315185546875
0.7000665664672852,0.7829315185546875
0.6990005493164062,0.7800018310546875
0.6990005493164062,0.7800018310546875
0.7022872924804687,0.7855081558227539
0.7022872924804687,0.7855081558227539
0.6997255325317383,0.7863126754760742
0.6997255325317383,0.7863126754760742
0.7022512435913085,0.7855093002319335
0.7022512435913085,0.7855093002319335
0.7040616989135742,0.7897579193115234
0.7040616989135742,0.7897579193115234
0.7024538040161132,0.7865226745605468
0.7024538040161132,0.7865226745605468
0.7059110641479492,0.7914453506469726
0.7059110641479492,0.7914453506469726
0.7029104232788086,0.7918081283569336
0.7029104232788086,0.7918081283569336
0.7051179885864257,0.7907312393188476
0.7051179885864257,0.7907312393188476
0.7065793991088867,0.7944980621337890
0.7065793991088867,0.7944980621337890
0.7049291610717773,0.7902202606201172
0.7049291610717773,0.7902202606201172
0.7069822311401367,0.7920106887817383
0.7069822311401367,0.7920106887817383
0.6999521255493164,0.7836336135864258
0.6994411468505859,0.7836336135864258
0.6931818008422851,0.7647102355957031
0.6931818008422851,0.7647102355957031
0.6837896347045899,0.7494163513183594
0.6837896347045899,0.7494163513183594
0.6741983413696289,0.7333047866821288
0.6741983413696289,0.7333047866821288
0.6720434188842773,0.7293170928955078
0.6720434188842773,0.7293170928955078
0.6648920059204101,0.7234142303466796
0.6648920059204101,0.7234142303466796
0.6644170761108398,0.7178730010986328
0.6644170761108398,0.7178730010986328
0.6644754409790039,0.7185424804687500
0.6644754409790039,0.7185424804687500
0.6613706588745117,0.7128444671630859
0.6613706588745117,0.7128444671630859
0.6632171630859375,0.7155961990356445
0.6632171630859375,0.7155961990356445
0.6595172882080078,0.7144981384277344
0.6595172882080078,0.7144981384277344
0.6609169006347656,0.7119140625000000
0.6609169006347656,0.7119140625000000
0.6619972229003906,0.7144392013549804
0.6619972229003906,0.7144392013549804
0.6594337463378906,0.7100297927856445
0.6594337463378906,0.7100297927856445
0.6621837615966797,0.7131975173950195
0.6621837615966797,0.7131975173950195
0.6583774566650390,0.7123689651489258
0.6583774566650390,0.7123689651489258
0.6598211288452148,0.7099348068237304
0.6598211288452148,0.7099348068237304
0.6607240676879883,0.7126115798950196
0.6607240676879883,0.7126115798950196
0.6586795806884765,0.7081998825073242
0.6586795806884765,0.7081998825073242
0.6612848281860352,0.7116880416870117
0.6612848281860352,0.7116880416870117
0.6614513397216797,0.7117298126220702
0.6614513397216797,0.7114259719848632
0.6614513397216797,0.7133399963378906
0.6577148437500000,0.7114528656005860
0.6633213043212890,0.7114528656005860
0.6629945755004882,0.7136793136596680
0.6629945755004882,0.7136793136596680
0.6624996185302734,0.7177963256835938
0.6624996185302734,0.7177963256835938
0.6627210617065430,0.7166547775268555
0.6627210617065430,0.7166547775268555
0.6667716979980468,0.7231195449829101
0.6667716979980468,0.7231195449829101
0.6639644622802734,0.7224494934082031
0.6639644622802734,0.7224494934082031
0.6692035675048827,0.7249774932861328
0.6692035675048827,0.7249774932861328
0.6689935684204101,0.7287637710571289
0.6689935684204101,0.7287637710571289
0.6683046340942382,0.7261951446533202
0.6683046340942382,0.7261951446533202
0.6718460083007812,0.7308340072631836
0.6718460083007812,0.7308340072631836
0.6676465988159179,0.7284908294677734
0.6729904174804687,0.7284908294677734
0.6722637176513672,0.7297519683837891
0.6722637176513672,0.7297519683837891
0.6713510513305664,0.7326255798339844
0.6713510513305664,0.7326255798339844
0.6705671310424804,0.7294086456298828
0.6705671310424804,0.7294086456298828
0.6735826492309570,0.7341447830200195
0.6735826492309570,0.7341447830200195
0.6696859359741211,0.7324235916137695
0.6696859359741211,0.7324235916137695
0.6744472503662109,0.7337997436523437
0.6744472503662109,0.7337997436523437
0.6740644454956054,0.7372135162353516
0.6740644454956054,0.7372135162353516
0.6731901168823242,0.7343902587890625
0.6731901168823242,0.7343902587890625
0.6765632629394531,0.7396825790405274
0.6765632629394531,0.7396825790405274
0.6730728149414062,0.7383962631225586
0.6730728149414062,0.7383962631225586
0.6782249450683594,0.7402061462402344
0.6782249450683594,0.7402061462402344
0.6778244018554688,0.7439392089843749
0.6778244018554688,0.7439392089843749
0.6772516250610351,0.7418329238891601
0.6772516250610351,0.7418329238891601
0.6809829711914063,0.7476659774780273
0.6809829711914063,0.7476659774780273
0.6778867721557617,0.7469678878784179
0.6778867721557617,0.7469678878784179
0.6830863952636719,0.7492303848266602
0.6830863952636719,0.7492303848266602
0.6829393386840820,0.7537279129028320
0.6829393386840820,0.7537279129028320
0.6828254699707031,0.7520685195922852
0.6828254699707031,0.7520685195922852
0.6871307373046874,0.7582408905029296
0.6871307373046874,0.7582408905029296
0.6838165283203125,0.7577894210815429
0.6838165283203125,0.7577894210815429
0.6892261505126953,0.7602813720703124
0.6899448394775390,0.7647113800048828
0.6891111373901367,0.7627326965332031
0.6891111373901367,0.7627326965332031
0.6928825378417969,0.7686429977416992
0.6928825378417969,0.7686429977416992
0.6895620346069335,0.7683042526245117
0.6895620346069335,0.7683042526245117
0.6948165893554688,0.7702463150024413
0.6948165893554688,0.7702463150024413
0.6949213027954101,0.7743192672729492
0.6949213027954101,0.7743192672729492
0.6941093444824219,0.7718627929687499
0.6941093444824219,0.7718627929687499
0.6979396820068359,0.7776901245117187
0.6979396820068359,0.7776901245117187
0.6944944381713867,0.7771986007690429
0.6944944381713867,0.7771986007690429
0.6998920440673828,0.7788831710815429
0.6998920440673828,0.7788831710815429
0.6995046615600585,0.7827135086059570
0.6995046615600585,0.7827135086059570
0.6988191604614258,0.7802307128906250
0.6988191604614258,0.7802307128906250
0.7024824142456054,0.7856580734252929
0.7024824142456054,0.7856580734252929
0.6990606307983398,0.7849914550781250
0.6990606307983398,0.7849914550781250
0.7038448333740234,0.7859836578369140
0.7038448333740234,0.7859836578369140
0.7032966613769531,0.7894786834716797
0.7036697387695312,0.7894786834716797
0.7022146224975586,0.7858766555786133
0.7022146224975586,0.7858766555786133
0.7050527572631836,0.7889877319335937
0.7050527572631836,0.7889877319335937
0.6981124877929688,0.7810604095458984
0.6981124877929688,0.7810604095458984
0.6956914901733399,0.7670591354370117
0.6956914901733399,0.7670591354370117
0.6839418411254883,0.7507490158081055
0.6839418411254883,0.7507490158081055
0.6744598388671875,0.7335748672485352
0.6744598388671875,0.7335748672485352
0.6717590332031250,0.7289909362792969
0.6717590332031250,0.7289909362792969
0.6635765075683594,0.7211969375610351
0.6635765075683594,0.7211969375610351
0.6653274536132813,0.7169288635253906
0.6653274536132813,0.7169288635253906
0.6626541137695312,0.7166358947753906
0.6626541137695312,0.7166358947753906
0.6598062515258789,0.7104543685913086
0.6598062515258789,0.7104543685913086
0.6621076583862304,0.7134355545043946
0.6621076583862304,0.7134355545043946
0.6569194793701172,0.7106632232666016
0.6569194793701172,0.7106632232666016
0.6610158920288086,0.7096435546875000
0.6610158920288086,0.7096435546875000
0.6594686508178711,0.7113304138183594
0.6594686508178711,0.7113304138183594
0.6574224472045899,0.7063413619995117
0.6574224472045899,0.7063413619995117
0.6600540161132812,0.7098461151123047
0.6600540161132812,0.7098461151123047
0.6553018569946288,0.7071035385131835
0.6553018569946288,0.7071035385131835
0.6589679718017578,0.7060855865478516
0.6589679718017578,0.7060855865478516
0.6575082778930664,0.7079916000366211
0.6575082778930664,0.7079916000366211
0.6555925369262695,0.7030036926269531
0.6555925369262695,0.7030036926269531
0.6585559844970703,0.7069101333618164
0.6585559844970703,0.7069101333618164
0.6536853790283202,0.7048770904541015
0.6536853790283202,0.7048770904541015
0.6581439971923828,0.7052610397338867
0.6581439971923828,0.7052610397338867
0.6576662063598633,0.7085437774658203
0.6576662063598633,0.7085437774658203
0.6569990158081055,0.7057325363159179
0.6569990158081055,0.7057325363159179
0.6610525131225585,0.7117755889892577
0.6610525131225585,0.7117755889892577
0.6576473236083984,0.7126688003540039
0.6576473236083984,0.7126688003540039
0.6634357452392577,0.7145748138427734
0.6634357452392577,0.7145748138427734
0.6640068054199219,0.7196245193481445
0.6640068054199219,0.7196245193481445
0.6635948181152344,0.7174701690673828
0.6635948181152344,0.7174701690673828
0.6677278518676758,0.7236019134521484
0.6677278518676758,0.7236019134521484
0.6639633178710938,0.7234943389892577
0.6639633178710938,0.7234943389892577
0.6692831039428710,0.7241523742675781
0.6692831039428710,0.7241523742675781
0.6685661315917969,0.7273532867431640
0.6689483642578125,0.7273532867431640
0.6674755096435546,0.7237558364868164
0.6674755096435546,0.7237558364868164
0.6709608078002930,0.7287603378295898
0.6709608078002930,0.7287603378295898
0.6668003082275390,0.7280267715454102
0.6668003082275390,0.7280267715454102
0.6714471817016602,0.7281543731689453
0.6714471817016602,0.7281543731689453
0.6709207534790039,0.7316070556640625
0.6709207534790039,0.7316070556640625
0.6698587417602538,0.7281034469604492
0.6698587417602538,0.7281034469604492
0.6738395690917969,0.7335336685180663
0.6738395690917969,0.7335336685180663
0.6695159912109375,0.7331909179687500
0.6695159912109375,0.7331909179687500
0.6746498107910156,0.7337968826293945
0.6746498107910156,0.7337968826293945
0.6743951797485351,0.7376724243164062
0.6743951797485351,0.7376724243164062
0.6736215591430664,0.7346185684204102
0.6736215591430664,0.7346185684204102
0.6775125503540039,0.7403400421142577
0.6775125503540039,0.7403400421142577
0.6735826492309570,0.7405168533325195
0.6735826492309570,0.7405168533325195
0.6789453506469726,0.7417842864990234
0.6769186019897461,0.7417842864990234
0.6793584823608398,0.7462532043457031
0.6793584823608398,0.7462532043457031
0.6785659790039062,0.7438522338867187
0.6785659790039062,0.7438522338867187
0.6829473495483398,0.7504915237426758
0.6829473495483398,0.7504915237426758
0.6795839309692383,0.7515781402587890
0.6795839309692383,0.7515781402587890
0.6855085372924804,0.7531162261962890
0.6855085372924804,0.7531162261962890
0.6857803344726562,0.7579496383666992
0.6857803344726562,0.7579496383666992
0.6853282928466796,0.7558765411376953
0.6853282928466796,0.7558765411376953
0.6897508621215820,0.7626354217529296
0.6897508621215820,0.7626354217529296
0.6865001678466797,0.7635389328002929
0.6865001678466797,0.7635389328002929
0.6919458389282226,0.7646724700927734
0.6919458389282226,0.7646724700927734
0.6922319412231445,0.7693536758422851
0.6922319412231445,0.7693536758422851
0.6914583206176758,0.7668691635131836
0.6914583206176758,0.7668691635131836
0.6959489822387696,0.7731216430664062
0.6959489822387696,0.7731216430664062
0.6921546936035156,0.7737207412719727
0.6921546936035156,0.7737207412719727
0.6974115371704102,0.7744485855102539
0.6974115371704102,0.7744485855102539
0.6975248336791992,0.7787258148193359
0.6975248336791992,0.7787258148193359
0.6966493606567382,0.7757955551147461
0.6966493606567382,0.7757955551147461
0.7004831314086913,0.7813905715942383
0.6969234466552734,0.7813905715942383
0.6966917037963867,0.7816543579101562
0.7022060394287110,0.7816543579101562
0.7015399932861328,0.7818500518798828
0.7015399932861328,0.7818500518798828
0.7017723083496094,0.7858079910278321
0.7017723083496094,0.7858079910278321
0.7002073287963867,0.7822574615478516
0.7002073287963867,0.7822574615478516
0.7040010452270508,0.7876293182373046
0.7040010452270508,0.7876293182373046
0.6998926162719726,0.7875005722045898
0.6998926162719726,0.7875005722045898
0.7049400329589843,0.7872447967529297
0.7049400329589843,0.7872447967529297
0.7038070678710937,0.7892377853393554
0.7038070678710937,0.7892377853393554
0.7005374908447265,0.7814489364624023
0.7005374908447265,0.7814489364624023
0.6987894058227538,0.7746150970458984
0.6987894058227538,0.7746150970458984
0.6845787048339843,0.7543642044067382
0.6845787048339843,0.7543642044067382
0.6784029006958008,0.7371282577514648
0.6784029006958008,0.7371282577514648
0.6713773727416992,0.7301668167114258
0.6713773727416992,0.7301668167114258
0.6653572082519531,0.7193161010742187
0.6653572082519531,0.7193161010742187
0.6659969329833985,0.7191473007202148
0.6659969329833985,0.7191473007202148
0.6597845077514648,0.7152574539184570
0.6597845077514648,0.7152574539184570
0.6628458023071289,0.7124410629272461
0.6628458023071289,0.7124410629272461
0.6612882614135742,0.7139007568359375
0.6612882614135742,0.7139007568359375
0.6590618133544922,0.7087274551391601
0.6590618133544922,0.7087274551391601
0.6616842269897460,0.7121137619018555
0.6616842269897460,0.7121137619018555
0.6570505142211914,0.7108428955078124
0.6570505142211914,0.7108428955078124
0.6608350753784179,0.7091800689697265
0.6608350753784179,0.7091800689697265
0.6601713180541992,0.7112405776977538
0.6601713180541992,0.7112405776977538
0.6577383041381836,0.7064626693725585
0.6577383041381836,0.7064626693725585
0.6605541229248046,0.7102386474609375
0.6605541229248046,0.7102386474609375
0.6558963775634765,0.7086032867431641
0.6558963775634765,0.7086032867431641
0.6597272872924804,0.7069101333618164
0.6597272872924804,0.7069101333618164
0.6589113235473633,0.7094816207885742
0.6589113235473633,0.7094816207885742
0.6570682525634766,0.7053920745849609
0.6570682525634766,0.7053920745849609
0.6604969024658203,0.7102569580078125
0.6604969024658203,0.7102569580078125
0.6570945739746094,0.7103490829467773
0.6570945739746094,0.7103490829467773
0.6614896774291992,0.7104623794555663
0.6614896774291992,0.7104623794555663
0.6620298385620117,0.7154932022094727
0.6620298385620117,0.7154932022094727
0.6615074157714843,0.7135219573974609
0.6615074157714843,0.7135219573974609
0.6644365310668945,0.7186592102050781
0.6644365310668945,0.7190380096435547
0.6644365310668945,0.7190380096435547
0.6678222656250000,0.7238754272460938
0.6678222656250000,0.7238754272460938
0.6650241851806641,0.7220998764038086
0.6650241851806641,0.7220998764038086
0.6699714660644531,0.7249380111694336
0.6699714660644531,0.7249380111694336
0.6676065444946289,0.7274248123168945
0.6676065444946289,0.7274248123168945
0.6684539794921874,0.7257270812988281
0.6684539794921874,0.7257270812988281
0.6707468032836914,0.7288375854492187
0.6707468032836914,0.7288375854492187
0.6673204421997070,0.7257007598876953
0.6673204421997070,0.7257007598876953
0.6716629028320312,0.7275335311889648
0.6716629028320312,0.7275335311889648
0.6688762664794922,0.7296695709228516
0.6688762664794922,0.7296695709228516
0.6693500518798828,0.7279472351074219
0.6693500518798828,0.7279472351074219
0.6724302291870117,0.7315612792968750
0.6724302291870117,0.7315612792968750
0.6690336227416992,0.7287906646728516
0.6690336227416992,0.7287906646728516
0.6734876632690430,0.7313432693481445
0.6734876632690430,0.7313432693481445
0.6711004257202148,0.7340566635131835
0.6711004257202148,0.7340566635131835
0.6723712921142578,0.7328447341918946
0.6723712921142578,0.7328447341918946
0.6754978179931640,0.7369205474853515
0.6728313446044921,0.7369205474853515
0.6720462799072265,0.7345481872558594
0.6720462799072265,0.7345481872558594
0.6767103195190429,0.7376300811767578
0.6767103195190429,0.7376300811767578
0.6751510620117187,0.7410295486450195
0.6751510620117187,0.7410295486450195
0.6764104843139648,0.7403354644775391
0.6764104843139648,0.7403354644775391
0.6796812057495117,0.7449451446533203
0.6796812057495117,0.7449451446533203
0.6765913009643555,0.7431930541992188
0.6765913009643555,0.7431930541992188
0.6818607330322265,0.7466188430786133
0.6818607330322265,0.7466188430786133
0.6802722930908203,0.7502048492431640
0.6802722930908203,0.7502048492431640
0.6813817977905273,0.7495805740356445
0.6813817977905273,0.7495805740356445
0.6846559524536132,0.7543870925903320
0.6846559524536132,0.7543870925903320
0.6817039489746094,0.7519186019897460
0.6817039489746094,0.7519186019897460
0.6864440917968749,0.7546869277954101
0.6864440917968749,0.7546869277954101
0.6847526550292968,0.7580211639404296
0.6847526550292968,0.7580211639404296
0.6852973937988281,0.7567394256591796
0.6852973937988281,0.7567394256591796
0.6885515213012695,0.7608398437500000
0.6885515213012695,0.7608398437500000
0.6848230361938477,0.7581138610839844
0.6848230361938477,0.7581138610839844
0.6895339965820312,0.7604999542236328
0.6895339965820312,0.7604999542236328
0.6872497558593750,0.7631486892700196
0.6872497558593750,0.7631486892700196
0.6884628295898437,0.7620964050292969
0.6893423080444335,0.7620964050292969
0.6916402816772461,0.7665063858032226
0.6916402816772461,0.7665063858032226
0.6880777359008788,0.7643079757690430
0.6880777359008788,0.7643079757690430
0.6929368972778320,0.7673566818237304
0.6929368972778320,0.7673566818237304
0.6916076660156250,0.7707813262939452
0.6916076660156250,0.7707813262939452
0.6927005767822265,0.7697914123535156
0.6927005767822265,0.7697914123535156
0.6959541320800781,0.7744394302368164
0.6959541320800781,0.7744394302368164
0.6920413970947266,0.7713352203369140
0.6920413970947266,0.7713352203369140
0.6968301773071289,0.7730638504028320
0.6968301773071289,0.7730638504028320
0.6934667587280273,0.7720481872558593
0.6934667587280273,0.7720481872558593
0.6887964248657227,0.7590053558349609
0.6887964248657227,0.7590053558349609
0.6821228027343750,0.7456644058227538
0.6821228027343750,0.7456644058227538
0.6696115493774414,0.7287282943725586
0.6696115493774414,0.7287282943725586
0.6684534072875976,0.7213611602783203
0.6684534072875976,0.7213611602783203
0.6623977661132813,0.7170948028564453
0.6623977661132813,0.7170948028564453
0.6598348617553711,0.7106140136718749
0.6598348617553711,0.7106140136718749
0.6610696792602538,0.7114849090576172
0.6610696792602538,0.7114849090576172
0.6557081222534179,0.7060689926147461
0.6557081222534179,0.7060689926147461
0.6592603683471679,0.7065891265869141
0.6592603683471679,0.7065891265869141
0.6566917419433593,0.7077095031738281
0.6566917419433593,0.7077095031738281
0.6563175201416015,0.7045114517211913
0.6563175201416015,0.7045114517211913
0.6586715698242187,0.7075092315673828
0.6586715698242187,0.7075092315673828
0.6539989471435547,0.7029933929443359
0.6539989471435547,0.7029933929443359
0.6578172683715821,0.7041709899902343
0.6578172683715821,0.7041709899902343
0.6558734893798828,0.7053354263305663
0.6558734893798828,0.7053354263305663
0.6551204681396484,0.7019113540649414
0.6551204681396484,0.7019113540649414
0.6571495056152343,0.7045154571533203
0.6571495056152343,0.7045154571533203
0.6520374298095702,0.6998422622680663
0.6520374298095702,0.6998422622680663
0.6561052322387695,0.7005844116210938
0.6561052322387695,0.7005844116210938
0.6537477493286132,0.7020280838012695
0.6537477493286132,0.7020280838012695
0.6535228729248047,0.6991498947143554
0.6535228729248047,0.6991498947143554
0.6560462951660156,0.7031593322753906
0.6560462951660156,0.7031593322753906
0.6522989273071289,0.7003635406494141
0.6522989273071289,0.7003635406494141
0.6575037002563476,0.7033802032470703
0.6575037002563476,0.7033802032470703
0.6568759918212891,0.7073862075805664
0.6568759918212891,0.7073862075805664
0.6574625015258789,0.7067430496215820
0.6574625015258789,0.7067430496215820
0.6615858078002930,0.7127815246582031
0.6615858078002930,0.7127815246582031
0.6584547042846679,0.7108743667602538
0.6584547042846679,0.7108743667602538
0.6638786315917968,0.7143001556396484
0.6638786315917968,0.7143001556396484
0.6626844406127930,0.7177682876586914
0.6626844406127930,0.7177682876586914
0.6632629394531250,0.7157970428466797
0.6632629394531250,0.7157970428466797
0.6662944793701172,0.7200948715209960
0.6662944793701172,0.7200948715209960
0.6620309829711913,0.7169340133666992
0.6620309829711913,0.7169340133666992
0.6663871765136719,0.7188188552856445
0.6663871765136719,0.7188188552856445
0.6653400421142578,0.7213474273681640
0.6653400421142578,0.7213474273681640
0.6652061462402343,0.7190952301025391
0.6652061462402343,0.7190952301025391
0.6681644439697265,0.7234640121459961
0.6681644439697265,0.7234640121459961
0.6638689041137695,0.7206670761108398
0.6638689041137695,0.7206670761108398
0.6689369201660156,0.7229272842407226
0.6689369201660156,0.7229272842407226
0.6681919097900391,0.7261224746704101
0.6681919097900391,0.7261224746704101
0.6681123733520508,0.7243537902832031
0.6681123733520508,0.7243537902832031
0.6710975646972656,0.7293216705322265
0.6710975646972656,0.7293216705322265
0.6674697875976562,0.7267667770385742
0.6674697875976562,0.7267667770385742
0.6725870132446289,0.7294412612915039
0.6699268341064453,0.7294412612915039
0.6720033645629883,0.7328899383544921
0.6720033645629883,0.7328899383544921
0.6718557357788085,0.7314634323120117
0.6718557357788085,0.7314634323120117
0.6755962371826172,0.7367317199707031
0.6755962371826172,0.7367317199707031
0.6719638824462890,0.7344892501831054
0.6719638824462890,0.7344892501831054
0.6771411895751953,0.7373697280883789
0.6771411895751953,0.7373697280883789
0.6765449523925781,0.7412704467773438
0.6765449523925781,0.7412704467773438
0.6769369125366210,0.7398233413696289
0.6769369125366210,0.7398233413696289
0.6805870056152343,0.7454835891723632
0.6805870056152343,0.7454835891723632
0.6769334793090820,0.7432611465454101
0.6769334793090820,0.7432611465454101
0.6820821762084961,0.7463630676269531
0.6820821762084961,0.7463630676269531
0.6820220947265625,0.7503850936889648
0.6820220947265625,0.7503850936889648
0.6821725845336913,0.7490581512451172
0.6821725845336913,0.7490581512451172
0.6857814788818359,0.7547178268432617
0.6857814788818359,0.7547178268432617
0.6820295333862304,0.7529176712036133
0.6820295333862304,0.7529176712036133
0.6876216888427734,0.7560024261474609
0.6876216888427734,0.7560024261474609
0.6874277114868164,0.7601079940795898
0.6874277114868164,0.7601079940795898
0.6874185562133789,0.7587421417236327
0.6874185562133789,0.7587421417236327
0.6909639358520507,0.7647314071655273
0.6909639358520507,0.7647314071655273
0.6877973556518554,0.7628505706787109
0.6877973556518554,0.7628505706787109
0.6933002471923828,0.7658197402954101
0.6933002471923828,0.7658197402954101
0.6928133010864258,0.7699270248413086
0.6928133010864258,0.7699270248413086
0.6926330566406250,0.7682945251464843
0.6926330566406250,0.7682945251464843
0.6965074539184570,0.7738958358764648
0.6965074539184570,0.7738958358764648
0.6928356170654296,0.7715360641479492
0.6928356170654296,0.7715360641479492
0.6978092193603516,0.7737871170043945
0.6978092193603516,0.7737871170043945
0.6965034484863281,0.7755357742309570
0.6965034484863281,0.7755357742309570
0.6937116622924805,0.7673486709594727
0.6937116622924805,0.7673486709594727
0.6904924392700195,0.7588319778442383
0.6904924392700195,0.7588319778442383
0.6768556594848633,0.7393060684204101
0.6768556594848633,0.7393060684204101
0.6735311508178711,0.7285131454467774
0.6735311508178711,0.7285131454467774
0.6673044204711914,0.7222269058227538
0.6673044204711914,0.7222269058227538
0.6622919082641602,0.7125738143920898
0.6622919082641602,0.7125738143920898
0.6621648788452148,0.7122259140014648
0.6621648788452148,0.7122259140014648
0.6554769515991211,0.7052536010742188
0.6554769515991211,0.7052536010742188
0.6587001800537109,0.7042310714721679
0.6587001800537109,0.7042310714721679
0.6565383911132813,0.7048484802246093
0.6565383911132813,0.7048484802246093
0.6544761657714844,0.6999647140502929
0.6544761657714844,0.6999647140502929
0.6564027786254882,0.7030403137207031
0.6564027786254882,0.7030403137207031
0.6516248703002929,0.6985702514648438
0.6516248703002929,0.6985702514648438
0.6553596496582031,0.6985662460327148
0.6553596496582031,0.6985662460327148
0.6536378860473633,0.7000539779663085
0.6536378860473633,0.7000539779663085
0.6516557693481445,0.6954763412475585
0.6516557693481445,0.6954763412475585
0.6541265487670899,0.6987207412719726
0.6541265487670899,0.6987207412719726
0.6492290496826172,0.6943588256835938
0.6492290496826172,0.6943588256835938
0.6530782699584960,0.6946220397949219
0.6530782699584960,0.6946220397949219
0.6513587951660156,0.6963792800903320
0.6513587951660156,0.6963792800903320
0.6500364303588867,0.6924459457397460
0.6500364303588867,0.6924459457397460
0.6528419494628906,0.6967082977294922
0.6528419494628906,0.6967082977294922
0.6487861633300781,0.6939817428588867
0.6487861633300781,0.6939817428588867
0.6534576416015625,0.6959804534912110
0.6534576416015625,0.6959804534912110
0.6533403396606445,0.7002313613891601
0.6533403396606445,0.7002313613891601
0.6534364700317382,0.6987562179565430
0.6534364700317382,0.6987562179565430
0.6576307296752929,0.7054292678833007
0.6576307296752929,0.7054292678833007
0.6545333862304688,0.7045194625854492
0.6545333862304688,0.7045194625854492
0.6604104995727539,0.7077861785888672
0.6604104995727539,0.7077861785888672
0.6605129241943359,0.7121681213378906
0.6605129241943359,0.7121681213378906
0.6600196838378906,0.7099542617797852
0.6600196838378906,0.7099542617797852
0.6634695053100585,0.7153032302856445
0.6634695053100585,0.7153032302856445
0.6597089767456055,0.7129016876220703
0.6597089767456055,0.7129016876220703
0.6644702911376953,0.7140930175781249
0.6644702911376953,0.7140930175781249
0.6655260086059570,0.7167783737182617
0.6655260086059570,0.7167783737182617
0.6622083663940429,0.7171314239501952
0.6653308868408203,0.7171314239501952
0.6643472671508789,0.7155675888061523
0.6643472671508789,0.7155675888061523
0.6662424087524413,0.7195610046386719
0.6662424087524413,0.7195610046386719
0.6644342422485351,0.7164516448974609
0.6644342422485351,0.7164516448974609
0.6680208206176758,0.7208713531494141
0.6680208206176758,0.7208713531494141
0.6651283264160156,0.7219390869140625
0.6651283264160156,0.7219390869140625
0.6673101425170899,0.7209926605224609
0.6673101425170899,0.7209926605224609
0.6697311401367188,0.7256063461303711
0.6697311401367188,0.7256063461303711
0.6681999206542969,0.7229999542236328
0.6681999206542969,0.7229999542236328
0.6722133636474609,0.7280290603637695
0.6722133636474609,0.7280290603637695
0.6692533493041992,0.7297262191772461
0.6692533493041992,0.7297262191772461
0.6719919204711914,0.7293840408325195
0.6719919204711914,0.7293840408325195
0.6746526718139648,0.7344875335693359
0.6746526718139648,0.7344875335693359
0.6735088348388671,0.7325437545776367
0.6735088348388671,0.7325437545776367
0.6776321411132812,0.7377840042114258
0.6776321411132812,0.7377840042114258
0.6750503540039062,0.7399681091308593
0.6750503540039062,0.7399681091308593
0.6778793334960938,0.7400121688842773
0.6778793334960938,0.7400121688842773
0.6810705184936523,0.7452833175659179
0.6810705184936523,0.7452833175659179
0.6795604705810546,0.7432806015014648
0.6795604705810546,0.7432806015014648
0.6837141036987304,0.7484378814697266
0.6837141036987304,0.7484378814697266
0.6810699462890625,0.7503913879394531
0.6810699462890625,0.7503913879394531
0.6837850570678711,0.7499336242675781
0.6837850570678711,0.7499336242675781
0.6862466812133788,0.7545639038085937
0.6862466812133788,0.7545639038085937
0.6846416473388671,0.7524209976196289
0.6846416473388671,0.7524209976196289
0.6885864257812500,0.7569717407226563
0.6885864257812500,0.7569717407226563
0.6857975006103515,0.7585767745971680
0.6857975006103515,0.7585767745971680
0.6880439758300781,0.7579679489135742
0.6880439758300781,0.7579679489135742
0.6907184600830077,0.7626079559326172
0.6907184600830077,0.7626079559326172
0.6889675140380859,0.7603563308715821
0.6889675140380859,0.7603563308715821
0.6932819366455077,0.7648653030395508
0.6932819366455077,0.7648653030395508
0.6900976181030273,0.7666843414306640
0.6900976181030273,0.7666843414306640
0.6924842834472656,0.7660217285156250
0.6924842834472656,0.7660217285156250
0.6951227188110352,0.7705352783203124
0.6951227188110352,0.7705352783203124
0.6935211181640625,0.7680862426757812
0.6935211181640625,0.7680862426757812
0.6969743728637695,0.7711360931396484
0.6969743728637695,0.7711360931396484
0.6926422119140625,0.7698812484741211
0.6926422119140625,0.7698812484741211
0.6909044265747070,0.7602590560913086
0.6909044265747070,0.7602590560913086
0.6853094100952148,0.7485179901123047
0.6853094100952148,0.7485179901123047
0.6739253997802734,0.7307029724121094
0.6739253997802734,0.7307029724121094
0.6711210250854492,0.7233541488647460
0.6711210250854492,0.7233541488647460
0.6627107620239258,0.7164350509643554
0.6637430191040039,0.7164350509643554
0.6611858367919922,0.7093013763427735
0.6611858367919922,0.7093013763427735
0.6606142044067382,0.7086090087890625
0.6606142044067382,0.7086090087890625
0.6562557220458984,0.7025459289550781
0.6562557220458984,0.7025459289550781
0.6586481094360351,0.7034191131591797
0.6586481094360351,0.7034191131591797
0.6541814804077148,0.7026443481445312
0.6541814804077148,0.7026443481445312
0.6550397872924805,0.6996053695678711
0.6550397872924805,0.6996053695678711
0.6565011978149414,0.7019428253173828
0.6565011978149414,0.7019428253173828
0.6532905578613281,0.6977125167846679
0.6532905578613281,0.6977125167846679
0.6565858840942382,0.6993736267089844
0.6565858840942382,0.6993736267089844
0.6522434234619140,0.6993381500244140
0.6522434234619140,0.6993381500244140
0.6532236099243164,0.6965497970581055
0.6532236099243164,0.6965497970581055
0.6547639846801757,0.6988655090332031
0.6547639846801757,0.6988655090332031
0.6517278671264648,0.6945402145385742
0.6517278671264648,0.6945402145385742
0.6546604156494140,0.6963008880615235
0.6546604156494140,0.6963008880615235
0.6506052017211914,0.6967185974121094
0.6506052017211914,0.6967185974121094
0.6521226882934570,0.6948022842407227
0.6521226882934570,0.6948022842407227
0.6544727325439453,0.6983465194702149
0.6544727325439453,0.6983465194702149
0.6519842147827148,0.6958208084106445
0.6519842147827148,0.6958208084106445
0.6565589904785156,0.6995933532714843
0.6565589904785156,0.6995933532714843
0.6537729263305664,0.7025156021118164
0.6537729263305664,0.7025156021118164
0.6568387985229492,0.7029687881469726
0.6568387985229492,0.7029687881469726
0.6599012374877929,0.7082216262817382
0.6599012374877929,0.7082216262817382
0.6583465576171875,0.7069301605224609
0.6583465576171875,0.7069301605224609
0.6630929946899414,0.7108612060546875
0.6630929946899414,0.7108612060546875
0.6601804733276367,0.7130510330200195
0.6601804733276367,0.7130510330200195
0.6620510101318359,0.7119747161865234
0.6620510101318359,0.7119747161865234
0.6646018981933594,0.7157312393188476
0.6646018981933594,0.7157312393188476
0.6619817733764648,0.7127162933349609
0.6619817733764648,0.7127162933349609
0.6661457061767578,0.7154382705688477
0.6661457061767578,0.7154382705688477
0.6651781082153320,0.7167457580566406
0.6651781082153320,0.7167457580566406
0.6634660720825195,0.7154045104980469
0.6634660720825195,0.7154045104980469
0.6665657043457031,0.7190088272094727
0.6665657043457031,0.7190088272094727
0.6641893386840820,0.7162708282470703
0.6641893386840820,0.7162708282470703
0.6682514190673828,0.7190397262573242
0.6682514190673828,0.7190397262573242
0.6648399353027343,0.7212181091308594
0.6648399353027343,0.7212181091308594
0.6667556762695312,0.7202127456665038
0.6667556762695312,0.7202127456665038
0.6696155548095702,0.7242307662963867
0.6674486160278320,0.7242307662963867
0.6671487808227539,0.7217823028564453
0.6671487808227539,0.7217823028564453
0.6715988159179688,0.7251136779785156
0.6715988159179688,0.7251136779785156
0.6685174942016602,0.7274986267089844
0.6685174942016602,0.7274986267089844
0.6706815719604492,0.7269653320312500
0.6706815719604492,0.7269653320312500
0.6733640670776367,0.7312711715698242
0.6733640670776367,0.7312711715698242
0.6711816787719727,0.7294595718383788
0.6711816787719727,0.7294595718383788
0.6760110855102539,0.7329065322875976
0.6760110855102539,0.7329065322875976
0.6733291625976562,0.7358510971069335
0.6733291625976562,0.7358510971069335
0.6752735137939453,0.7353744506835938
0.6752735137939453,0.7353744506835938
0.6784830093383789,0.7401975631713867
0.6784830093383789,0.7401975631713867
0.6762651443481446,0.7383848190307617
0.6762651443481446,0.7383848190307617
0.6812250137329101,0.7418952941894531
0.6812250137329101,0.7418952941894531
0.6779714584350586,0.7447019577026367
0.6810590744018554,0.7447019577026367
0.6802671432495117,0.7442665100097656
0.6802671432495117,0.7442665100097656
0.6833696365356445,0.7488035202026367
0.6833696365356445,0.7488035202026367
0.6810647964477539,0.7468608856201172
0.6810647964477539,0.7468608856201172
0.6859188079833984,0.7502031326293945
0.6859188079833984,0.7502031326293945
0.6831521987915039,0.7534189224243164
0.6831521987915039,0.7534189224243164
0.6852790832519531,0.7530372619628906
0.6852790832519531,0.7530372619628906
0.6886150360107421,0.7578798294067383
0.6886150360107421,0.7578798294067383
0.6862712860107422,0.7562067031860351
0.6862712860107422,0.7562067031860351
0.6911607742309570,0.7599277496337891
0.6911607742309570,0.7599277496337891
0.6886230468750000,0.7629987716674804
0.6886230468750000,0.7629987716674804
0.6909009933471679,0.7627040863037109
0.6909009933471679,0.7627040863037109
0.6938261032104492,0.7672010421752929
0.6938261032104492,0.7672010421752929
0.6913764953613281,0.7650083541870117
0.6913764953613281,0.7650083541870117
0.6960714340209960,0.7680925369262696
0.6960714340209960,0.7680925369262696
0.6929237365722656,0.7697959899902344
0.6929237365722656,0.7697959899902344
0.6929483413696289,0.7651576995849609
0.6929483413696289,0.7651576995849609
0.6911808013916015,0.7592313766479492
0.6911808013916015,0.7592313766479492
0.6797990798950195,0.7407966613769531
0.6797990798950195,0.7407966613769531
0.6759555816650390,0.7295986175537109
0.6759555816650390,0.7295986175537109
0.6660947799682617,0.7214412689208984
0.6660947799682617,0.7214412689208984
0.6630283355712890,0.7124387741088867
0.6630283355712890,0.7124387741088867
0.6621030807495117,0.7102260589599609
0.6621030807495117,0.7102260589599609
0.6565189361572266,0.7033658981323242
0.6565189361572266,0.7033658981323242
0.6589719772338867,0.7025510787963867
0.6589719772338867,0.7025510787963867
0.6544040679931641,0.7025630950927734
0.6544040679931641,0.7025630950927734
0.6547714233398437,0.6994033813476562
0.6547714233398437,0.6994033813476562
0.6565320968627929,0.7014038085937500
0.6565320968627929,0.7014038085937500
0.6524980545043945,0.6970207214355468
0.6524980545043945,0.6970207214355468
0.6561859130859374,0.6982440948486328
0.6561859130859374,0.6982440948486328
0.6523401260375976,0.6990028381347656
0.6523401260375976,0.6990028381347656
0.6530508041381836,0.6961498260498047
0.6530508041381836,0.6961498260498047
0.6547004699707031,0.6982549667358399
0.6547004699707031,0.6982549667358399
0.6505439758300781,0.6940137863159179
0.6505439758300781,0.6940137863159179
0.6543834686279296,0.6951158523559570
0.6543834686279296,0.6951158523559570
0.6509084701538086,0.6961927413940430
0.6509084701538086,0.6961927413940430
0.6514829635620117,0.6938123703002930
0.6514829635620117,0.6938123703002930
0.6538730621337890,0.6969594955444336
0.6538730621337890,0.6969594955444336
0.6506452560424805,0.6943576812744140
0.6506452560424805,0.6943576812744140
0.6557235717773438,0.6975946426391602
0.6557235717773438,0.6975946426391602
0.6534616470336914,0.7011371612548828
0.6534616470336914,0.7011371612548828
0.6554718017578125,0.7011749267578125
0.6554718017578125,0.7011749267578125
0.6591247558593750,0.7065118789672852
0.6591247558593750,0.7065118789672852
0.6568593978881836,0.7051465988159179
0.6568593978881836,0.7051465988159179
0.6619239807128906,0.7084299087524414
0.6619239807128906,0.7084299087524414
0.6597335815429687,0.7116325378417968
0.6597335815429687,0.7116325378417968
0.6610427856445312,0.7104320526123047
0.6610427856445312,0.7104320526123047
0.6640268325805664,0.7141811370849609
0.6613157272338867,0.7141811370849609
0.6603899002075195,0.7111793518066406
0.6603899002075195,0.7111793518066406
0.6649291992187499,0.7135717391967773
0.6649291992187499,0.7135717391967773
0.6623130798339844,0.7158496856689452
0.6623130798339844,0.7158496856689452
0.6634660720825195,0.7141639709472656
0.6634660720825195,0.7141639709472656
0.6661565780639648,0.7179370880126953
0.6661565780639648,0.7179370880126953
0.6627056121826171,0.7150274276733398
0.6682102203369140,0.7150274276733398
0.6673164367675781,0.7177207946777343
0.6673164367675781,0.7177207946777343
0.6651323318481445,0.7204519271850586
0.6651323318481445,0.7204519271850586
0.6661937713623046,0.7191999435424804
0.6661937713623046,0.7191999435424804
0.6691646575927734,0.7233570098876952
0.6691646575927734,0.7233570098876952
0.6658922195434570,0.7209783554077148
0.6658922195434570,0.7209783554077148
0.6681632995605469,0.7222520828247070
0.6712663650512695,0.7222520828247070
0.6720783233642578,0.7282825469970703
0.6684225082397460,0.7282825469970703
0.6688276290893554,0.7288450241088867
0.6688276290893554,0.7288450241088867
0.6734470367431641,0.7293348312377930
0.6734470367431641,0.7293348312377930
0.6745496749877929,0.7343502044677734
0.6745496749877929,0.7343502044677734
0.6735443115234375,0.7320367813110351
0.6735443115234375,0.7320367813110351
0.6777580261230468,0.7387029647827148
0.6777580261230468,0.7387029647827148
0.6752838134765625,0.7397203445434570
0.6752838134765625,0.7397203445434570
0.6797321319580077,0.7404155731201172
0.6797321319580077,0.7404155731201172
0.6808444976806640,0.7455430984497070
0.6808444976806640,0.7455430984497070
0.6796920776367187,0.7430231094360351
0.6796920776367187,0.7430231094360351
0.6841426849365234,0.7493310928344726
0.6841426849365234,0.7493310928344726
0.6811832427978516,0.7499364852905274
0.6811832427978516,0.7499364852905274
0.6851835250854492,0.7501150131225586
0.6851835250854492,0.7501150131225586
0.6860773086547851,0.7548837661743164
0.6860773086547851,0.7548837661743164
0.6851612091064453,0.7521800994873047
0.6851612091064453,0.7521800994873047
0.6892158508300781,0.7581356048583984
0.6892158508300781,0.7581356048583984
0.6862770080566406,0.7589412689208984
0.6862770080566406,0.7589412689208984
0.6900163650512695,0.7591283798217773
0.6900163650512695,0.7591283798217773
0.6929912567138672,0.7632436752319336
0.6929912567138672,0.7632436752319336
0.6925718307495117,0.7660583496093750
0.6925718307495117,0.7660583496093750
0.6955043792724609,0.7689971923828125
0.6928522109985351,0.7689971923828125
0.6962928771972656,0.7749223709106445
0.6962928771972656,0.7749223709106445
0.6927062988281250,0.7723697662353516
0.6949155807495117,0.7723697662353516
0.6882076263427734,0.7527677536010742
0.6882076263427734,0.7527677536010742
0.6882076263427734,0.7537187576293946
0.6764642715454101,0.7333711624145508
0.6764642715454101,0.7333711624145508
0.6727764129638671,0.7266792297363281
0.6727764129638671,0.7266792297363281
0.6643392562866210,0.7179079055786133
0.6643392562866210,0.7179079055786133
0.6633596420288086,0.7108589172363281
0.6633596420288086,0.7108589172363281
0.6610713958740234,0.7101184844970703
0.6610713958740234,0.7101184844970703
0.6578269958496094,0.7029733657836914
0.6578269958496094,0.7029733657836914
0.6597679138183593,0.7060066223144531
0.6597679138183593,0.7060066223144531
0.6554700851440429,0.7039495468139648
0.6554700851440429,0.7039495468139648
0.6571821212768555,0.7016624450683594
0.6571821212768555,0.7016624450683594
0.6578241348266601,0.7043581008911133
0.6578241348266601,0.7043581008911133
0.6555467605590820,0.6994062423706054
0.6555467605590820,0.6994062423706054
0.6582515716552734,0.7034700393676757
0.6582515716552734,0.7034700393676757
0.6541992187500000,0.7020933151245117
0.6541992187500000,0.7020933151245117
0.6566070556640625,0.7001575469970703
0.6566070556640625,0.7001575469970703
0.6571163177490235,0.7029853820800781
0.6571163177490235,0.7029853820800781
0.6547988891601563,0.6980747222900391
0.6547988891601563,0.6980747222900391
0.6574750900268554,0.7023027420043945
0.6574750900268554,0.7023027420043945
0.6542507171630859,0.7016773223876953
0.6542507171630859,0.7016773223876953
0.6567260742187500,0.7005506515502929
0.6544893264770507,0.7005506515502929
0.6580026626586913,0.7049137115478515
0.6580026626586913,0.7049137115478515
0.6567106246948242,0.7018655776977539
0.6567106246948242,0.7018655776977539
0.6609998703002929,0.7085351943969727
0.6609998703002929,0.7085351943969727
0.6587842941284180,0.7101367950439453
0.6587842941284180,0.7101367950439453
0.6624011993408203,0.7109281539916992
0.6624011993408203,0.7109281539916992
0.6642820358276367,0.7163715362548828
0.6642820358276367,0.7163715362548828
0.6636812210083007,0.7137977600097656
0.6636812210083007,0.7137977600097656
0.6675470352172851,0.7196554183959961
0.6675470352172851,0.7196554183959961
0.6645956039428711,0.7198591232299805
0.6645956039428711,0.7198591232299805
0.6669839859008789,0.7188623428344726
0.6669839859008789,0.7188623428344726
0.6683023452758788,0.7226171493530273
0.6683023452758788,0.7226171493530273
0.6668106079101562,0.7185350418090820
0.6668106079101562,0.7185350418090820
0.6700275421142577,0.7235183715820312
0.6700275421142577,0.7235183715820312
0.6665611267089844,0.7232305526733398
0.6665611267089844,0.7232305526733398
0.6692361831665039,0.7224500656127929
0.6692361831665039,0.7224500656127929
0.6708286285400390,0.7264663696289062
0.6708286285400390,0.7264663696289062
0.6692550659179687,0.7229404449462891
0.6692550659179687,0.7229404449462891
0.6725400924682617,0.7284954071044921
0.6725400924682617,0.7284954071044921
0.6698621749877930,0.7288295745849609
0.6698621749877930,0.7288295745849609
0.6727437973022461,0.7285703659057617
0.6727437973022461,0.7285703659057617
0.6743974685668945,0.7333150863647461
0.6743974685668945,0.7333150863647461
0.6731500625610352,0.7302600860595703
0.6731500625610352,0.7302600860595703
0.6771869659423828,0.7363248825073242
0.6771869659423828,0.7363248825073242
0.6745885848999024,0.7372152328491210
0.6745885848999024,0.7372152328491210
0.6776344299316406,0.7375053405761719
0.6776344299316406,0.7375053405761719
0.6796188354492188,0.7426420211791992
0.6796188354492188,0.7426420211791992
0.6789579391479492,0.7403074264526367
0.6789579391479492,0.7403074264526367
0.6830680847167968,0.7466760635375976
0.6830680847167968,0.7466760635375976
0.6847131729125976,0.7480567932128906
0.6847131729125976,0.7480567932128906
0.6835418701171875,0.7483297348022461
0.6821319580078125,0.7483297348022461
0.6860269546508789,0.7536684036254883
0.6850158691406250,0.7536684036254883
0.6850994110107421,0.7509349822998047
0.6850994110107421,0.7509349822998047
0.6891277313232421,0.7571222305297851
0.6891277313232421,0.7571222305297851
0.6862083435058594,0.7584016799926757
0.6862083435058594,0.7584016799926757
0.6893503189086914,0.7582912445068359
0.6893503189086914,0.7582912445068359
0.6916179656982422,0.7632087707519531
0.6916179656982422,0.7632087707519531
0.6904289245605468,0.7604850769042969
0.6904289245605468,0.7604850769042969
0.6940383911132812,0.7664337158203125
0.6940383911132812,0.7664337158203125
0.6917261123657227,0.7674264907836914
0.6917261123657227,0.7674264907836914
0.6945917129516601,0.7674642562866211
0.6945917129516601,0.7674642562866211
0.6967821121215820,0.7722742080688476
0.6967821121215820,0.7722742080688476
0.6952606201171875,0.7693496704101562
0.6952606201171875,0.7693496704101562
0.6992671966552734,0.7754024505615235
0.6992671966552734,0.7754024505615235
0.6965618133544922,0.7760559082031250
0.6965618133544922,0.7760559082031250
0.6992116928100586,0.7756713867187500
0.6992116928100586,0.7756713867187500
0.7010198593139648,0.7802524566650391
0.7010198593139648,0.7802524566650391
0.6997312545776367,0.7766561508178711
0.6997312545776367,0.7766561508178711
0.7029396057128906,0.7810398101806640
0.7029396057128906,0.7810398101806640
0.6985633850097656,0.7782451629638671
0.6985633850097656,0.7782451629638671
0.6961538314819335,0.7677389144897461
0.6961538314819335,0.7677389144897461
0.6895385742187500,0.7547246932983398
0.6895385742187500,0.7547246932983398
0.6778993606567383,0.7344486236572265
0.6778993606567383,0.7344486236572265
0.6673244476318360,0.7279712677001953
0.6658716201782227,0.7203861236572265
0.6658716201782227,0.7203861236572265
0.6646482467651367,0.7135906219482422
0.6646482467651367,0.7135906219482422
0.6640388488769531,0.7136816024780274
0.6640388488769531,0.7136816024780274
0.6607120513916015,0.7073822021484375
0.6607120513916015,0.7073822021484375
0.6625602722167968,0.7103828430175781
0.6625602722167968,0.7103828430175781
0.6590074539184571,0.7093654632568359
0.6590074539184571,0.7093654632568359
0.6605140686035156,0.7070131301879883
0.6605140686035156,0.7070131301879883
0.6617980957031250,0.7101448059082031
0.6617980957031250,0.7101448059082031
0.6594268798828125,0.7056810379028320
0.6594268798828125,0.7056810379028320
0.6625259399414062,0.7096143722534179
0.6625259399414062,0.7096143722534179
0.6588890075683593,0.7090415954589844
0.6620864868164062,0.7090415954589844
0.6605386734008789,0.7070869445800781
0.6605386734008789,0.7070869445800781
0.6617872238159179,0.7103227615356446
0.6617872238159179,0.7103227615356446
0.6599384307861328,0.7062778472900391
0.6599384307861328,0.7062778472900391
0.6630706787109375,0.7106815338134765
0.6630706787109375,0.7106815338134765
0.6599344253540039,0.7110683441162109
0.6599344253540039,0.7110683441162109
0.6622352600097656,0.7107244491577148
0.6622352600097656,0.7107244491577148
0.6649291992187499,0.7158405303955078
0.6649291992187499,0.7158405303955078
0.6639827728271485,0.7137542724609375
0.6639827728271485,0.7137542724609375
0.6681358337402343,0.7199878692626953
0.6681358337402343,0.7199878692626953
0.6657165527343750,0.7218120574951171
0.6657165527343750,0.7218120574951171
0.6687263488769531,0.7216627120971679
0.6687263488769531,0.7216627120971679
0.6711713790893554,0.7263507843017578
0.6711713790893554,0.7263507843017578
0.6694690704345703,0.7230503082275390
0.6694690704345703,0.7230503082275390
0.6725749969482422,0.7275009155273438
0.6725749969482422,0.7275009155273438
0.6694662094116210,0.7275936126708984
0.6694662094116210,0.7275936126708984
0.6714706420898438,0.7259439468383789
0.6714706420898438,0.7259439468383789
0.6732278823852539,0.7294372558593750
0.6732278823852539,0.7294372558593750
0.6709299087524414,0.7260395050048828
0.6709299087524414,0.7260395050048828
0.6744970321655274,0.7299877166748047
0.6744970321655274,0.7299877166748047
0.6709476470947265,0.7306943893432617
0.6709476470947265,0.7306943893432617
0.6733005523681640,0.7295986175537109
0.6733005523681640,0.7295986175537109
0.6753112792968750,0.7338323593139648
0.6753112792968750,0.7338323593139648
0.6739162445068360,0.7309427261352539
0.6739162445068360,0.7309427261352539
0.6775342941284179,0.7358207702636719
0.6775342941284179,0.7358207702636719
0.6747350692749023,0.7370389938354492
0.6747350692749023,0.7370389938354492
0.6769403457641602,0.7365777969360351
0.6769403457641602,0.7365777969360351
0.6796817779541016,0.7414775848388672
0.6796817779541016,0.7414775848388672
0.6784423828125000,0.7394639968872070
0.6784423828125000,0.7394639968872070
0.6825073242187499,0.7447523117065430
0.6825073242187499,0.7447523117065430
0.6797681808471679,0.7465553283691406
0.6797681808471679,0.7465553283691406
0.6827888488769531,0.7465175628662110
0.6827888488769531,0.7465175628662110
0.6854284286499023,0.7517480850219727
0.6854284286499023,0.7517480850219727
0.6843727111816406,0.7499010086059570
0.6843727111816406,0.7499010086059570
0.6882173538208007,0.7551698684692383
0.6882173538208007,0.7551698684692383
0.6858118057250976,0.7569013595581054
0.6858118057250976,0.7569013595581054
0.6886705398559571,0.7569007873535156
0.6886705398559571,0.7569007873535156
0.6918697357177734,0.7604370117187500
0.6918697357177734,0.7604370117187500
0.6922084808349609,0.7646575927734375
0.6938953399658203,0.7646575927734375
0.6913518905639648,0.7622531890869141
0.6936538696289062,0.7622531890869141
0.6950340270996094,0.7681194305419922
0.6950340270996094,0.7681194305419922
0.6915298461914062,0.7673418045043945
0.6915298461914062,0.7673418045043945
0.6968347549438476,0.7693119049072266
0.6968347549438476,0.7693119049072266
0.6967832565307617,0.7734540939331055
0.6967832565307617,0.7734540939331055
0.6961069107055664,0.7708580017089843
0.6961069107055664,0.7708580017089843
0.6998445510864257,0.7765628814697265
0.6998445510864257,0.7765628814697265
0.6963775634765624,0.7754831314086914
0.6963775634765624,0.7754831314086914
0.7016538619995117,0.7774263381958008
0.7016538619995117,0.7774263381958008
0.7009832382202148,0.7811204910278320
0.7009832382202148,0.7811204910278320
0.7003761291503906,0.7783544540405273
0.7003761291503906,0.7783544540405273
0.7038803100585938,0.7836565017700196
0.7038803100585938,0.7836565017700196
0.7002267837524414,0.7821138381958007
0.7002267837524414,0.7821138381958007
0.7043100357055664,0.7816583633422851
0.7043100357055664,0.7816583633422851
0.7012006759643554,0.7795217514038085
0.7012006759643554,0.7795217514038085
0.6940435409545899,0.7628396987915039
0.6940435409545899,0.7628396987915039
0.6869974136352539,0.7489030838012695
0.6869974136352539,0.7489030838012695
0.6736404418945312,0.7332246780395507
0.6736404418945312,0.7332246780395507
0.6724931716918945,0.7242937088012695
0.6724931716918945,0.7242937088012695
0.6675086975097656,0.7204582214355468
0.6675086975097656,0.7204582214355468
0.6634677886962891,0.7121515274047852
0.6634677886962891,0.7121515274047852
0.6645332336425781,0.7133703231811523
0.6645332336425781,0.7133703231811523
0.6588815689086914,0.7093803405761718
0.6588815689086914,0.7093803405761718
0.6624389648437500,0.7084928512573242
0.6624389648437500,0.7084928512573242
0.6612264633178710,0.7100835800170898
0.6612264633178710,0.7100835800170898
0.6590927124023437,0.7053548812866210
0.6590927124023437,0.7053548812866210
0.6618432998657227,0.7092521667480468
0.6618432998657227,0.7092521667480468
0.6572793960571289,0.7067316055297851
0.6572793960571289,0.7067316055297851
0.6615617752075195,0.7064243316650390
0.6615617752075195,0.7064243316650390
0.6601329803466797,0.7082639694213867
0.6601329803466797,0.7082639694213867
0.6582990646362304,0.7036972045898438
0.6582990646362304,0.7036972045898438
0.6611017227172852,0.7075859069824219
0.6611017227172852,0.7075859069824219
0.6565618515014648,0.7052867889404296
0.6565618515014648,0.7052867889404296
0.6607212066650391,0.7051254272460937
0.6607212066650391,0.7051254272460937
0.6597003936767578,0.7079572677612305
0.6597003936767578,0.7079572677612305
0.6585668563842774,0.7045703887939453
0.6585668563842774,0.7045703887939453
0.6625310897827148,0.7100704193115234
0.6625310897827148,0.7100704193115234
0.6587596893310547,0.7097871780395507
0.6587596893310547,0.7097871780395507
0.6643867492675781,0.7119638442993164
0.6643867492675781,0.7119638442993164
0.6646053314208984,0.7168241500854492
0.6646053314208984,0.7168241500854492
0.6645395278930664,0.7147573471069336
0.6645395278930664,0.7147573471069336
0.6685712814331054,0.7206687927246094
0.6685712814331054,0.7206687927246094
0.6649709701538086,0.7208112716674805
0.6649709701538086,0.7208112716674805
0.6700120925903320,0.7215236663818360
0.6700120925903320,0.7215236663818360
0.6695903778076172,0.7248058319091797
0.6695903778076172,0.7248058319091797
0.6683818817138671,0.7211872100830078
0.6683818817138671,0.7211872100830078
0.6716846466064453,0.7260246276855469
0.6716846466064453,0.7260246276855469
0.6675230026245117,0.7248882293701172
0.6675230026245117,0.7248882293701172
0.6723930358886718,0.7250799179077149
0.6723930358886718,0.7250799179077149
0.6714626312255859,0.7283603668212890
0.6714626312255859,0.7283603668212890
0.6705533981323242,0.7248693466186523
0.6705533981323242,0.7248693466186523
0.6740427017211914,0.7300140380859375
0.6740427017211914,0.7300140380859375
0.6702896118164062,0.7295259475708008
0.6702896118164062,0.7295259475708008
0.6749502182006836,0.7300271987915039
0.6727260589599610,0.7300271987915039
0.6746812820434570,0.7337659835815430
0.6746812820434570,0.7337659835815430
0.6737417221069336,0.7307750701904296
0.6737417221069336,0.7307750701904296
0.6778192520141602,0.7365062713623046
0.6778192520141602,0.7365062713623046
0.6739414215087890,0.7363952636718750
0.6739414215087890,0.7363952636718750
0.6791604995727539,0.7377399444580078
0.6791604995727539,0.7377399444580078
0.6790655136108398,0.7418872833251953
0.6790655136108398,0.7418872833251953
0.6786878585815429,0.7394989013671874
0.6786878585815429,0.7394989013671874
0.6827859878540039,0.7456352233886718
0.6827859878540039,0.7456352233886718
0.6793304443359375,0.7462886810302735
0.6793304443359375,0.7462886810302735
0.6848430633544922,0.7477231979370117
0.6848430633544922,0.7477231979370117
0.6851612091064453,0.7523775100708008
0.6851612091064453,0.7523775100708008
0.6845197677612305,0.7498546600341797
0.6845197677612305,0.7498546600341797
0.6887083053588867,0.7561597824096680
0.6887083053588867,0.7561597824096680
0.6850725173950195,0.7566598892211914
0.6850725173950195,0.7566598892211914
0.6906137466430664,0.7578266143798827
0.6906137466430664,0.7578266143798827
0.6906091690063476,0.7620969772338867
0.6906091690063476,0.7620969772338867
0.6899414062500000,0.7594722747802735
0.6899414062500000,0.7594722747802735
0.6940435409545899,0.7655010223388672
0.6940435409545899,0.7655010223388672
0.6903963088989258,0.7659255981445312
0.6903963088989258,0.7659255981445312
0.6956840515136719,0.7667558670043945
0.6956840515136719,0.7667558670043945
0.6957630157470703,0.7711830139160156
0.6957630157470703,0.7711830139160156
0.6949550628662109,0.7682453155517578
0.6949550628662109,0.7682453155517578
0.6991722106933593,0.7743272781372070
0.6991722106933593,0.7743272781372070
0.6952480316162110,0.7744228363037109
0.6952480316162110,0.7744228363037109
0.7003961563110351,0.7750865936279296
0.7003961563110351,0.7750865936279296
0.7000116348266602,0.7789678573608398
0.7000116348266602,0.7789678573608398
0.6989925384521484,0.7748119354248046
0.6989925384521484,0.7748119354248046
0.7011955261230468,0.7767957687377930
0.7011955261230468,0.7767957687377930
0.6928842544555663,0.7668937683105469
0.6928842544555663,0.7668937683105469
0.6887626647949219,0.7500125885009765
0.6887626647949219,0.7500125885009765
0.6790517807006836,0.7378475189208984
0.6790517807006836,0.7378475189208984
0.6706466674804688,0.7231933593750000
0.6706466674804688,0.7231933593750000
0.6693574905395507,0.7202819824218750
0.6693574905395507,0.7202819824218750
0.6615926742553710,0.7140918731689453
0.6615926742553710,0.7140918731689453
0.6637481689453125,0.7096527099609374
0.6637481689453125,0.7096527099609374
0.6612184524536132,0.7099485397338867
0.6612184524536132,0.7099485397338867
0.6584701538085938,0.7039295196533203
0.6584701538085938,0.7039295196533203
0.6610519409179687,0.7072013854980469
0.6610519409179687,0.7072013854980469
0.6560485839843749,0.7051294326782226
0.6560485839843749,0.7051294326782226
0.6597827911376953,0.7033252716064453
0.6597827911376953,0.7033252716064453
0.6585960388183594,0.7053960800170899
0.6585960388183594,0.7053960800170899
0.6564119338989257,0.7002096176147461
0.6564119338989257,0.7002096176147461
0.6593473434448242,0.7040725708007812
0.6593473434448242,0.7040725708007812
0.6542226791381835,0.7020681381225585
0.6542226791381835,0.7020681381225585
0.6580329895019531,0.7004768371582031
0.6580329895019531,0.7004768371582031
0.6568805694580078,0.7025138854980468
0.6568805694580078,0.7025138854980468
0.6550271987915038,0.6976558685302734
0.6550271987915038,0.6976558685302734
0.6578704833984375,0.7016023635864258
0.6578704833984375,0.7016023635864258
0.6533094406127929,0.7006668090820313
0.6533094406127929,0.7006668090820313
0.6577663421630859,0.7002285003662109
0.6577663421630859,0.7002285003662109
0.6578979492187500,0.7041509628295898
0.6578979492187500,0.7041509628295898
0.6568611145019531,0.7014518737792969
0.6568611145019531,0.7014518737792969
0.6611932754516602,0.7079029083251953
0.6611932754516602,0.7079029083251953
0.6580009460449219,0.7091291427612304
0.6580009460449219,0.7091291427612304
0.6636085510253906,0.7104148864746094
0.6636085510253906,0.7104148864746094
0.6640983581542969,0.7151607513427735
0.6640983581542969,0.7151607513427735
0.6632503509521485,0.7125646591186523
0.6632503509521485,0.7125646591186523
0.6672992706298828,0.7183050155639649
0.6672992706298828,0.7183050155639649
0.6635753631591796,0.7181922912597656
0.6635753631591796,0.7181922912597656
0.6679515838623047,0.7177270889282227
0.6679515838623047,0.7177270889282227
0.6675304412841797,0.7210641860961914
0.6675304412841797,0.7210641860961914
0.6661085128784180,0.7172636032104492
0.6661085128784180,0.7172636032104492
0.6697505950927735,0.7222457885742187
0.6697505950927735,0.7222457885742187
0.6655174255371094,0.7214000701904296
0.6655174255371094,0.7214000701904296
0.6699937820434571,0.7214109420776367
0.6699937820434571,0.7214109420776367
0.6699645996093749,0.7250513076782227
0.6699645996093749,0.7250513076782227
0.6687904357910156,0.7217370986938476
0.6687904357910156,0.7217370986938476
0.6723283767700196,0.7270008087158203
0.6723283767700196,0.7270008087158203
0.6685729980468750,0.7271461486816406
0.6685729980468750,0.7271461486816406
0.6732536315917969,0.7270156860351562
0.6732536315917969,0.7270156860351562
0.6735918045043945,0.7311378479003906
0.6735918045043945,0.7311378479003906
0.6722436904907226,0.7281606674194335
0.6722436904907226,0.7281606674194335
0.6761444091796874,0.7339096069335938
0.6761444091796874,0.7339096069335938
0.6728336334228515,0.7344383239746094
0.6728336334228515,0.7344383239746094
0.6777019500732422,0.7348823547363281
0.6777019500732422,0.7348823547363281
0.6781059265136719,0.7393363952636719
0.6781059265136719,0.7393363952636719
0.6770553588867188,0.7369382858276367
0.6770553588867188,0.7369382858276367
0.6812662124633789,0.7431152343749999
0.6812662124633789,0.7431152343749999
0.6782375335693359,0.7439203262329102
0.6782375335693359,0.7439203262329102
0.6829244613647460,0.7444049835205078
0.6829244613647460,0.7444049835205078
0.6835229873657226,0.7492469787597656
0.6835229873657226,0.7492469787597656
0.6826417922973632,0.7469192504882812
0.6826417922973632,0.7469192504882812
0.6869888305664062,0.7530424118041992
0.6869888305664062,0.7530424118041992
0.6837553024291992,0.7538429260253906
0.6837553024291992,0.7538429260253906
0.6886030197143554,0.7544757843017578
0.6886030197143554,0.7544757843017578
0.6892913818359375,0.7591667175292969
0.6892913818359375,0.7591667175292969
0.6883752822875976,0.7567440032958984
0.6883752822875976,0.7567440032958984
0.6923938751220703,0.7626440048217773
0.6923938751220703,0.7626440048217773
0.6892444610595703,0.7634222030639648
0.6892444610595703,0.7634222030639648
0.6937494277954102,0.7638078689575195
0.6937494277954102,0.7638078689575195
0.6946294784545898,0.7683294296264648
0.6946294784545898,0.7683294296264648
0.6932842254638671,0.7656789779663086
0.6932842254638671,0.7656789779663086
0.6974430084228516,0.7715297698974609
0.6974430084228516,0.7715297698974609
0.6939142227172851,0.7716459274291992
0.6939142227172851,0.7716459274291992
0.6980175018310547,0.7706731796264649
0.6949647903442383,0.7706731796264649
0.6946083068847656,0.7711395263671875
0.6965171813964843,0.7711395263671875
0.6908071517944335,0.7579708099365234
0.6908071517944335,0.7579708099365234
0.6856985092163086,0.7465919494628906
0.6856985092163086,0.7465919494628906
0.6733760833740234,0.7316322326660156
0.6733760833740234,0.7316322326660156
0.6705974578857422,0.7206882476806641
0.6705974578857422,0.7206882476806641
0.6660913467407227,0.7165649414062499
0.6660913467407227,0.7165649414062499
0.6609981536865234,0.7073152542114257
0.6625694274902344,0.7073152542114257
0.6621053695678710,0.7081970214843750
0.6621053695678710,0.7081970214843750
0.6565057754516601,0.7047683715820312
0.6565057754516601,0.7047683715820312
0.6589210510253906,0.7020074844360351
0.6589210510253906,0.7020074844360351
0.6581789016723633,0.7037475585937499
0.6581789016723633,0.7037475585937499
0.6556606292724609,0.6986761093139648
0.6556606292724609,0.6986761093139648
0.6581834793090821,0.7021379470825195
0.6581834793090821,0.7021379470825195
0.6539400100708007,0.7004774093627929
0.6539400100708007,0.7004774093627929
0.6567295074462890,0.6982526779174805
0.6567295074462890,0.6982526779174805
0.6564325332641602,0.7004951477050781
0.6564325332641602,0.7004951477050781
0.6536098480224609,0.6952634811401367
0.6536098480224609,0.6952634811401367
0.6562339782714843,0.6987413406372071
0.6562339782714843,0.6987413406372071
0.6519109725952148,0.6968925476074218
0.6519109725952148,0.6968925476074218
0.6549167633056641,0.6948640823364257
0.6549167633056641,0.6948640823364257
0.6544624328613281,0.6974040985107421
0.6544624328613281,0.6974040985107421
0.6523509979248047,0.6931137084960938
0.6523509979248047,0.6931137084960938
0.6556068420410156,0.6978235244750977
0.6556068420410156,0.6978235244750977
0.6525913238525390,0.6979562759399414
0.6525913238525390,0.6979562759399414
0.6563833236694335,0.6981588363647461
0.6563833236694335,0.6981588363647461
0.6575197219848633,0.7030752182006835
0.6575197219848633,0.7030752182006835
0.6566419601440430,0.7009380340576171
0.6566419601440430,0.7009380340576171
0.6611063003540039,0.7074308395385742
0.6611063003540039,0.7074308395385742
0.6583923339843750,0.7083034515380859
0.6583923339843750,0.7083034515380859
0.6623903274536133,0.7085798263549804
0.6623903274536133,0.7085798263549804
0.6632863998413085,0.7129039764404297
0.6632863998413085,0.7129039764404297
0.6619863510131836,0.7094112396240234
0.6619863510131836,0.7094112396240234
0.6652067184448242,0.7142744064331055
0.6652067184448242,0.7142744064331055
0.6617471694946289,0.7137010574340820
0.6617471694946289,0.7137010574340820
0.6648433685302734,0.7127002716064453
0.6648433685302734,0.7127002716064453
0.6655305862426758,0.7163074493408202
0.6655305862426758,0.7163074493408202
0.6636491775512695,0.7124227523803711
0.6636491775512695,0.7124227523803711
0.6670463562011718,0.7174793243408203
0.6670463562011718,0.7174793243408203
0.6637481689453125,0.7170810699462891
0.6637481689453125,0.7170810699462891
0.6671825408935547,0.7165088653564453
0.6671825408935547,0.7165088653564453
0.6678577423095703,0.7204324722290039
0.6678577423095703,0.7204324722290039
0.6662630081176758,0.7169849395751953
0.6662630081176758,0.7169849395751953
0.6697769165039062,0.7224523544311523
0.6697769165039062,0.7224523544311523
0.6668964385986328,0.7224803924560547
0.6668964385986328,0.7224803924560547
0.6701454162597656,0.7221376419067382
0.6701454162597656,0.7221376419067382
0.6710929870605469,0.7264068603515624
0.6710929870605469,0.7264068603515624
0.6697357177734374,0.7231698989868164
0.6697357177734374,0.7231698989868164
0.6736358642578125,0.7288061141967773
0.6736358642578125,0.7288061141967773
0.6704183578491211,0.7290332794189452
0.6704183578491211,0.7290332794189452
0.6738464355468750,0.7288599014282227
0.6738464355468750,0.7288599014282227
0.6748140335083007,0.7333442687988281
0.6748140335083007,0.7333442687988281
0.6738687515258789,0.7301788330078125
0.6738687515258789,0.7301788330078125
0.6773019790649414,0.7357275009155273
0.6773019790649414,0.7357275009155273
0.6743928909301757,0.7358877182006835
0.6743928909301757,0.7358877182006835
0.6772956848144531,0.7354173660278320
0.6772956848144531,0.7354173660278320
0.6785516738891602,0.7394279479980469
0.6785516738891602,0.7394279479980469
0.6768184661865234,0.7358333587646484
0.6801212310791015,0.7358333587646484
0.6801252365112305,0.7410541534423828
0.6801252365112305,0.7410541534423828
0.6769958496093750,0.7409208297729492
0.6769958496093750,0.7409208297729492
0.6800285339355469,0.7401912689208984
0.6800285339355469,0.7401912689208984
0.6806619644165038,0.7438642501831054
0.6806619644165038,0.7438642501831054
0.6789957046508789,0.7402673721313476
0.6789957046508789,0.7402673721313476
0.6826801300048828,0.7459676742553710
0.6826801300048828,0.7459676742553710
0.6798082351684570,0.7460020065307617
0.6798082351684570,0.7460020065307617
0.6828105926513671,0.7454561233520508
0.6828105926513671,0.7454561233520508
0.6837684631347656,0.7495405197143554
0.6837684631347656,0.7495405197143554
0.6816747665405273,0.7438608169555664
0.6816747665405273,0.7438608169555664
0.6823064804077148,0.7426689147949218
0.6823064804077148,0.7426689147949218
0.6728021621704101,0.7310394287109375
0.6728021621704101,0.7310394287109375
0.6692579269409179,0.7194351196289063
0.6692579269409179,0.7194351196289063
0.6647569656372070,0.7144403457641602
0.6647569656372070,0.7144403457641602
0.6591911315917969,0.7034482955932617
0.6591911315917969,0.7034482955932617
0.6590686798095703,0.7033378601074218
0.6590686798095703,0.7033378601074218
0.6534370422363281,0.6991413116455077
0.6534370422363281,0.6991413116455077
0.6544052124023437,0.6953178405761719
0.6544052124023437,0.6953178405761719
0.6540418624877929,0.6966058731079101
0.6540418624877929,0.6966058731079101
0.6511636734008789,0.6905525207519531
0.6511636734008789,0.6905525207519531
0.6533100128173828,0.6938341140747070
0.6533100128173828,0.6938341140747070
0.6491203308105469,0.6916934967041015
0.6491203308105469,0.6916934967041015
0.6510309219360352,0.6892181396484375
0.6510309219360352,0.6892181396484375
0.6510658264160156,0.6914422988891601
0.6510658264160156,0.6914422988891601
0.6485538482666016,0.6859565734863281
0.6485538482666016,0.6859565734863281
0.6511653900146485,0.6897371292114257
0.6511653900146485,0.6897371292114257
0.6472480773925781,0.6878202438354492
0.6472480773925781,0.6878202438354492
0.6492004394531250,0.6857671737670898
0.6492004394531250,0.6857671737670898
0.6496713638305663,0.6884794235229492
0.6496713638305663,0.6884794235229492
0.6475158691406250,0.6835790634155273
0.6475158691406250,0.6835790634155273
0.6505805969238281,0.6879753112792969
0.6505805969238281,0.6879753112792969
0.6469282150268555,0.6873710632324218
0.6469282150268555,0.6873710632324218
0.6495449066162109,0.6864921569824218
0.6495449066162109,0.6864921569824218
0.6508443832397460,0.6908838272094726
0.6508443832397460,0.6908838272094726
0.6500907897949219,0.6879272460937500
0.6500907897949219,0.6879272460937500
0.6540573120117187,0.6944103240966797
0.6540573120117187,0.6944103240966797
0.6517845153808594,0.6958511352539062
0.6517845153808594,0.6958511352539062
0.6553339004516602,0.6966287612915039
0.6553339004516602,0.6966287612915039
0.6576467514038086,0.7021528244018554
0.6576467514038086,0.7021528244018554
0.6566740036010742,0.6994674682617187
0.6566740036010742,0.6994674682617187
0.6605609893798828,0.7054641723632812
0.6605609893798828,0.7054641723632812
0.6578281402587890,0.7057771682739258
0.6578281402587890,0.7057771682739258
0.6605117797851562,0.7049074172973633
0.6605117797851562,0.7049074172973633
0.6618364334106445,0.7088373184204101
0.6618364334106445,0.7088373184204101
0.6602611541748047,0.7049640655517578
0.6602611541748047,0.7049640655517578
0.6635055541992188,0.7100063323974609
0.6635055541992188,0.7100063323974609
0.6606325149536133,0.7100938796997071
0.6606325149536133,0.7100938796997071
0.6630386352539063,0.7091394424438476
0.6630386352539063,0.7091394424438476
0.6644205093383789,0.7132776260375976
0.6644205093383789,0.7132776260375976
0.6631210327148437,0.7099113464355469
0.6631210327148437,0.7099113464355469
0.6668014526367188,0.7153490066528320
0.6668014526367188,0.7153490066528320
0.6637928009033203,0.7157987594604492
0.6637928009033203,0.7157987594604492
0.6664913177490234,0.7155063629150390
0.6647460937499999,0.7155063629150390
0.6681953430175781,0.7200920104980468
0.6681953430175781,0.7200920104980468
0.6672563552856445,0.7170804977416992
0.6672563552856445,0.7170804977416992
0.6709642410278320,0.7229793548583984
0.6709642410278320,0.7229793548583984
0.6682497024536133,0.7239320755004882
0.6682497024536133,0.7239320755004882
0.6712354660034180,0.7240116119384765
0.6712354660034180,0.7240116119384765
0.6734247207641602,0.7290103912353515
0.6734247207641602,0.7290103912353515
0.6721675872802734,0.7261991500854492
0.6721675872802734,0.7261991500854492
0.6761873245239257,0.7323492050170898
0.6761873245239257,0.7323492050170898
0.6735500335693360,0.7334243774414062
0.6735500335693360,0.7334243774414062
0.6765981674194336,0.7332899093627929
0.6765981674194336,0.7332899093627929
0.6786094665527344,0.7382257461547851
0.6786094665527344,0.7382257461547851
0.6776103973388672,0.7355043411254882
0.6776103973388672,0.7355043411254882
0.6814224243164062,0.7415565490722656
0.6814224243164062,0.7415565490722656
0.6789825439453124,0.7425733566284179
0.6789825439453124,0.7425733566284179
0.6804199218750000,0.7426385879516602
0.6804199218750000,0.7426385879516602
0.6839544296264648,0.7477226257324219
0.6828523635864258,0.7477226257324219
0.6829896926879883,0.7450521469116210
0.6829896926879883,0.7450521469116210
0.6870512008666992,0.7511947631835937
0.6870512008666992,0.7511947631835937
0.6843709945678711,0.7520267486572265
0.6843709945678711,0.7520267486572265
0.6872348785400391,0.7522779464721679
0.6872348785400391,0.7522779464721679
0.6893531799316406,0.7572515487670898
0.6893531799316406,0.7572515487670898
0.6883672714233399,0.7543167114257813
0.6883672714233399,0.7543167114257813
0.6919979095458985,0.7599683761596679
0.6919979095458985,0.7599683761596679
0.6891139984130860,0.7601303100585938
0.6891139984130860,0.7601303100585938
0.6905719757080078,0.7568653106689452
0.6905719757080078,0.7568653106689452
0.6887678146362305,0.7528547286987305
0.6887678146362305,0.7528547286987305
0.6795856475830078,0.7347902297973633
0.6795856475830078,0.7347902297973633
0.6747356414794922,0.7266105651855469
0.6747356414794922,0.7266105651855469
0.6654653549194336,0.7162879943847656
0.6654653549194336,0.7162879943847656
0.6628864288330077,0.7073135375976562
0.6628864288330077,0.7073135375976562
0.6605243682861328,0.7050367355346679
0.6605243682861328,0.7050367355346679
0.6561779022216797,0.6968433380126953
0.6561779022216797,0.6968433380126953
0.6573143005371094,0.6983905792236328
0.6573143005371094,0.6983905792236328
0.6527194976806641,0.6959896087646484
0.6527194976806641,0.6959896087646484
0.6534816741943359,0.6925455093383789
0.6534816741943359,0.6925455093383789
0.6540481567382812,0.6946517944335937
0.6540481567382812,0.6946517944335937
0.6514572143554688,0.6892107009887695
0.6514572143554688,0.6892107009887695
0.6539737701416015,0.6924453735351562
0.6539737701416015,0.6924453735351562
0.6497898101806641,0.6909759521484374
0.6497898101806641,0.6909759521484374
0.6510623931884766,0.6880863189697265
0.6476228713989257,0.6900381088256836
0.6516597747802734,0.6902893066406249
0.6495265960693359,0.6902893066406249
0.6492341995239258,0.6849975585937500
0.6492341995239258,0.6849975585937500
0.6512804031372070,0.6880554199218750
0.6512804031372070,0.6880554199218750
0.6471719741821289,0.6868492126464844
0.6471719741821289,0.6868492126464844
0.6485858917236328,0.6842828750610351
0.6485858917236328,0.6842828750610351
0.6499357223510742,0.6872360229492187
0.6499357223510742,0.6872360229492187
0.6476697921752930,0.6829908370971679
0.6476697921752930,0.6829908370971679
0.6510040283203125,0.6879421234130859
0.6510040283203125,0.6879421234130859
0.6482339859008789,0.6887872695922851
0.6482339859008789,0.6887872695922851
0.6511270523071289,0.6888845443725585
0.6511270523071289,0.6888845443725585
0.6537700653076172,0.6943290710449218
0.6537700653076172,0.6943290710449218
0.6531875610351562,0.6926799774169922
0.6531875610351562,0.6926799774169922
0.6575300216674804,0.6993341445922852
0.6575300216674804,0.6993341445922852
0.6555925369262695,0.7012619018554688
0.6555925369262695,0.7012619018554688
0.6583986282348633,0.7013574600219726
0.6583986282348633,0.7013574600219726
0.6606657028198242,0.7061113357543946
0.6606657028198242,0.7061113357543946
0.6595407485961914,0.7030672073364258
0.6595407485961914,0.7030672073364258
0.6631141662597656,0.7081151962280273
0.6631141662597656,0.7081151962280273
0.6599212646484375,0.7084465026855469
0.6599212646484375,0.7084465026855469
0.6621208190917969,0.7072717666625976
0.6621208190917969,0.7072717666625976
0.6640073776245117,0.7112491607666015
0.6640073776245117,0.7112491607666015
0.6625305175781250,0.7078531265258788
0.6625305175781250,0.7078531265258788
0.6658184051513671,0.7127099990844726
0.6658184051513671,0.7127099990844726
0.6628292083740234,0.7132850646972656
0.6628292083740234,0.7132850646972656
0.6650659561157226,0.7124204635620117
0.6650659561157226,0.7124204635620117
0.6671854019165039,0.7167240142822265
0.6671854019165039,0.7167240142822265
0.6657239913940429,0.7136735916137695
0.6657239913940429,0.7136735916137695
0.6692213058471680,0.7188840866088867
0.6692213058471680,0.7188840866088867
0.6664031982421875,0.7198665618896484
0.6664031982421875,0.7198665618896484
0.6689552307128906,0.7192016601562500
0.6689552307128906,0.7192016601562500
0.6710918426513671,0.7238679885864258
0.6710918426513671,0.7238679885864258
0.6698558807373046,0.7211471557617187
0.6698558807373046,0.7211471557617187
0.6735631942749023,0.7266563415527344
0.6735631942749023,0.7266563415527344
0.6711439132690430,0.7280599594116210
0.6711439132690430,0.7280599594116210
0.6735380172729492,0.7275564193725585
0.6735380172729492,0.7275564193725585
0.6760585784912109,0.7324779510498046
0.6760585784912109,0.7324779510498046
0.6747831344604492,0.7301073074340820
0.6747831344604492,0.7301073074340820
0.6788085937500000,0.7356439590454101
0.6788085937500000,0.7356439590454101
0.6760271072387695,0.7368541717529297
0.6760271072387695,0.7368541717529297
0.6785963058471679,0.7366149902343749
0.6785963058471679,0.7366149902343749
0.6810836791992188,0.7414701461791992
0.6810836791992188,0.7414701461791992
0.6799421310424805,0.7390737533569336
0.6799421310424805,0.7390737533569336
0.6836093902587891,0.7442567825317382
0.6836093902587891,0.7442567825317382
0.6809829711914063,0.7458549499511719
0.6809829711914063,0.7458549499511719
0.6836397171020507,0.7455556869506835
0.6836397171020507,0.7455556869506835
0.6862798690795898,0.7504869461059570
0.6862798690795898,0.7504869461059570
0.6850421905517577,0.7481225967407227
0.6850421905517577,0.7481225967407227
0.6889085769653320,0.7537370681762695
0.6889085769653320,0.7537370681762695
0.6860401153564453,0.7551841735839844
0.6860401153564453,0.7551841735839844
0.6891380310058594,0.7550222396850585
0.6891380310058594,0.7550222396850585
0.6915498733520508,0.7596330642700195
0.6915498733520508,0.7596330642700195
0.6901308059692383,0.7570558547973633
0.6901308059692383,0.7570558547973633
0.6934959411621093,0.7612272262573242
0.6934959411621093,0.7612272262573242
0.6894607543945312,0.7592422485351562
0.6894607543945312,0.7592422485351562
0.6875267028808594,0.7491130828857422
0.6875267028808594,0.7491130828857422
0.6816267013549805,0.7383110046386718
0.6816267013549805,0.7383110046386718
0.6717618942260742,0.7219448089599609
0.6717618942260742,0.7219448089599609
0.6692213058471680,0.7160173416137695
0.6692213058471680,0.7160173416137695
0.6611904144287110,0.7087778091430664
0.6611904144287110,0.7087778091430664
0.6596334457397460,0.7016807556152344
0.6596334457397460,0.7016807556152344
0.6588432312011718,0.7011978149414062
0.6588432312011718,0.7011978149414062
0.6552309036254883,0.6948411941528320
0.6586091995239257,0.6948411941528320
0.6572135925292969,0.6967226028442383
0.6572135925292969,0.6967226028442383
0.6526525497436523,0.6955781936645508
0.6526525497436523,0.6955781936645508
0.6538227081298827,0.6926393508911133
0.6538227081298827,0.6926393508911133
0.6552125930786132,0.6950242996215820
0.6552125930786132,0.6950242996215820
0.6523733139038086,0.6903499603271485
0.6523733139038086,0.6903499603271485
0.6549974441528320,0.6930536270141602
0.6549974441528320,0.6930536270141602
0.6507791519165039,0.6924242019653321
0.6507791519165039,0.6924242019653321
0.6523710250854492,0.6896106719970703
0.6523710250854492,0.6896106719970703
0.6533334732055663,0.6920270919799805
0.6533334732055663,0.6920270919799805
0.6506458282470703,0.6875844955444336
0.6506458282470703,0.6875844955444336
0.6533363342285156,0.6904420852661133
0.6533363342285156,0.6904420852661133
0.6496175765991211,0.6901142120361328
0.6496175765991211,0.6901142120361328
0.6512992858886718,0.6882888793945312
0.6512992858886718,0.6882888793945312
0.6532579421997070,0.6921815872192383
0.6532579421997070,0.6921815872192383
0.6516923904418945,0.6896970748901367
0.6516923904418945,0.6896970748901367
0.6559083938598632,0.6949493408203125
0.6559083938598632,0.6949493408203125
0.6534490585327148,0.6972061157226562
0.6534490585327148,0.6972061157226562
0.6564765930175781,0.6977228164672852
0.6564765930175781,0.6977228164672852
0.6594509124755860,0.7031593322753906
0.6594509124755860,0.7031593322753906
0.6586727142333985,0.7016452789306641
0.6586727142333985,0.7016452789306641
0.6625722885131836,0.7065771102905273
0.6625722885131836,0.7065771102905273
0.6596580505371094,0.7079875946044921
0.6596580505371094,0.7079875946044921
0.6620578765869141,0.7070079803466797
0.6620578765869141,0.7070079803466797
0.6642786026000976,0.7108600616455077
0.6642786026000976,0.7108600616455077
0.6622821807861328,0.7076866149902343
0.6622821807861328,0.7076866149902343
0.6657325744628906,0.7113819122314453
0.6657325744628906,0.7113819122314453
0.6624452590942382,0.7121217727661132
0.6624452590942382,0.7121217727661132
0.6645973205566406,0.7107770919799804
0.6645973205566406,0.7107770919799804
0.6665691375732422,0.7146686553955078
0.6665691375732422,0.7146686553955078
0.6647289276123046,0.7118637084960937
0.6647289276123046,0.7118637084960937
0.6682685852050781,0.7157981872558593
0.6682685852050781,0.7157981872558593
0.6652502059936524,0.7170095443725586
0.6652502059936524,0.7170095443725586
0.6674949645996093,0.7161849975585938
0.6674949645996093,0.7161849975585938
0.6698827743530273,0.7204730987548827
0.6698827743530273,0.7204730987548827
0.6680740356445313,0.7182209014892578
0.6680740356445313,0.7182209014892578
0.6721830368041992,0.7225318908691406
0.6721830368041992,0.7225318908691406
0.6692138671875000,0.7242708206176758
0.6692138671875000,0.7242708206176758
0.6717670440673827,0.7239120483398437
0.6717670440673827,0.7239120483398437
0.6744712829589844,0.7287065505981445
0.6744712829589844,0.7287065505981445
0.6731826782226562,0.7269596099853516
0.6731826782226562,0.7269596099853516
0.6773849487304687,0.7316579818725586
0.6773849487304687,0.7316579818725586
0.6746646881103515,0.7340744018554687
0.6746646881103515,0.7340744018554687
0.6774633407592773,0.7342323303222656
0.6774633407592773,0.7342323303222656
0.6806447982788085,0.7393993377685547
0.6806447982788085,0.7393993377685547
0.6793527603149414,0.7379991531372070
0.6793527603149414,0.7379991531372070
0.6837942123413085,0.7430894851684570
0.6837942123413085,0.7430894851684570
0.6809778213500977,0.7454601287841797
0.6809778213500977,0.7454601287841797
0.6841255187988281,0.7457101821899413
0.6841255187988281,0.7457101821899413
0.6868932723999023,0.7505653381347656
0.6868932723999023,0.7505653381347656
0.6855503082275390,0.7489013671875000
0.6900072097778320,0.7489013671875000
0.6896512985229492,0.7536632537841796
0.6896512985229492,0.7536632537841796
0.6870563507080077,0.7557346343994140
0.6870563507080077,0.7557346343994140
0.6896209716796875,0.7554719924926757
0.6896209716796875,0.7554719924926757
0.6922531127929688,0.7601572036743164
0.6922531127929688,0.7601572036743164
0.6907104492187500,0.7582855224609375
0.6907104492187500,0.7582855224609375
0.6950832366943359,0.7627464294433594
0.6950832366943359,0.7627464294433594
0.6921306610107422,0.7647039413452148
0.6921306610107422,0.7647039413452148
0.6946832656860351,0.7644504547119141
0.6946832656860351,0.7644504547119141
0.6972736358642578,0.7690538406372071
0.6972736358642578,0.7690538406372071
0.6957784652709961,0.7670499801635742
0.6957784652709961,0.7670499801635742
0.6997781753540039,0.7711595535278321
0.6997781753540039,0.7711595535278321
0.6967248916625977,0.7727657318115234
0.6967248916625977,0.7727657318115234
0.6988111495971679,0.7717832565307617
0.6988111495971679,0.7717832565307617
0.7008413314819336,0.7744611740112305
0.7008413314819336,0.7744611740112305
0.6964771270751953,0.7665544509887695
0.6964771270751953,0.7665544509887695
0.6941974639892577,0.7570512771606445
0.6941974639892577,0.7570512771606445
0.6807168960571289,0.7399120330810547
0.6807168960571289,0.7399120330810547
0.6739219665527344,0.7244338989257812
0.6739219665527344,0.7244338989257812
0.6698764801025391,0.7180847167968750
0.6698764801025391,0.7180847167968750
0.6630941390991211,0.7079418182373046
0.6630941390991211,0.7079418182373046
0.6635192871093750,0.7059104919433593
0.6635192871093750,0.7059104919433593
0.6579895019531250,0.7033916473388672
0.6579895019531250,0.7033916473388672
0.6582389831542969,0.6993404388427734
0.6582389831542969,0.6993404388427734
0.6590818405151367,0.7010210037231445
0.6590818405151367,0.7010210037231445
0.6559318542480469,0.6966156005859375
0.6559318542480469,0.6966156005859375
0.6590143203735351,0.6984580993652344
0.6590143203735351,0.6984580993652344
0.6547880172729492,0.6982944488525390
0.6547880172729492,0.6982944488525390
0.6559478759765625,0.6959146499633789
0.6559478759765625,0.6959146499633789
0.6574991226196288,0.6981925964355469
0.6574991226196288,0.6981925964355469
0.6546976089477539,0.6940177917480469
0.6546976089477539,0.6940177917480469
0.6575923919677734,0.6957166671752929
0.6575923919677734,0.6957166671752929
0.6531240463256835,0.6955919265747070
0.6531240463256835,0.6955919265747070
0.6544504165649414,0.6929924011230468
0.6544504165649414,0.6929924011230468
0.6561693191528321,0.6954820632934570
0.6561693191528321,0.6954820632934570
0.6532247543334960,0.6918428421020507
0.6532247543334960,0.6918428421020507
0.6568107604980469,0.6946580886840820
0.6568107604980469,0.6946580886840820
0.6535177230834961,0.6964473724365234
0.6535177230834961,0.6964473724365234
0.6539634704589844,0.7004024505615234
0.6539634704589844,0.7004024505615234
0.6539634704589844,0.6976764678955077
0.6594274520874023,0.6996002197265625
0.6594274520874023,0.6996002197265625
0.6594772338867188,0.7042190551757812
0.6594772338867188,0.7042190551757812
0.6593542098999023,0.7021076202392578
0.6593542098999023,0.7021076202392578
0.6635141372680664,0.7083486557006836
0.6635141372680664,0.7083486557006836
0.6599401473999024,0.7080476760864257
0.6599401473999024,0.7080476760864257
0.6647478103637695,0.7087663650512696
0.6647478103637695,0.7087663650512696
0.6643461227416992,0.7120239257812500
0.6643461227416992,0.7120239257812500
0.6630786895751953,0.7080785751342773
0.6630786895751953,0.7080785751342773
0.6663722991943359,0.7127460479736328
0.6663722991943359,0.7127460479736328
0.6617643356323242,0.7114557266235352
0.6617643356323242,0.7114557266235352
0.6667253494262695,0.7115306854248047
0.6667253494262695,0.7115306854248047
0.6661474227905273,0.7147241592407226
0.6661474227905273,0.7147241592407226
0.6649869918823242,0.7111804962158202
0.6649869918823242,0.7111804962158202
0.6683017730712890,0.7163526535034179
0.6645772933959960,0.7157741546630859
0.6645772933959960,0.7157741546630859
0.6695011138916015,0.7165191650390624
0.6695011138916015,0.7165191650390624
0.6692899703979492,0.7202144622802734
0.6692899703979492,0.7202144622802734
0.6679458618164062,0.7171697616577148
0.6679458618164062,0.7171697616577148
0.6721435546875000,0.7227544784545898
0.6721435546875000,0.7227544784545898
0.6683589935302734,0.7226148605346679
0.6683589935302734,0.7226148605346679
0.6736541748046875,0.7236717224121093
0.6736541748046875,0.7236717224121093
0.6731626510620117,0.7277887344360351
0.6731626510620117,0.7277887344360351
0.6727609634399414,0.7251508712768554
0.6727609634399414,0.7251508712768554
0.6769477844238281,0.7311761856079101
0.6769477844238281,0.7311761856079101
0.6732015609741211,0.7313140869140625
0.6732015609741211,0.7313140869140625
0.6783365249633789,0.7327772140502929
0.6783365249633789,0.7327772140502929
0.6787582397460937,0.7371173858642578
0.6787582397460937,0.7371173858642578
0.6781402587890625,0.7345190048217773
0.6781402587890625,0.7345190048217773
0.6821720123291015,0.7405986785888672
0.6821720123291015,0.7405986785888672
0.6782924652099609,0.7407726287841797
0.6782924652099609,0.7407726287841797
0.6838005065917968,0.7418964385986327
0.6838005065917968,0.7418964385986327
0.6837987899780273,0.7459899902343750
0.6837987899780273,0.7459899902343750
0.6828861236572266,0.7431175231933593
0.6828861236572266,0.7431175231933593
0.6866214752197265,0.7489900588989258
0.6866214752197265,0.7489900588989258
0.6829645156860351,0.7486627578735351
0.6829645156860351,0.7486627578735351
0.6883598327636719,0.7498992919921875
0.6883598327636719,0.7498992919921875
0.6882459640502929,0.7540472030639648
0.6882459640502929,0.7540472030639648
0.6872926712036133,0.7511421203613281
0.6872926712036133,0.7511421203613281
0.6915647506713867,0.7571033477783203
0.6915647506713867,0.7571033477783203
0.6877950668334961,0.7573585510253906
0.6877950668334961,0.7573585510253906
0.6929912567138672,0.7583976745605469
0.6929912567138672,0.7583976745605469
0.6924974441528320,0.7623521804809570
0.6924974441528320,0.7623521804809570
0.6921277999877929,0.7593355178833008
0.6921277999877929,0.7593355178833008
0.6958168029785156,0.7644424438476562
0.6958168029785156,0.7644424438476562
0.6905679702758789,0.7613164901733398
0.6905679702758789,0.7613164901733398
0.6919034957885742,0.7539350509643554
0.6919034957885742,0.7539350509643554
0.6841323852539062,0.7429046630859375
0.6841323852539062,0.7429046630859375
0.6746572494506836,0.7253740310668945
0.6746572494506836,0.7253740310668945
0.6717624664306641,0.7198293685913085
0.6654458999633789,0.7198293685913085
0.6623474121093750,0.7111427307128906
0.6623474121093750,0.7111427307128906
0.6636194229125977,0.7050081253051758
0.6636194229125977,0.7050081253051758
0.6603921890258789,0.7037441253662109
0.6603921890258789,0.7037441253662109
0.6569921493530273,0.6967266082763671
0.6569921493530273,0.6967266082763671
0.6588438034057617,0.6993398666381836
0.6588438034057617,0.6993398666381836
0.6537168502807617,0.6967357635498047
0.6537168502807617,0.6967357635498047
0.6575180053710937,0.6951684951782227
0.6575180053710937,0.6951684951782227
0.6562088012695312,0.6969875335693360
0.6562088012695312,0.6969875335693360
0.6539554595947266,0.6919733047485351
0.6539554595947266,0.6919733047485351
0.6569572448730469,0.6956468582153320
0.6569572448730469,0.6956468582153320
0.6520900726318359,0.6937299728393554
0.6520900726318359,0.6937299728393554
0.6558689117431641,0.6923807144165038
0.6558689117431641,0.6923807144165038
0.6543056488037109,0.6943508148193359
0.6543056488037109,0.6943508148193359
0.6525707244873047,0.6893800735473633
0.6525707244873047,0.6893800735473633
0.6554117202758789,0.6930948257446289
0.6554117202758789,0.6930948257446289
0.6505319595336914,0.6914863586425781
0.6505319595336914,0.6914863586425781
0.6546878814697266,0.6907974243164062
0.6546878814697266,0.6907974243164062
0.6542558670043945,0.6939285278320312
0.6542558670043945,0.6939285278320312
0.6531944274902344,0.6906858444213867
0.6531944274902344,0.6906858444213867
0.6572267532348632,0.6967603683471679
0.6572267532348632,0.6967603683471679
0.6535360336303710,0.6974327087402343
0.6535360336303710,0.6974327087402343
0.6594577789306640,0.6991172790527344
0.6594577789306640,0.6991172790527344
0.6600803375244141,0.7042287826538086
0.6600803375244141,0.7042287826538086
0.6597112655639649,0.7020343780517578
0.6597112655639649,0.7020343780517578
0.6636571884155273,0.7083286285400391
0.6636571884155273,0.7083286285400391
0.6603195190429687,0.7085620880126953
0.6603195190429687,0.7085620880126953
0.6653457641601562,0.7091199874877929
0.6653457641601562,0.7091199874877929
0.6649629592895507,0.7124570846557617
0.6649629592895507,0.7124570846557617
0.6636096954345703,0.7088024139404296
0.6636096954345703,0.7088024139404296
0.6674663543701171,0.7138212203979492
0.6674663543701171,0.7138212203979492
0.6631582260131835,0.7130956649780273
0.6631582260131835,0.7130956649780273
0.6679332733154296,0.7130161285400390
0.6679332733154296,0.7130161285400390
0.6672723770141601,0.7163663864135742
0.6672723770141601,0.7163663864135742
0.6660724639892578,0.7128330230712890
0.6660724639892578,0.7128330230712890
0.6699010848999023,0.7180326461791992
0.6699010848999023,0.7180326461791992
0.6657566070556641,0.7178100585937500
0.6657566070556641,0.7178100585937500
0.6703926086425781,0.7179691314697265
0.6703926086425781,0.7179691314697265
0.6704813003540039,0.7216775894165038
0.6704813003540039,0.7216775894165038
0.6693574905395507,0.7185556411743164
0.6693574905395507,0.7185556411743164
0.6732376098632812,0.7242387771606446
0.6732376098632812,0.7242387771606446
0.6690622329711914,0.7243543624877929
0.6690622329711914,0.7243543624877929
0.6744701385498046,0.7248407363891601
0.6744701385498046,0.7248407363891601
0.6745800018310547,0.7290899276733398
0.6745800018310547,0.7290899276733398
0.6736570358276367,0.7262958526611328
0.6736570358276367,0.7262958526611328
0.6775337219238281,0.7324373245239257
0.6775337219238281,0.7324373245239257
0.6743070602416992,0.7329311370849609
0.6743070602416992,0.7329311370849609
0.6795495986938477,0.7338626861572265
0.6795495986938477,0.7338626861572265
0.6798912048339844,0.7384998321533203
0.6798912048339844,0.7384998321533203
0.6787834167480469,0.7359832763671875
0.6787834167480469,0.7359832763671875
0.6833684921264648,0.7421951293945312
0.6833684921264648,0.7421951293945312
0.6798042297363281,0.7428371429443359
0.6798042297363281,0.7428371429443359
0.6850828170776367,0.7438196182250977
0.6850828170776367,0.7438196182250977
0.6852241516113281,0.7484270095825195
0.6852241516113281,0.7484270095825195
0.6846691131591797,0.7458515167236328
0.6846691131591797,0.7458515167236328
0.6889451980590821,0.7520170211791992
0.6889451980590821,0.7520170211791992
0.6853889465332031,0.7523340225219727
0.6853889465332031,0.7523340225219727
0.6904975891113281,0.7536809921264648
0.6904975891113281,0.7536809921264648
0.6911550521850586,0.7582437515258789
0.6911550521850586,0.7582437515258789
0.6903905868530273,0.7558422088623047
0.6903905868530273,0.7558422088623047
0.6945064544677734,0.7619310379028320
0.6945064544677734,0.7619310379028320
0.6908168792724609,0.7626640319824218
0.6908168792724609,0.7626640319824218
0.6962167739868164,0.7634210586547852
0.6962167739868164,0.7634210586547852
0.6966007232666015,0.7679065704345703
0.6968822479248047,0.7679065704345703
0.6956205368041992,0.7650959014892578
0.6956205368041992,0.7650959014892578
0.6990274429321289,0.7701210021972656
0.6990274429321289,0.7701210021972656
0.6943376541137695,0.7672742843627930
0.6943376541137695,0.7672742843627930
0.6953453063964844,0.7588085174560547
0.6953453063964844,0.7588085174560547
0.6870283126831055,0.7464403152465821
0.6819700241088867,0.7464403152465821
0.6759824752807617,0.7271661758422852
0.6759824752807617,0.7271661758422852
0.6728857040405273,0.7211643218994140
0.6728857040405273,0.7211643218994140
0.6636497497558593,0.7122184753417968
0.6636497497558593,0.7122184753417968
0.6643856048583984,0.7056318283081054
0.6643856048583984,0.7056318283081054
0.6609283447265625,0.7044679641723632
0.6609283447265625,0.7044679641723632
0.6577039718627929,0.6975465774536133
0.6577039718627929,0.6975465774536133
0.6597181320190429,0.6999280929565429
0.6597181320190429,0.6999280929565429
0.6543411254882813,0.6974481582641602
0.6543411254882813,0.6974481582641602
0.6576993942260742,0.6954952239990234
0.6576993942260742,0.6954952239990234
0.6568084716796875,0.6973989486694335
0.6568084716796875,0.6973989486694335
0.6545248031616211,0.6923074722290039
0.6545248031616211,0.6923074722290039
0.6573011398315429,0.6960313796997070
0.6573011398315429,0.6960313796997070
0.6521221160888672,0.6941030502319335
0.6521221160888672,0.6941030502319335
0.6561624526977539,0.6925489425659179
0.6561624526977539,0.6925489425659179
0.6552091598510742,0.6946174621582031
0.6552091598510742,0.6946174621582031
0.6529890060424804,0.6898601531982421
0.6529890060424804,0.6898601531982421
0.6556474685668945,0.6936904907226562
0.6556474685668945,0.6936904907226562
0.6512374877929688,0.6922239303588867
0.6512374877929688,0.6922239303588867
0.6554506301879882,0.6915756225585937
0.6554506301879882,0.6915756225585937
0.6551153182983398,0.6948371887207031
0.6551153182983398,0.6948371887207031
0.6535108566284179,0.6914949417114258
0.6535108566284179,0.6914949417114258
0.6578779220581055,0.6974550247192383
0.6578779220581055,0.6974550247192383
0.6545156478881836,0.6983390808105469
0.6545156478881836,0.6983390808105469
0.6599184036254883,0.6995744705200195
0.6599184036254883,0.6995744705200195
0.6604780197143555,0.7047082901000976
0.6604780197143555,0.7047082901000976
0.6600397109985351,0.7026266098022461
0.6600397109985351,0.7026266098022461
0.6643478393554687,0.7086908340454101
0.6643478393554687,0.7086908340454101
0.6609014511108399,0.7092653274536133
0.6609014511108399,0.7092653274536133
0.6655391693115235,0.7093030929565429
0.6655391693115235,0.7093030929565429
0.6658830642700195,0.7131380081176758
0.6658830642700195,0.7131380081176758
0.6644359588623047,0.7096893310546875
0.6644359588623047,0.7096893310546875
0.6680294036865234,0.7147356033325195
0.6680294036865234,0.7147356033325195
0.6687074661254883,0.7150915145874023
0.6687074661254883,0.7164991378784179
0.6659872055053710,0.7140861511230469
0.6659872055053710,0.7140861511230469
0.6705099105834961,0.7167612075805664
0.6705099105834961,0.7167612075805664
0.6675859451293945,0.7192892074584961
0.6675859451293945,0.7192892074584961
0.6690977096557617,0.7182947158813476
0.6690977096557617,0.7182947158813476
0.6721395492553711,0.7225519180297851
0.6721395492553711,0.7225519180297851
0.6692653656005859,0.7203008651733398
0.6692653656005859,0.7203008651733398
0.6741502761840820,0.7234840393066406
0.6741502761840820,0.7234840393066406
0.6712760925292969,0.7262941360473633
0.6712760925292969,0.7262941360473633
0.6734739303588867,0.7258558273315430
0.6734739303588867,0.7258558273315430
0.6764276504516601,0.7302446365356445
0.6764276504516601,0.7302446365356445
0.6739683151245117,0.7287563323974610
0.6739683151245117,0.7287563323974610
0.6790397644042968,0.7322233200073242
0.6790397644042968,0.7322233200073242
0.6768407821655273,0.7357732772827148
0.6768407821655273,0.7357732772827148
0.6787519454956055,0.7356382369995117
0.6787519454956055,0.7356382369995117
0.6821262359619140,0.7406576156616210
0.6821262359619140,0.7406576156616210
0.6797773361206054,0.7392402648925781
0.6797773361206054,0.7392402648925781
0.6853351593017578,0.7429939270019531
0.6816244125366211,0.7429939270019531
0.6829673767089843,0.7465072631835937
0.6829673767089843,0.7465072631835937
0.6848470687866210,0.7465038299560547
0.6848470687866210,0.7465038299560547
0.6883169174194336,0.7513143539428710
0.6883169174194336,0.7513143539428710
0.6860097885131836,0.7497293472290039
0.6860097885131836,0.7497293472290039
0.6909004211425781,0.7532947540283202
0.6909004211425781,0.7532947540283202
0.6885864257812500,0.7566667556762695
0.6885864257812500,0.7566667556762695
0.6906045913696289,0.7564893722534179
0.6906045913696289,0.7564893722534179
0.6939760208129883,0.7610372543334961
0.6939760208129883,0.7610372543334961
0.6912775039672852,0.7592451095581054
0.6912775039672852,0.7592451095581054
0.6962923049926758,0.7628122329711914
0.6962923049926758,0.7628122329711914
0.6938587188720703,0.7660657882690429
0.6938587188720703,0.7660657882690429
0.6957641601562500,0.7655513763427734
0.6957641601562500,0.7655513763427734
0.6988426208496094,0.7699653625488281
0.6988426208496094,0.7699653625488281
0.6960725784301758,0.7679323196411133
0.6960725784301758,0.7679323196411133
0.7008533477783203,0.7710748672485351
0.7008533477783203,0.7710748672485351
0.6983654022216796,0.7735536575317382
0.6983654022216796,0.7735536575317382
0.6992145538330078,0.7712270736694335
0.6992145538330078,0.7712270736694335
0.7001346588134766,0.7706491470336914
0.7001346588134766,0.7706491470336914
0.6915218353271484,0.7561122894287109
0.6915218353271484,0.7561122894287109
0.6866884231567383,0.7410810470581054
0.6866884231567383,0.7410810470581054
0.6745536804199218,0.7290538787841797
0.6745536804199218,0.7290538787841797
0.6698799133300781,0.7178867340087890
0.6698799133300781,0.7178867340087890
0.6680791854858398,0.7143201828002930
0.6680791854858398,0.7143201828002930
0.6618839263916015,0.7065959930419922
0.6618839263916015,0.7065959930419922
0.6640251159667968,0.7053153991699218
0.6640251159667968,0.7053153991699218
0.6597112655639649,0.7051820755004883
0.6597112655639649,0.7051820755004883
0.6598262786865234,0.7018896102905273
0.6598262786865234,0.7018896102905273
0.6618043899536132,0.7039793014526367
0.6618043899536132,0.7039793014526367
0.6575637817382812,0.7000007629394531
0.6575637817382812,0.7000007629394531
0.6614753723144531,0.7013208389282226
0.6614753723144531,0.7013208389282226
0.6582252502441406,0.7025396347045898
0.6582252502441406,0.7025396347045898
0.6587717056274414,0.7000642776489258
0.6587717056274414,0.7000642776489258
0.6607812881469727,0.7026992797851562
0.6607812881469727,0.7026992797851562
0.6568239212036132,0.6988346099853515
0.6568239212036132,0.6988346099853515
0.6609272003173828,0.7001787185668945
0.6609272003173828,0.7001787185668945
0.6576244354248046,0.7016017913818359
0.6576244354248046,0.7016017913818359
0.6583751678466797,0.6994371414184570
0.6583751678466797,0.6994371414184570
0.6607795715332031,0.7026500701904297
0.6607795715332031,0.7026500701904297
0.6574819564819335,0.6998113632202149
0.6574819564819335,0.6998113632202149
0.6622678756713867,0.7026792526245117
0.6622678756713867,0.7026792526245117
0.6600076675415039,0.7057640075683593
0.6600076675415039,0.7057640075683593
0.6617168426513672,0.7056272506713867
0.6617168426513672,0.7056272506713867
0.6651317596435546,0.7106128692626953
0.6651317596435546,0.7106128692626953
0.6627490997314452,0.7092424392700195
0.6627490997314452,0.7092424392700195
0.6678525924682617,0.7128553390502930
0.6644044876098633,0.7128553390502930
0.6656856536865234,0.7161689758300781
0.6656856536865234,0.7161689758300781
0.6673341751098633,0.7152534484863281
0.6673341751098633,0.7152534484863281
0.6703851699829101,0.7193183898925781
0.6703851699829101,0.7193183898925781
0.6671081542968750,0.7162548065185547
0.6671081542968750,0.7162548065185547
0.6717052459716797,0.7189950942993164
0.6717052459716797,0.7189950942993164
0.6690999984741210,0.7215087890624999
0.6690999984741210,0.7215087890624999
0.6704973220825196,0.7201332092285156
0.6704973220825196,0.7201332092285156
0.6731592178344726,0.7238679885864258
0.6707181930541992,0.7238679885864258
0.6698919296264648,0.7214309692382812
0.6698919296264648,0.7214309692382812
0.6747396469116210,0.7241672515869141
0.6747396469116210,0.7241672515869141
0.6722951889038086,0.7269762039184570
0.6722951889038086,0.7269762039184570
0.6735082626342773,0.7259387969970703
0.6735082626342773,0.7259387969970703
0.6767406463623047,0.7303098678588867
0.6767406463623047,0.7303098678588867
0.6736799240112304,0.7282659530639648
0.6736799240112304,0.7282659530639648
0.6787879943847656,0.7315258026123047
0.6787879943847656,0.7315258026123047
0.6766920089721680,0.7347908020019531
0.6766920089721680,0.7347908020019531
0.6781929016113281,0.7343324661254883
0.6781929016113281,0.7343324661254883
0.6816467285156250,0.7390428543090820
0.6816467285156250,0.7390428543090820
0.6790065765380859,0.7376203536987305
0.6790065765380859,0.7376203536987305
0.6840929031372071,0.7411834716796875
0.6840929031372071,0.7411834716796875
0.6823482513427734,0.7452123641967773
0.6823482513427734,0.7452123641967773
0.6841466903686523,0.7451156616210938
0.6841466903686523,0.7451156616210938
0.6878528594970703,0.7502992630004882
0.6878528594970703,0.7502992630004882
0.6851612091064453,0.7488298416137695
0.6851612091064453,0.7488298416137695
0.6904094696044921,0.7526378631591797
0.6904094696044921,0.7526378631591797
0.6888450622558594,0.7563526153564453
0.6888450622558594,0.7563526153564453
0.6905811309814452,0.7561820983886719
0.6905811309814452,0.7561820983886719
0.6938947677612305,0.7608587265014648
0.6938947677612305,0.7608587265014648
0.6910692214965820,0.7592468261718750
0.6910692214965820,0.7592468261718750
0.6961275100708008,0.7626949310302734
0.6961275100708008,0.7626949310302734
0.6944555282592774,0.7660943984985351
0.6944555282592774,0.7660943984985351
0.6956783294677734,0.7655508041381835
0.6956783294677734,0.7655508041381835
0.6990554809570312,0.7702199935913085
0.6990554809570312,0.7702199935913085
0.6959632873535156,0.7682498931884766
0.6959632873535156,0.7682498931884766
0.7011606216430664,0.7714502334594726
0.7011606216430664,0.7714502334594726
0.6992036819458007,0.7746631622314453
0.6992036819458007,0.7746631622314453
0.7005363464355469,0.7739095687866211
0.7005363464355469,0.7739095687866211
0.7036085128784180,0.7781644821166992
0.7036085128784180,0.7781644821166992
0.7004922866821289,0.7758556365966797
0.7004922866821289,0.7758556365966797
0.7051940917968750,0.7786434173583984
0.7051940917968750,0.7786434173583984
0.7030237197875976,0.7812492370605468
0.7030237197875976,0.7812492370605468
0.7036828994750977,0.7793094635009765
0.7036828994750977,0.7793094635009765
0.7055179595947265,0.7803806304931641
0.7055179595947265,0.7803806304931641
0.6979413986206054,0.7684347152709960
0.6979413986206054,0.7684347152709960
0.6939565658569335,0.7540277481079102
0.6939565658569335,0.7540277481079102
0.6817056655883789,0.7397981643676758
0.6817056655883789,0.7397981643676758
0.6755687713623046,0.7268056869506836
0.6755687713623046,0.7268056869506836
0.6732799530029296,0.7225965499877930
0.6732799530029296,0.7225965499877930
0.6661554336547851,0.7141365051269531
0.6661554336547851,0.7141365051269531
0.6684803009033203,0.7126522064208984
0.6684803009033203,0.7126522064208984
0.6647083282470703,0.7125783920288086
0.6647083282470703,0.7125783920288086
0.6643712997436523,0.7090650558471679
0.6643712997436523,0.7090650558471679
0.6663356781005859,0.7116531372070313
0.6663356781005859,0.7116531372070313
0.6621030807495117,0.7076368331909180
0.6621030807495117,0.7076368331909180
0.6663391113281250,0.7091331481933594
0.6663391113281250,0.7091331481933594
0.6632274627685547,0.7106403350830078
0.6632274627685547,0.7106403350830078
0.6638151168823242,0.7081907272338867
0.6638151168823242,0.7081907272338867
0.6660329818725585,0.7110752105712891
0.6660329818725585,0.7110752105712891
0.6620641708374023,0.7074245452880860
0.6620641708374023,0.7074245452880860
0.6660655975341797,0.7088109970092773
0.6660655975341797,0.7088109970092773
0.6635673522949218,0.7108074188232422
0.6635673522949218,0.7108074188232422
0.6639947891235352,0.7086381912231445
0.6639947891235352,0.7086381912231445
0.6669319152832031,0.7126596450805663
0.6669319152832031,0.7126596450805663
0.6633132934570313,0.7101167678833008
0.6633132934570313,0.7101167678833008
0.6683761596679687,0.7133548736572265
0.6683761596679687,0.7133548736572265
0.6669170379638671,0.7169832229614258
0.6669170379638671,0.7169832229614258
0.6683876037597656,0.7165609359741211
0.6683876037597656,0.7165609359741211
0.6717350006103515,0.7214698791503906
0.6717350006103515,0.7214698791503906
0.6686222076416015,0.7194396972656250
0.6686222076416015,0.7194396972656250
0.6736003875732421,0.7224128723144531
0.6736003875732421,0.7224128723144531
0.6717796325683594,0.7250061035156250
0.6717796325683594,0.7250061035156250
0.6722951889038086,0.7231601715087891
0.6722951889038086,0.7231601715087891
0.6749794006347656,0.7267719268798828
0.6749794006347656,0.7267719268798828
0.6711725234985352,0.7235160827636719
0.6711725234985352,0.7235160827636719
0.6757844924926758,0.7256069183349609
0.6757844924926758,0.7256069183349609
0.6733852386474609,0.7279895782470703
0.6733852386474609,0.7279895782470703
0.6740638732910156,0.7263233184814453
0.6740638732910156,0.7263233184814453
0.6769151687622070,0.7301959991455078
0.6769151687622070,0.7301959991455078
0.6734664916992187,0.7274694442749023
0.6734664916992187,0.7274694442749023
0.6779920578002929,0.7300203323364257
0.6779920578002929,0.7300203323364257
0.6759778976440429,0.7328138351440430
0.6759778976440429,0.7328138351440430
0.6770610809326172,0.7316694259643555
0.6770610809326172,0.7316694259643555
0.6803014755249023,0.7360610961914062
0.6803014755249023,0.7360610961914062
0.6767698287963867,0.7336973190307617
0.6767698287963867,0.7336973190307617
0.6818796157836914,0.7369205474853515
0.6818796157836914,0.7369205474853515
0.6803667068481445,0.7403291702270508
0.6803667068481445,0.7403291702270508
0.6806882858276367,0.7420595169067382
0.6806882858276367,0.7420595169067382
0.6844551086425781,0.7425230026245117
0.6824718475341797,0.7425230026245117
0.6856916427612304,0.7474994659423828
0.6850673675537109,0.7474994659423828
0.6850399017333985,0.7451431274414062
0.6850399017333985,0.7451431274414062
0.6891746520996094,0.7515701293945313
0.6891746520996094,0.7515701293945313
0.6865945816040039,0.7526264190673828
0.6865945816040039,0.7526264190673828
0.6901599884033203,0.7530979156494141
0.6901599884033203,0.7530979156494141
0.6918125152587891,0.7579547882080078
0.6918125152587891,0.7579547882080078
0.6908346176147461,0.7553895950317383
0.6908346176147461,0.7553895950317383
0.6947576522827148,0.7615293502807617
0.6947576522827148,0.7615293502807617
0.6917146682739258,0.7619190216064453
0.6917146682739258,0.7619190216064453
0.6957138061523437,0.7621931076049805
0.6957138061523437,0.7621931076049805
0.6968147277832031,0.7668382644653320
0.6968147277832031,0.7668382644653320
0.6956422805786132,0.7640333175659180
0.6956422805786132,0.7640333175659180
0.6991230010986328,0.7698812484741211
0.6991230010986328,0.7698812484741211
0.6967031478881835,0.7705192565917969
0.6967031478881835,0.7705192565917969
0.7001815795898437,0.7704380035400390
0.7001815795898437,0.7704380035400390
0.7013494491577148,0.7749578475952148
0.7013494491577148,0.7749578475952148
0.6999023437499999,0.7720247268676758
0.6999023437499999,0.7720247268676758
0.7038105010986327,0.7777021408081054
0.7038105010986327,0.7777021408081054
0.7008762359619141,0.7778800964355469
0.7008762359619141,0.7778800964355469
0.7042207717895508,0.7775299072265625
0.7042207717895508,0.7775299072265625
0.7045915603637695,0.7810569763183594
0.7045915603637695,0.7810569763183594
0.7026020050048828,0.7754007339477539
0.7048215866088867,0.7754007339477539
0.7026494979858399,0.7730363845825196
0.7026494979858399,0.7730363845825196
0.6918668746948242,0.7574438095092774
0.6918668746948242,0.7574438095092774
0.6850135803222656,0.7405214309692383
0.6850135803222656,0.7405214309692383
0.6788778305053711,0.7326765060424805
0.6788778305053711,0.7326765060424805
0.6722373962402344,0.7204433441162109
0.6734521865844726,0.7204433441162109
0.6717550277709960,0.7195123672485352
0.6663682937622070,0.7195123672485352
0.6656616210937499,0.7149467468261719
0.6656616210937499,0.7149467468261719
0.6669565200805664,0.7109630584716796
0.6669565200805664,0.7109630584716796
0.6664661407470703,0.7125841140747070
0.6664661407470703,0.7125841140747070
0.6637556076049804,0.7070079803466797
0.6637556076049804,0.7070079803466797
0.6659637451171875,0.7107450485229492
0.6659637451171875,0.7107450485229492
0.6624418258666992,0.7092069625854492
0.6624418258666992,0.7092069625854492
0.6647518157958984,0.7072763442993164
0.6647518157958984,0.7072763442993164
0.6649457931518554,0.7100057601928711
0.6649457931518554,0.7100057601928711
0.6625156402587891,0.7051242828369141
0.6625156402587891,0.7051242828369141
0.6654928207397460,0.7091239929199219
0.6654928207397460,0.7091239929199219
0.6614988327026367,0.7074720382690429
0.6614988327026367,0.7074720382690429
0.6638111114501953,0.7057371139526367
0.6638111114501953,0.7057371139526367
0.6638368606567383,0.7087097167968750
0.6638368606567383,0.7087097167968750
0.6621511459350585,0.7042728424072265
0.6621511459350585,0.7042728424072265
0.6652593612670898,0.7089042663574219
0.6652593612670898,0.7089042663574219
0.6621150970458984,0.7087738037109375
0.6621150970458984,0.7087738037109375
0.6650156021118164,0.7085643768310547
0.6650156021118164,0.7085643768310547
0.6666715621948242,0.7134258270263671
0.6666715621948242,0.7134258270263671
0.6658224105834961,0.7110929489135742
0.6658224105834961,0.7110929489135742
0.6699102401733398,0.7173460006713867
0.6699102401733398,0.7173460006713867
0.6673147201538085,0.7184623718261719
0.6673147201538085,0.7184623718261719
0.6709304809570312,0.7187759399414062
0.6709304809570312,0.7187759399414062
0.6725297927856445,0.7234073638916015
0.6725297927856445,0.7234073638916015
0.6712137222290039,0.7199764251708984
0.6712137222290039,0.7199764251708984
0.6743116378784180,0.7251371383666992
0.6743116378784180,0.7251371383666992
0.6712715148925781,0.7248184204101562
0.6712715148925781,0.7248184204101562
0.6741353988647460,0.7239503860473633
0.6741353988647460,0.7239503860473633
0.6749942779541015,0.7276994705200195
0.6749942779541015,0.7276994705200195
0.6732645034790039,0.7238943099975585
0.6732645034790039,0.7238943099975585
0.6767623901367187,0.7289308547973633
0.6767623901367187,0.7289308547973633
0.6736558914184571,0.7287603378295898
0.6736558914184571,0.7287603378295898
0.6765003204345703,0.7281406402587890
0.6765003204345703,0.7281406402587890
0.6773208618164063,0.7323314666748046
0.6773208618164063,0.7323314666748046
0.6761770248413086,0.7287654876708984
0.6761770248413086,0.7287654876708984
0.6796348571777343,0.7342523574829102
0.6796348571777343,0.7342523574829102
0.6767932891845703,0.7344142913818359
0.6809846878051757,0.7344142913818359
0.6796154022216797,0.7341665267944336
0.6796154022216797,0.7341665267944336
0.6812107086181640,0.7386137008666992
0.6812107086181640,0.7386137008666992
0.6799999237060547,0.7354671478271484
0.6799999237060547,0.7354671478271484
0.6835927963256836,0.7413551330566406
0.6835927963256836,0.7413551330566406
0.6807489395141602,0.7420412063598633
0.6807489395141602,0.7420412063598633
0.6839859008789062,0.7420875549316406
0.6839859008789062,0.7420875549316406
