REDsignal,IRsignal
0.4051277160644531,0.3317710876464844
0.4126287460327148,0.3442451477050781
0.4126287460327148,0.3442451477050781
0.4035106658935547,0.3356775283813476
0.4035106658935547,0.3356775283813476
0.4146097183227539,0.3420026779174805
0.4146097183227539,0.3420026779174805
0.4080659866333008,0.3470335006713867
0.4180664062500000,0.3470335006713867
0.4094238281250000,0.3395908355712891
0.4094238281250000,0.3395908355712891
0.4173654556274414,0.3522039413452148
0.4173654556274414,0.3522039413452148
0.4084442138671875,0.3440471649169922
0.4084442138671875,0.3440471649169922
0.4193647384643555,0.3504152297973633
0.4193647384643555,0.3504152297973633
0.4124628067016601,0.3539062500000000
0.4124628067016601,0.3539062500000000
0.4151046752929687,0.3475433349609375
0.4151046752929687,0.3475433349609375
0.4209674835205078,0.3590715408325195
0.4209674835205078,0.3590715408325195
0.4130029678344727,0.3503190994262695
0.4130029678344727,0.3503190994262695
0.4233507156372070,0.3567266464233398
0.4233507156372070,0.3567266464233398
0.4159292221069336,0.3598651885986328
0.4159292221069336,0.3598651885986328
0.4186077117919922,0.3536235809326172
0.4186077117919922,0.3536235809326172
0.4245145797729492,0.3649326324462890
0.4245145797729492,0.3649326324462890
0.4166679382324219,0.3562957763671875
0.4166679382324219,0.3562957763671875
0.4268520355224609,0.3623548507690429
0.4268520355224609,0.3623548507690429
0.4195558547973633,0.3656787872314453
0.4195558547973633,0.3656787872314453
0.4217645645141602,0.3583288192749023
0.4217645645141602,0.3583288192749023
0.4263690948486328,0.3669742584228515
0.4263690948486328,0.3669742584228515
0.4155138015747070,0.3526771545410156
0.4155138015747070,0.3526771545410156
0.4210464477539063,0.3508981704711914
0.4210464477539063,0.3508981704711914
0.4087692260742187,0.3464097976684570
0.4087692260742187,0.3464097976684570
0.4056907653808594,0.3315153121948242
0.4056907653808594,0.3315153121948242
0.4096057891845703,0.3379034042358398
0.4096057891845703,0.3379034042358398
0.3975265502929687,0.3252656936645508
0.3975265502929687,0.3252656936645508
0.4061857223510742,0.3272266387939453
0.4061857223510742,0.3272266387939453
0.3979791641235351,0.3300613403320312
0.3979791641235351,0.3300613403320312
0.3974155426025390,0.3198268890380859
0.3974155426025390,0.3198268890380859
0.4044771194458008,0.3307880401611328
0.4044771194458008,0.3307880401611328
0.3945047378540039,0.3213157653808594
0.3945047378540039,0.3213157653808594
0.4047637939453125,0.3254356384277344
0.4047637939453125,0.3254356384277344
0.3980787277221680,0.3302518844604492
0.3980787277221680,0.3302518844604492
0.3986257553100586,0.3220796585083008
0.3986257553100586,0.3220796585083008
0.4065937042236328,0.3342533111572266
0.4065937042236328,0.3342533111572266
0.3973806381225586,0.3257074356079102
0.3973806381225586,0.3257074356079102
0.4086141586303711,0.3314849853515625
0.4086141586303711,0.3314849853515625
0.4017969131469726,0.3371904373168945
0.4017969131469726,0.3371904373168945
0.4034717559814453,0.3294862747192382
0.4034717559814453,0.3294862747192382
0.4115055084228516,0.3423837661743164
0.4115055084228516,0.3423837661743164
0.4022792816162109,0.3338430404663086
0.4022792816162109,0.3338430404663086
0.4135070800781250,0.3397310256958008
0.4135070800781250,0.3397310256958008
0.4066366195678711,0.3446994781494140
0.4066366195678711,0.3446994781494140
0.4075355529785156,0.3358858108520508
0.4075355529785156,0.3358858108520508
0.4150033950805664,0.3476240158081055
0.4150033950805664,0.3476240158081055
0.4049943923950195,0.3380653381347656
0.4049943923950195,0.3380653381347656
0.4155424118041992,0.3425371170043945
0.4155424118041992,0.3425371170043945
0.4082794189453125,0.3468355178833007
0.4082794189453125,0.3468355178833007
0.4086376190185547,0.3374530792236328
0.4086376190185547,0.3374530792236328
0.4160013198852539,0.3492364883422852
0.4160013198852539,0.3492364883422852
0.4056707382202148,0.3391885757446289
0.4056707382202148,0.3391885757446289
0.4162319183349609,0.3432409286499024
0.4162319183349609,0.3432409286499024
0.4084362030029297,0.3469608306884766
0.4084362030029297,0.3469608306884766
0.4083984375000000,0.3369346618652344
0.4083984375000000,0.3369346618652344
0.4151950836181640,0.3473945617675781
0.4151950836181640,0.3473945617675781
0.4040433883666992,0.3363464355468750
0.4040433883666992,0.3363464355468750
0.4136964797973633,0.3390151977539063
0.4136964797973633,0.3390151977539063
0.4053560256958008,0.3422458648681641
0.4053560256958008,0.3422458648681641
0.4048810958862304,0.3310638427734375
0.4048810958862304,0.3310638427734375
0.4113149642944336,0.3410545349121094
0.4113149642944336,0.3410545349121094
0.3994886398315430,0.3287263870239258
0.3994886398315430,0.3287263870239258
0.4079521179199219,0.3288396835327148
0.4079521179199219,0.3288396835327148
0.3969148635864257,0.3274744033813476
0.3969148635864257,0.3274744033813476
0.3939165115356445,0.3129100799560547
0.3939165115356445,0.3129100799560547
0.3987865447998047,0.3206623077392578
0.3987865447998047,0.3206623077392578
0.3862380981445312,0.3077344894409180
0.3862380981445312,0.3077344894409180
0.3953252792358398,0.3098716735839844
0.3953252792358398,0.3098716735839844
0.3873355865478516,0.3135143280029297
0.3873355865478516,0.3135143280029297
0.3872886657714844,0.3036157608032227
0.3872886657714844,0.3036157608032227
0.3948554992675781,0.3154872894287109
0.3948554992675781,0.3154872894287109
0.3846651077270508,0.3060247421264649
0.3846651077270508,0.3060247421264649
0.3959804534912109,0.3113210678100586
0.3959804534912109,0.3113210678100586
0.3890865325927734,0.3167615890502929
0.3890865325927734,0.3167615890502929
0.3902595520019531,0.3090047836303711
0.3902595520019531,0.3090047836303711
0.3987979888916016,0.3221271514892578
0.3987979888916016,0.3221271514892578
0.3892948150634766,0.3139480590820312
0.3892948150634766,0.3139480590820312
0.4012550354003906,0.3202045440673828
0.4012550354003906,0.3202045440673828
0.3950139999389649,0.3270063400268555
0.3950139999389649,0.3270063400268555
0.3967758178710937,0.3197462081909180
0.3967758178710937,0.3197462081909180
0.4057353973388672,0.3336908340454102
0.4057353973388672,0.3336908340454102
0.3965875625610352,0.3262418746948242
0.4055894851684570,0.3262418746948242
0.4090072631835938,0.3331094741821289
0.4090072631835938,0.3331094741821289
0.4031318664550781,0.3403884887695313
0.4031318664550781,0.3403884887695313
0.4051797866821289,0.3335918426513672
0.4051797866821289,0.3335918426513672
0.4142057418823242,0.3479776382446289
0.4142057418823242,0.3479776382446289
0.4053823471069336,0.3410390853881836
0.4053823471069336,0.3410390853881836
0.4177156448364258,0.3478586196899414
0.4177156448364258,0.3478586196899414
0.4116285324096680,0.3545362472534180
0.4116285324096680,0.3545362472534180
0.4130796432495117,0.3469036102294922
0.4130796432495117,0.3469036102294922
0.4216266632080078,0.3606616973876953
0.4216266632080078,0.3606616973876953
0.4123781204223633,0.3527984619140625
0.4123781204223633,0.3527984619140625
0.4243875503540039,0.3592472076416016
0.4243875503540039,0.3592472076416016
0.4178524017333984,0.3653354644775391
0.4178524017333984,0.3653354644775391
0.4190391540527343,0.3574636459350586
0.4190391540527343,0.3574636459350586
0.4274368286132812,0.3700435638427734
0.4274368286132812,0.3700435638427734
0.4175182342529297,0.3608802795410156
0.4175182342529297,0.3608802795410156
0.4279924392700195,0.3643352508544922
0.4279924392700195,0.3643352508544922
0.4190580368041992,0.3657600402832031
0.4190580368041992,0.3657600402832031
0.4161071777343750,0.3496719360351562
0.4161071777343750,0.3496719360351562
0.4182392120361328,0.3519115447998047
0.4182392120361328,0.3519115447998047
0.4023645401000976,0.3333538055419922
0.4023645401000976,0.3333538055419922
0.4087554931640625,0.3315364837646484
0.4087554931640625,0.3315364837646484
0.3983030319213867,0.3311382293701172
0.3983030319213867,0.3311382293701172
0.3964330673217774,0.3185892105102539
0.3964330673217774,0.3185892105102539
0.4021825790405273,0.3277782440185547
0.4021825790405273,0.3277782440185547
0.3912483215332031,0.3171998977661133
0.3912483215332031,0.3171998977661133
0.4012584686279297,0.3205919265747070
0.4012584686279297,0.3205919265747070
0.3938318252563476,0.3244703292846680
0.3938318252563476,0.3244703292846680
0.3941682815551757,0.3151622772216797
0.3941682815551757,0.3151622772216797
0.4015371322631836,0.3266092300415039
0.4015371322631836,0.3266092300415039
0.3919069290161133,0.3169429779052734
0.3919069290161133,0.3169429779052734
0.4020864486694336,0.3216808319091797
0.4020864486694336,0.3216808319091797
0.3941534042358398,0.3242752075195313
0.3941534042358398,0.3242752075195313
0.3958711624145508,0.3166540145874023
0.3958711624145508,0.3166540145874023
0.4020103454589843,0.3273902893066406
0.4020103454589843,0.3273902893066406
0.3930130004882812,0.3178230285644531
0.3930130004882812,0.3178230285644531
0.4032560348510742,0.3230386734008789
0.4032560348510742,0.3230386734008789
0.3955095291137695,0.3261589050292968
0.3955095291137695,0.3261589050292968
0.3974601745605469,0.3186813354492187
0.3974601745605469,0.3186813354492187
0.4036479949951172,0.3297363281250000
0.4036479949951172,0.3297363281250000
0.3947685241699219,0.3203447341918945
0.3947685241699219,0.3203447341918945
0.4054121017456054,0.3263706207275390
0.4054121017456054,0.3263706207275390
0.3983551025390625,0.3306501388549805
0.3983551025390625,0.3306501388549805
0.3991052627563477,0.3221145629882812
0.3991052627563477,0.3221145629882812
0.4069444656372070,0.3342533111572266
0.4069444656372070,0.3342533111572266
0.3970098495483398,0.3256914138793945
0.3970098495483398,0.3256914138793945
0.4080173492431641,0.3303211212158203
0.4080173492431641,0.3303211212158203
0.4011428833007812,0.3357885360717773
0.4011428833007812,0.3357885360717773
0.4013809204101562,0.3265892028808594
0.4013809204101562,0.3265892028808594
0.4091491699218750,0.3388681411743164
0.4091491699218750,0.3388681411743164
0.3989341735839844,0.3299011230468750
0.4081638336181641,0.3299011230468750
0.4097488403320312,0.3349571228027344
0.4097488403320312,0.3349571228027344
0.4039878845214844,0.3420095443725586
0.4039878845214844,0.3420095443725586
0.4055322647094726,0.3354629516601562
0.4055322647094726,0.3354629516601562
0.4149988174438476,0.3497028350830078
0.4149988174438476,0.3497028350830078
0.4060432434082031,0.3422430038452148
0.4060432434082031,0.3422430038452148
0.4168413162231445,0.3456499099731445
0.4168413162231445,0.3456499099731445
0.4077180862426757,0.3461271286010742
0.4077180862426757,0.3461271286010742
0.4040250778198242,0.3299388885498047
0.4040250778198242,0.3299388885498047
0.4072929382324219,0.3345268249511719
0.4020612716674805,0.3345268249511719
0.3933483123779297,0.3193336486816406
0.3933483123779297,0.3193336486816406
0.3904048919677734,0.3112369537353515
0.3904048919677734,0.3124900817871094
0.4000762939453125,0.3200843811035156
0.4000762939453125,0.3200843811035156
0.3858283996582031,0.3146793365478516
0.3858283996582031,0.3146793365478516
0.3934513092041015,0.3101486206054687
0.3934513092041015,0.3101486206054687
0.3934118270874024,0.3187986373901367
0.3934118270874024,0.3187986373901367
0.3869092941284180,0.3062221527099609
0.3869092941284180,0.3062221527099609
0.3967151641845703,0.3155141830444336
0.3967151641845703,0.3155141830444336
0.3844219207763672,0.3125953674316406
0.3844219207763672,0.3125953674316406
0.3928098678588867,0.3089040756225586
0.3928098678588867,0.3089040756225586
0.3939382553100586,0.3187351226806641
0.3939382553100586,0.3187351226806641
0.3867536544799804,0.3066146850585937
0.3867536544799804,0.3066146850585937
0.3979190826416015,0.3173772811889649
0.3979190826416015,0.3173772811889649
0.3859972000122070,0.3146284103393555
0.3859972000122070,0.3146284103393555
0.3953601837158203,0.3114406585693359
0.3953601837158203,0.3114406585693359
0.3955507278442383,0.3213541030883789
0.3955507278442383,0.3213541030883789
0.3890848159790039,0.3104318618774414
0.3890848159790039,0.3104318618774414
0.4005266189575195,0.3211652755737305
0.4005266189575195,0.3211652755737305
0.3889486312866211,0.3185159683227539
0.3889486312866211,0.3185159683227539
0.3972696304321289,0.3150484085083008
0.3972696304321289,0.3150484085083008
0.3981084823608398,0.3257394790649414
0.3981084823608398,0.3257394790649414
0.3914926528930664,0.3143068313598633
0.3914926528930664,0.3143068313598633
0.4035095214843750,0.3251724243164062
0.4035095214843750,0.3251724243164062
0.3909673690795898,0.3222816467285156
0.3909673690795898,0.3222816467285156
0.3997072219848632,0.3193599700927734
0.3997072219848632,0.3193599700927734
0.4005180358886719,0.3295543670654297
0.4005180358886719,0.3295543670654297
0.3945470809936523,0.3181623458862304
0.3945470809936523,0.3181623458862304
0.4053085327148437,0.3284311294555664
0.4053085327148437,0.3284311294555664
0.3935462951660156,0.3264209747314453
0.3935462951660156,0.3264209747314453
0.4024291992187500,0.3233905792236328
0.4024291992187500,0.3233905792236328
0.4040067672729492,0.3341108322143554
0.4040067672729492,0.3341108322143554
0.3970699310302734,0.3225025177001953
0.3970699310302734,0.3225025177001953
0.4081398010253906,0.3333686828613281
0.4081398010253906,0.3333686828613281
0.3960142135620117,0.3305042266845703
0.3960142135620117,0.3305042266845703
0.4044473648071289,0.3256553649902343
0.4044473648071289,0.3256553649902343
0.4028995513916016,0.3321172714233399
0.4028995513916016,0.3321172714233399
0.3931789398193359,0.3160051345825195
0.3931789398193359,0.3160051345825195
0.4012567520141602,0.3218135833740234
0.4012567520141602,0.3218135833740234
0.3869676589965820,0.3147897720336914
0.3869676589965820,0.3147897720336914
0.3927074432373047,0.3078357696533203
0.3927074432373047,0.3078357696533203
0.3916683197021484,0.3157007217407227
0.3916683197021484,0.3157007217407227
0.3836122512817383,0.3022853851318359
0.3836122512817383,0.3022853851318359
0.3943857192993164,0.3112215042114257
0.3943857192993164,0.3112215042114257
0.3810590744018554,0.3069620132446289
0.3892032623291016,0.3032690048217773
0.3892032623291016,0.3032690048217773
0.3896919250488281,0.3127447128295898
0.3896919250488281,0.3127447128295898
0.3834417343139648,0.3011398315429688
0.3834417343139648,0.3011398315429688
0.3940818786621094,0.3113084793090820
0.3940818786621094,0.3113084793090820
0.3823127746582031,0.3094333648681640
0.3823127746582031,0.3094333648681640
0.3913822174072266,0.3066301345825195
0.3913822174072266,0.3066301345825195
0.3931119918823242,0.3175071716308593
0.3931119918823242,0.3175071716308593
0.3865774154663086,0.3065139770507813
0.3865774154663086,0.3065139770507813
0.3981634140014648,0.3181423187255859
0.3981634140014648,0.3181423187255859
0.3867719650268555,0.3161928176879883
0.3867719650268555,0.3161928176879883
0.3965618133544922,0.3139509201049804
0.3965618133544922,0.3139509201049804
0.3970247268676758,0.3242694854736328
0.3970247268676758,0.3242694854736328
0.3909170150756836,0.3137557983398437
0.3909170150756836,0.3137557983398437
0.4023113250732422,0.3248680114746094
0.4023113250732422,0.3248680114746094
0.3913524627685547,0.3225082397460937
0.4037298202514648,0.3225082397460937
0.3994812011718750,0.3191951751708984
0.3994812011718750,0.3191951751708984
0.4002937316894531,0.3296808242797851
0.4002937316894531,0.3296808242797851
0.3939577102661133,0.3186075210571289
0.3939577102661133,0.3186075210571289
0.4057634353637695,0.3292322158813477
0.4057634353637695,0.3292322158813477
0.3936115264892578,0.3262052536010742
0.3936115264892578,0.3262052536010742
0.4020727157592773,0.3237768173217773
0.4020727157592773,0.3237768173217773
0.4030328750610351,0.3339878082275390
0.4030328750610351,0.3339878082275390
0.3975740432739258,0.3234535217285156
0.3975740432739258,0.3234535217285156
0.4082416534423828,0.3339437484741211
0.4082416534423828,0.3339437484741211
0.3968982696533203,0.3324010848999023
0.3968982696533203,0.3324010848999023
0.4060878753662109,0.3303668975830078
0.4060878753662109,0.3303668975830078
0.4079618453979492,0.3414144515991211
0.4079618453979492,0.3414144515991211
0.4015068054199218,0.3309591293334961
0.4015068054199218,0.3309591293334961
0.4127574920654297,0.3423128128051758
0.4127574920654297,0.3423128128051758
0.4010599136352539,0.3374296188354492
0.4010599136352539,0.3374296188354492
0.4083961486816406,0.3319988250732422
0.4083961486816406,0.3319988250732422
0.4036628723144531,0.3346309661865234
0.4036628723144531,0.3346309661865234
0.3950683593750000,0.3189886093139648
0.3950683593750000,0.3189886093139648
0.4019124984741211,0.3241258621215820
0.4019124984741211,0.3241258621215820
0.3886121749877929,0.3159736633300781
0.3886121749877929,0.3159736633300781
0.3943090438842773,0.3104484558105469
0.3943090438842773,0.3104484558105469
0.3920230865478516,0.3171054840087891
0.3920230865478516,0.3171054840087891
0.3858381271362304,0.3048614501953125
0.3858381271362304,0.3048614501953125
0.3955060958862305,0.3134267807006836
0.3955060958862305,0.3134267807006836
0.3830102920532226,0.3078151702880859
0.3830102920532226,0.3078151702880859
0.3910085678100586,0.3056608200073242
0.3910085678100586,0.3056608200073242
0.3900289535522461,0.3136081695556641
0.3900289535522461,0.3136081695556641
0.3853506088256836,0.3030492782592774
0.3853506088256836,0.3030492782592774
0.3946352005004883,0.3127670288085938
0.3946352005004883,0.3127670288085938
0.3835332870483398,0.3094270706176758
0.3835332870483398,0.3094270706176758
0.3924551010131836,0.3081373214721679
0.3924551010131836,0.3081373214721679
0.3934564590454102,0.3175500869750976
0.3934564590454102,0.3175500869750976
0.3863050460815430,0.3058753967285156
0.3863050460815430,0.3058753967285156
0.3972547531127930,0.3168485641479492
0.3972547531127930,0.3168485641479492
0.3855623245239257,0.3142164230346680
0.3983299255371094,0.3142164230346680
0.3948303222656250,0.3109840393066406
0.3948303222656250,0.3109840393066406
0.3950929641723633,0.3208070755004883
0.3950929641723633,0.3208070755004883
0.3885143280029297,0.3102716445922851
0.3885143280029297,0.3102716445922851
0.3999841690063476,0.3208557128906250
0.3999841690063476,0.3208557128906250
0.3893640518188476,0.3192449569702148
0.3893640518188476,0.3192449569702148
0.3972238540649414,0.3159690856933594
0.3972238540649414,0.3159690856933594
0.3989650726318359,0.3276849746704101
0.3989650726318359,0.3276849746704101
0.3929437637329101,0.3173051834106445
0.3929437637329101,0.3173051834106445
0.4056753158569336,0.3293449401855469
0.4056753158569336,0.3293449401855469
0.3940023422241211,0.3278308868408203
0.3940023422241211,0.3278308868408203
0.4036977767944336,0.3268735885620117
0.4036977767944336,0.3268735885620117
0.4055236816406250,0.3386838912963867
0.4055236816406250,0.3386838912963867
0.4007966995239258,0.3287143707275391
0.4007966995239258,0.3287143707275391
0.4121360778808594,0.3404302597045898
0.4121360778808594,0.3404302597045898
0.4009986877441406,0.3399530410766601
0.4009986877441406,0.3399530410766601
0.4108554840087891,0.3385934829711914
0.4108554840087891,0.3385934829711914
0.4135288238525390,0.3504426956176758
0.4135288238525390,0.3504426956176758
0.4072088241577148,0.3400783538818359
0.4072088241577148,0.3400783538818359
0.4193716049194336,0.3528556823730469
0.4193716049194336,0.3528556823730469
0.4080127716064453,0.3513484954833984
0.4080127716064453,0.3513484954833984
0.4162576675415039,0.3436740875244140
0.4162576675415039,0.3436740875244140
0.4098890304565430,0.3416353225708008
0.4098890304565430,0.3416353225708008
0.3955341339111328,0.3188198089599609
0.3955341339111328,0.3188198089599609
0.4017826080322265,0.3219749450683594
0.4017826080322265,0.3219749450683594
0.3867204666137695,0.3137420654296875
0.3976284027099609,0.3137420654296875
0.3920757293701172,0.3060550689697266
0.3920757293701172,0.3060550689697266
0.3911579132080078,0.3144704818725586
0.3911579132080078,0.3144704818725586
0.3832551956176758,0.3009704589843750
0.3832551956176758,0.3009704589843750
0.3947233200073242,0.3107591629028320
0.3947233200073242,0.3107591629028320
0.3814092636108398,0.3068950653076172
0.3814092636108398,0.3068950653076172
0.3899774551391602,0.3038125991821289
0.3899774551391602,0.3038125991821289
0.3907957077026367,0.3140579223632812
0.3907957077026367,0.3140579223632812
0.3849821090698242,0.3027465820312500
0.3849821090698242,0.3027465820312500
0.3959884643554688,0.3135263442993164
0.3959884643554688,0.3135263442993164
0.3841060638427734,0.3120460510253906
0.3841060638427734,0.3120460510253906
0.3935863494873047,0.3098138809204101
0.3935863494873047,0.3098138809204101
0.3958940505981445,0.3211458206176758
0.3958940505981445,0.3211458206176758
0.3891723632812500,0.3103935241699219
0.3891723632812500,0.3103935241699219
0.4014696121215820,0.3229459762573242
0.4014696121215820,0.3229459762573242
0.3901714324951172,0.3214902877807617
0.3901714324951172,0.3214902877807617
0.4005723953247070,0.3193822860717773
0.4005723953247070,0.3193822860717773
0.4011571884155273,0.3300733566284180
0.4011571884155273,0.3300733566284180
0.3948646545410156,0.3196260452270508
0.3948646545410156,0.3196260452270508
0.4065771102905273,0.3309156417846680
0.4065771102905273,0.3309156417846680
0.3953985214233398,0.3285919189453125
0.3953985214233398,0.3285919189453125
0.4036497116088867,0.3250511169433594
0.4036497116088867,0.3250511169433594
0.4045938491821289,0.3361753463745117
0.4045938491821289,0.3361753463745117
0.3980661392211914,0.3247964859008789
0.3980661392211914,0.3247964859008789
0.4103570938110351,0.3359195709228516
0.4103570938110351,0.3359195709228516
0.3975408554077148,0.3328147888183594
0.3975408554077148,0.3328147888183594
0.4064792633056640,0.3303319931030274
0.4064792633056640,0.3303319931030274
0.4073123931884766,0.3408330917358398
0.4073123931884766,0.3408330917358398
0.4016292572021484,0.3294679641723633
0.4016292572021484,0.3294679641723633
0.4123311996459961,0.3402088165283203
0.4123311996459961,0.3402088165283203
0.4005294799804687,0.3385208129882812
0.4005294799804687,0.3385208129882812
0.4098541259765625,0.3361942291259766
0.4098541259765625,0.3361942291259766
0.4120920181274414,0.3474197387695312
0.4120920181274414,0.3474197387695312
0.4082199096679687,0.3479822158813476
0.4174381256103515,0.3479822158813476
0.4090456008911132,0.3391199111938477
0.4090456008911132,0.3391199111938477
0.4155670166015625,0.3476995468139648
0.4155670166015625,0.3476995468139648
0.4010444641113281,0.3307806015014648
0.4010444641113281,0.3307806015014648
0.4074485778808594,0.3276689529418945
0.4074485778808594,0.3276689529418945
0.3963386535644531,0.3275573730468750
0.3963386535644531,0.3275573730468750
0.3942924499511719,0.3142679214477539
0.3942924499511719,0.3142679214477539
0.4000637054443359,0.3233333587646484
0.4000637054443359,0.3233333587646484
0.3882202148437500,0.3120861053466797
0.3960794448852539,0.3120861053466797
0.3985216140747070,0.3156583786010742
0.3985216140747070,0.3156583786010742
0.3907224655151367,0.3196924209594726
0.3907224655151367,0.3196924209594726
0.3913244247436523,0.3103134155273438
0.3913244247436523,0.3103134155273438
0.3989347457885742,0.3221649169921875
0.3989347457885742,0.3221649169921875
0.3890716552734375,0.3134485244750976
0.3890716552734375,0.3134485244750976
0.4002943038940430,0.3185657501220703
0.4002943038940430,0.3185657501220703
0.3935749053955078,0.3242454528808594
0.3935749053955078,0.3242454528808594
0.3948217391967773,0.3164560317993164
0.3948217391967773,0.3164560317993164
0.4033172607421875,0.3300910949707031
0.4033172607421875,0.3300910949707031
0.3941883087158203,0.3224275588989258
0.3941883087158203,0.3224275588989258
0.4064134597778320,0.3290307998657226
0.4064134597778320,0.3290307998657226
0.4002210617065430,0.3355464935302734
0.4002210617065430,0.3355464935302734
0.4021883010864258,0.3292018890380859
0.4021883010864258,0.3292018890380859
0.4108446121215820,0.3426670074462890
0.4108446121215820,0.3426670074462890
0.4020624160766602,0.3354612350463867
0.4020624160766602,0.3354612350463867
0.4138526916503906,0.3417308807373047
0.4138526916503906,0.3417308807373047
0.4074102401733398,0.3472234725952149
0.4074102401733398,0.3472234725952149
0.4096544265747070,0.3402139663696289
0.4096544265747070,0.3402139663696289
0.4158617019653320,0.3515653610229492
0.4158617019653320,0.3515653610229492
0.4074754714965820,0.3425153732299804
0.4074754714965820,0.3425153732299804
0.4182174682617187,0.3490636825561523
0.4182174682617187,0.3490636825561523
0.4105379104614258,0.3520128250122070
0.4105379104614258,0.3520128250122070
0.4128227233886719,0.3446805953979492
0.4128227233886719,0.3446805953979492
0.4186826705932617,0.3555278778076172
0.4186826705932617,0.3555278778076172
0.4098226547241211,0.3459669113159179
0.4098226547241211,0.3459669113159179
0.4199598312377930,0.3507333755493164
0.4199598312377930,0.3507333755493164
0.4116662979125976,0.3528322219848632
0.4116662979125976,0.3528322219848632
0.4129795074462890,0.3435962677001953
0.4129795074462890,0.3435962677001953
0.4193298339843750,0.3547674179077148
0.4193298339843750,0.3547674179077148
0.4084264755249024,0.3434514999389648
0.4084264755249024,0.3434514999389648
0.4174358367919922,0.3443847656250000
0.4174358367919922,0.3443847656250000
0.4064517974853515,0.3425376892089844
0.4064517974853515,0.3425376892089844
0.4022603988647461,0.3263093948364258
0.4022603988647461,0.3263093948364258
0.4054624557495117,0.3312549591064453
0.4054624557495117,0.3312549591064453
0.3918497085571289,0.3170454025268555
0.3918497085571289,0.3170454025268555
0.4001180648803711,0.3178642272949219
0.4001180648803711,0.3178642272949219
0.3909404754638672,0.3200180053710938
0.3909404754638672,0.3200180053710938
0.3903528213500976,0.3090694427490234
0.3903528213500976,0.3090694427490234
0.3970819473266601,0.3192077636718750
0.3970819473266601,0.3192077636718750
0.3861402511596679,0.3092823028564453
0.3861402511596679,0.3092823028564453
0.3964839935302734,0.3130371093750000
0.3964839935302734,0.3130371093750000
0.3894927978515625,0.3176633834838867
0.3894927978515625,0.3176633834838867
0.3898601531982422,0.3083450317382813
0.3898601531982422,0.3083450317382813
0.3975734710693359,0.3199607849121094
0.3975734710693359,0.3199607849121094
0.3876708984375000,0.3113027572631836
0.3876708984375000,0.3113027572631836
0.3990840911865234,0.3163232803344727
0.3990840911865234,0.3163232803344727
0.3921072006225586,0.3214187622070312
0.3921072006225586,0.3214187622070312
0.3931583404541015,0.3130594253540039
0.3931583404541015,0.3130594253540039
0.4010873794555664,0.3260890960693359
0.4010873794555664,0.3260890960693359
0.3919441223144531,0.3178035736083984
0.3919441223144531,0.3178035736083984
0.4038002014160156,0.3240022659301758
0.4038002014160156,0.3240022659301758
0.3968851089477539,0.3293329238891601
0.3968851089477539,0.3293329238891601
0.3981513977050781,0.3214479446411133
0.3981513977050781,0.3214479446411133
0.4061994552612305,0.3334945678710937
0.4061994552612305,0.3334945678710937
0.3960308074951172,0.3242855072021484
0.3960308074951172,0.3242855072021484
0.4071424484252930,0.3293003082275390
0.4071424484252930,0.3293003082275390
0.4000837326049805,0.3340970993041992
0.4000837326049805,0.3340970993041992
0.4004676818847656,0.3243873596191406
0.4004676818847656,0.3243873596191406
0.4079183578491211,0.3357587814331054
0.4079183578491211,0.3357587814331054
0.3971294403076172,0.3258659362792969
0.3971294403076172,0.3258659362792969
0.4083486557006836,0.3305837631225586
0.4083486557006836,0.3305837631225586
0.4009002685546875,0.3352529525756836
0.4009002685546875,0.3352529525756836
0.4015090942382812,0.3256021499633789
0.4015090942382812,0.3256021499633789
0.4092527389526367,0.3377105712890625
0.4092527389526367,0.3377105712890625
0.3987419128417969,0.3282371520996094
0.3987419128417969,0.3282371520996094
0.4096229553222656,0.3319770812988281
0.4096229553222656,0.3319770812988281
0.4018844604492187,0.3360013961791992
0.4018844604492187,0.3360013961791992
0.4017585754394531,0.3251352310180664
0.3964794158935547,0.3251352310180664
0.4088069915771484,0.3362148284912109
0.4088069915771484,0.3362148284912109
0.3972793579101562,0.3243816375732422
0.3972793579101562,0.3243816375732422
0.4067768096923828,0.3260776519775391
0.4067768096923828,0.3260776519775391
0.3971517562866211,0.3272346496582031
0.3971517562866211,0.3272346496582031
0.3953041076660156,0.3142822265625000
0.3953041076660156,0.3142822265625000
0.4002416610717773,0.3218816757202148
0.4002416610717773,0.3218816757202148
0.3874259948730469,0.3085527420043945
0.3874259948730469,0.3085527420043945
0.3964124679565429,0.3102064132690430
0.3964124679565429,0.3102064132690430
0.3878814697265625,0.3135532379150390
0.3963867187500000,0.3135532379150390
0.3875341415405273,0.3027654647827148
0.3875341415405273,0.3027654647827148
0.3947164535522461,0.3137163162231445
0.3947164535522461,0.3137163162231445
0.3838565826416016,0.3036123275756836
0.3838565826416016,0.3036123275756836
0.3946134567260742,0.3079273223876953
0.3946134567260742,0.3079273223876953
0.3871461868286133,0.3123172760009765
0.3871461868286133,0.3123172760009765
0.3878036499023437,0.3029537200927734
0.3878036499023437,0.3029537200927734
0.3955375671386719,0.3147411346435547
0.3955375671386719,0.3147411346435547
0.3854232788085937,0.3062301635742187
0.3854232788085937,0.3062301635742187
0.3968753814697266,0.3111230850219727
0.3968753814697266,0.3111230850219727
0.3899488449096680,0.3167009353637695
0.3899488449096680,0.3167009353637695
0.3909988403320312,0.3081659317016601
0.3909988403320312,0.3081659317016601
0.3991355895996094,0.3212831497192383
0.3962951660156250,0.3212831497192383
0.3895030975341797,0.3126108169555664
0.3895030975341797,0.3126108169555664
0.4013242721557617,0.3183357238769531
0.4013242721557617,0.3183357238769531
0.3945287704467773,0.3242889404296875
0.3945287704467773,0.3242889404296875
0.3959020614624023,0.3163724899291992
0.3959020614624023,0.3163724899291992
0.4041990280151367,0.3293100357055664
0.4041990280151367,0.3293100357055664
0.3944675445556641,0.3206045150756836
0.3944675445556641,0.3206045150756836
0.4059722900390625,0.3263128280639648
0.4059722900390625,0.3263128280639648
0.3990823745727539,0.3322774887084961
0.3990823745727539,0.3322774887084961
0.4003332138061523,0.3240142822265625
0.4003332138061523,0.3240142822265625
0.4089792251586914,0.3370828628540039
0.4089792251586914,0.3370828628540039
0.3991218566894531,0.3283567428588867
0.3991218566894531,0.3283567428588867
0.4108091354370117,0.3346109390258789
0.4108091354370117,0.3346109390258789
0.4040416717529297,0.3401670455932617
0.4040416717529297,0.3401670455932617
0.4053663253784179,0.3320400238037109
0.4053663253784179,0.3320400238037109
0.4133371353149414,0.3446628570556641
0.4133371353149414,0.3446628570556641
0.4037212371826172,0.3365610122680664
0.4037212371826172,0.3365610122680664
0.4152786254882813,0.3421216964721679
0.4152786254882813,0.3421216964721679
0.4086519241333008,0.3480463027954102
0.4086519241333008,0.3480463027954102
0.4098690032958984,0.3396909713745117
0.4098690032958984,0.3396909713745117
0.4175050735473633,0.3514017105102539
0.4175050735473633,0.3514017105102539
0.4058538436889648,0.3387296676635742
0.4058538436889648,0.3387296676635742
0.4136209487915039,0.3379274368286133
0.4136209487915039,0.3379274368286133
0.4024749755859375,0.3364974975585938
0.4024749755859375,0.3364974975585938
0.3998136520385742,0.3224447250366211
0.3998136520385742,0.3224447250366211
0.4045915603637695,0.3300407409667969
0.4045915603637695,0.3300407409667969
0.3927080154418945,0.3177320480346680
0.3927080154418945,0.3177320480346680
0.4018192291259766,0.3199865341186524
0.4018192291259766,0.3199865341186524
0.3936756134033203,0.3236314773559570
0.3936756134033203,0.3236314773559570
0.3939685821533203,0.3136493682861328
0.3939685821533203,0.3136493682861328
0.4010702133178711,0.3247449874877930
0.4010702133178711,0.3247449874877930
0.3907745361328125,0.3151691436767578
0.3907745361328125,0.3151691436767578
0.4014673233032227,0.3203104019165039
0.4014673233032227,0.3203104019165039
0.3939107894897461,0.3238151550292969
0.3939107894897461,0.3238151550292969
0.3966773986816406,0.3172193527221679
0.3966773986816406,0.3172193527221679
0.4026449203491211,0.3282823562622070
0.4026449203491211,0.3282823562622070
0.3944263458251953,0.3199035644531250
0.3944263458251953,0.3199035644531250
0.4053394317626953,0.3263025283813477
0.4053394317626953,0.3263025283813477
0.3979213714599609,0.3295761108398437
0.3979213714599609,0.3295761108398437
0.4006444931030274,0.3231010437011719
0.4006444931030274,0.3231010437011719
0.4068889617919922,0.3346349716186524
0.4068889617919922,0.3346349716186524
0.3980386734008789,0.3254819869995117
0.3980386734008789,0.3254819869995117
0.4088293075561523,0.3302146911621094
0.4088293075561523,0.3302146911621094
0.4013711929321289,0.3342956542968750
0.4013711929321289,0.3342956542968750
0.4017333984375000,0.3249618530273438
0.4017333984375000,0.3249618530273438
0.4087417602539062,0.3357067108154297
0.4087417602539062,0.3357067108154297
0.3981988906860351,0.3254316329956055
0.3981988906860351,0.3254316329956055
0.4081809997558594,0.3290903091430664
0.4081809997558594,0.3290903091430664
0.4004636764526367,0.3329681396484375
0.4004636764526367,0.3329681396484375
0.4005340576171875,0.3230913162231445
0.4005340576171875,0.3230913162231445
0.4075796127319336,0.3342521667480469
0.4042722702026367,0.3342521667480469
0.3971935272216797,0.3243621826171875
0.3971935272216797,0.3243621826171875
0.3982458114624023,0.3241241455078125
0.3982458114624023,0.3241241455078125
0.4106615066528320,0.3347522735595703
0.4014724731445312,0.3347522735595703
0.3978887557983398,0.3319519042968750
0.3978887557983398,0.3319519042968750
0.4064620971679687,0.3298353195190429
0.4064620971679687,0.3298353195190429
0.4078657150268555,0.3403793334960937
0.4078657150268555,0.3403793334960937
0.4025619506835937,0.3296253204345703
0.4025619506835937,0.3296253204345703
0.4127849578857422,0.3393316268920898
0.4127849578857422,0.3393316268920898
0.4001306533813476,0.3359252929687500
0.4001306533813476,0.3359252929687500
0.4074302673339844,0.3294124603271484
0.4074302673339844,0.3294124603271484
0.4058738708496094,0.3339385986328125
0.4058738708496094,0.3339385986328125
0.3949842453002930,0.3160818099975586
0.3949842453002930,0.3160818099975586
0.4026615142822266,0.3228647232055664
0.4026615142822266,0.3228647232055664
0.3881984710693359,0.3165653228759766
0.3881984710693359,0.3165653228759766
0.3967609405517578,0.3107992172241211
0.3967609405517578,0.3107992172241211
0.3947645187377929,0.3181079864501953
0.3947645187377929,0.3181079864501953
0.3874116897583008,0.3054347991943359
0.3874116897583008,0.3054347991943359
0.3976003646850586,0.3151599884033203
0.3976003646850586,0.3151599884033203
0.3860000610351562,0.3114120483398438
0.3860000610351562,0.3114120483398438
0.3935806274414063,0.3069494247436523
0.3935806274414063,0.3069494247436523
0.3939050674438476,0.3170150756835937
0.3939050674438476,0.3170150756835937
0.3870220184326172,0.3049335479736328
0.3870220184326172,0.3049335479736328
0.3991218566894531,0.3153596878051758
0.3991218566894531,0.3153596878051758
0.3856859207153320,0.3116077423095703
0.3856859207153320,0.3116077423095703
0.3947027206420898,0.3090991973876953
0.3947027206420898,0.3090991973876953
0.3954265594482422,0.3194257736206055
0.3954265594482422,0.3194257736206055
0.3899631500244141,0.3079593658447266
0.3899631500244141,0.3079593658447266
0.4005437850952148,0.3185285568237304
0.4005437850952148,0.3185285568237304
0.3885234832763672,0.3166168212890625
0.3885234832763672,0.3166168212890625
0.3977628707885742,0.3140127182006836
0.3977628707885742,0.3140127182006836
0.3997764587402344,0.3245962142944336
0.3997764587402344,0.3245962142944336
0.3921890258789062,0.3123487472534179
0.3921890258789062,0.3123487472534179
0.4037349700927734,0.3238466262817383
0.4037349700927734,0.3238466262817383
0.3915441513061523,0.3211841583251953
0.3915441513061523,0.3211841583251953
0.4015445709228516,0.3177927017211914
0.4015445709228516,0.3177927017211914
0.4012241363525391,0.3276208877563476
0.4012241363525391,0.3276208877563476
0.3944103240966797,0.3163049697875976
0.3944103240966797,0.3163049697875976
0.4057983398437500,0.3272243499755859
0.4057983398437500,0.3272243499755859
0.3946105957031250,0.3244955062866211
0.3946105957031250,0.3244955062866211
0.4025653839111328,0.3205987930297852
0.4025653839111328,0.3205987930297852
0.4032588958740234,0.3316497802734375
0.4032588958740234,0.3316497802734375
0.3963924407958984,0.3194538116455078
0.3963924407958984,0.3194538116455078
0.4087972640991211,0.3302907943725586
0.4087972640991211,0.3302907943725586
0.3953264236450195,0.3265251159667968
0.3953264236450195,0.3265251159667968
0.4040622711181641,0.3237653732299804
0.4040622711181641,0.3237653732299804
0.4047998428344726,0.3340684890747070
0.4047998428344726,0.3340684890747070
0.3991521835327148,0.3223566055297851
0.3991521835327148,0.3223566055297851
0.4093946456909179,0.3323867797851562
0.4093946456909179,0.3323867797851562
0.3965709686279297,0.3296339035034180
0.3965709686279297,0.3296339035034180
0.4048593521118164,0.3250282287597656
0.4048593521118164,0.3250282287597656
0.4054006576538086,0.3327049255371093
0.4054006576538086,0.3327049255371093
0.3944812774658203,0.3148773193359375
0.3944812774658203,0.3148773193359375
0.4024549484252929,0.3211549758911132
0.4024549484252929,0.3211549758911132
0.3871576309204102,0.3143285751342773
0.3871576309204102,0.3143285751342773
0.3954053878784179,0.3082351684570312
0.3954053878784179,0.3082351684570312
0.3937677383422851,0.3162998199462890
0.3937677383422851,0.3162998199462890
0.3864303588867187,0.3042057037353516
0.3864303588867187,0.3042057037353516
0.3975728988647461,0.3147914886474609
0.3975728988647461,0.3147914886474609
0.3863101959228515,0.3119556427001953
0.3863101959228515,0.3119556427001953
0.3942541122436523,0.3082798004150391
0.3942541122436523,0.3082798004150391
0.3953012466430664,0.3199779510498047
0.3953012466430664,0.3199779510498047
0.3891815185546875,0.3092067718505859
0.3891815185546875,0.3092067718505859
0.4024772644042969,0.3214056015014649
0.4024772644042969,0.3214056015014649
0.3900358200073242,0.3193931579589844
0.3900358200073242,0.3193931579589844
0.4000459671020508,0.3185194015502930
0.4000459671020508,0.3185194015502930
0.4019016265869140,0.3306884765625000
0.4019016265869140,0.3306884765625000
0.3975728988647461,0.3208236694335938
0.3975728988647461,0.3208236694335938
0.4086387634277344,0.3325933456420898
0.4086387634277344,0.3325933456420898
0.3972908020019531,0.3319753646850586
0.3972908020019531,0.3319753646850586
0.4072299957275390,0.3303583145141601
0.4072299957275390,0.3303583145141601
0.4099021911621094,0.3418991088867188
0.4099021911621094,0.3418991088867188
0.4027061462402344,0.3308132171630859
0.4027061462402344,0.3308132171630859
0.4147882461547852,0.3434028625488281
0.4147882461547852,0.3434028625488281
0.4031953811645508,0.3414859771728516
0.4031953811645508,0.3414859771728516
0.4136907577514649,0.3392108917236328
0.4136907577514649,0.3392108917236328
0.4135665893554688,0.3495552062988281
0.4135665893554688,0.3495552062988281
0.4077192306518554,0.3401006698608398
0.4077192306518554,0.3401006698608398
0.4197412490844726,0.3522199630737304
0.4197412490844726,0.3522199630737304
0.4095937728881836,0.3504232406616211
0.4095937728881836,0.3504232406616211
0.4178449630737305,0.3477870941162109
0.4178449630737305,0.3477870941162109
0.4189819335937500,0.3600568771362305
0.4189819335937500,0.3600568771362305
0.4136672973632812,0.3505479812622070
0.4136672973632812,0.3505479812622070
0.4270231246948242,0.3629539489746094
0.4270231246948242,0.3629539489746094
0.4151304244995117,0.3602560043334961
0.4151304244995117,0.3602560043334961
0.4252435684204102,0.3610090255737304
0.4252435684204102,0.3610090255737304
0.4247875213623047,0.3704904556274414
0.4247875213623047,0.3704904556274414
0.4207895278930664,0.3582658767700195
0.4207895278930664,0.3582658767700195
0.4268583297729492,0.3620241165161133
0.4268583297729492,0.3620241165161133
0.4096853256225586,0.3477567672729492
0.4096853256225586,0.3477567672729492
0.4116319656372070,0.3345439910888672
0.4116319656372070,0.3345439910888672
0.4060655593872070,0.3344163894653320
0.4060655593872070,0.3344163894653320
0.3955936431884766,0.3167558670043945
0.3955936431884766,0.3167558670043945
0.4029836654663086,0.3237487792968750
0.4029836654663086,0.3237487792968750
0.3894207000732422,0.3166986465454101
0.3894207000732422,0.3166986465454101
0.3982904434204101,0.3128276824951172
0.3982904434204101,0.3128276824951172
0.3949550628662109,0.3192197799682617
0.3949550628662109,0.3192197799682617
0.3893869400024414,0.3080062866210938
0.3893869400024414,0.3080062866210938
0.3991619110107422,0.3170534133911133
0.3991619110107422,0.3170534133911133
0.3878179550170898,0.3136573791503906
0.3878179550170898,0.3136573791503906
0.3952171325683594,0.3092565536499023
0.3952171325683594,0.3092565536499023
0.3958568572998047,0.3200860977172851
0.3958568572998047,0.3200860977172851
0.3891700744628906,0.3087581634521484
0.3891700744628906,0.3087581634521484
0.4018501281738281,0.3198017120361328
0.4018501281738281,0.3198017120361328
0.3888484954833984,0.3170585632324219
0.3888484954833984,0.3170585632324219
0.3980260848999023,0.3151617050170898
0.3980260848999023,0.3151617050170898
0.3995801925659180,0.3265050888061523
0.3995801925659180,0.3265050888061523
0.3943765640258789,0.3159673690795898
0.3943765640258789,0.3159673690795898
0.4049365997314453,0.3263088226318359
0.4049365997314453,0.3263088226318359
0.3935743331909179,0.3252336502075195
0.3935743331909179,0.3252336502075195
0.4024629592895508,0.3221059799194336
0.4024629592895508,0.3221059799194336
0.4046487808227539,0.3323564529418945
0.4046487808227539,0.3323564529418945
0.3968427658081055,0.3201765060424804
0.3968427658081055,0.3201765060424804
0.4082513809204101,0.3317476272583008
0.4082513809204101,0.3317476272583008
0.3960451126098632,0.3290702819824219
0.3960451126098632,0.3290702819824219
0.4063190460205078,0.3258029937744141
0.4063190460205078,0.3258029937744141
0.4058435440063476,0.3351179122924804
0.4058435440063476,0.3351179122924804
0.3992809295654297,0.3245018005371094
0.3992809295654297,0.3245018005371094
0.4108005523681640,0.3359292984008789
0.4108005523681640,0.3359292984008789
0.3999011993408203,0.3337177276611328
0.3999011993408203,0.3337177276611328
0.4080883026123047,0.3301963806152344
0.4080883026123047,0.3301963806152344
0.4090822219848633,0.3414310455322265
0.4090822219848633,0.3414310455322265
0.4026157379150391,0.3302478790283203
0.4026157379150391,0.3302478790283203
0.4155893325805664,0.3416759490966797
0.4155893325805664,0.3416759490966797
0.4023679733276367,0.3383234024047851
0.4023679733276367,0.3383234024047851
0.4113510131835937,0.3355093002319336
0.4113510131835937,0.3355093002319336
0.4109596252441406,0.3432735443115234
0.4109596252441406,0.3432735443115234
0.4019502639770507,0.3249000549316406
0.4019502639770507,0.3249000549316406
0.4072826385498047,0.3275516510009766
0.4072826385498047,0.3275516510009766
0.3906332015991211,0.3187042236328125
0.3906332015991211,0.3187042236328125
0.3960926055908203,0.3102069854736328
0.3960926055908203,0.3102069854736328
0.3953475952148438,0.3167209625244141
0.3953475952148438,0.3167209625244141
0.3855789184570312,0.3013996124267578
0.3855789184570312,0.3013996124267578
0.3955289840698242,0.3108364105224609
0.3955289840698242,0.3108364105224609
0.3822498321533203,0.3064258575439453
0.3822498321533203,0.3064258575439453
0.3916889190673828,0.3020513534545898
0.3916889190673828,0.3020513534545898
0.3907791137695312,0.3108335494995117
0.3907791137695312,0.3108335494995117
0.3835601806640625,0.2991926193237305
0.3835601806640625,0.2991926193237305
0.3950265884399414,0.3099763870239258
0.3950265884399414,0.3099763870239258
0.3838972091674804,0.3074123382568359
0.3838972091674804,0.3074123382568359
0.3919355392456055,0.3036180496215820
0.3919355392456055,0.3036180496215820
0.3930942535400391,0.3152240753173828
0.3930942535400391,0.3152240753173828
0.3867044448852539,0.3041112899780273
0.3867044448852539,0.3041112899780273
0.3997724533081055,0.3159599304199219
0.3997724533081055,0.3159599304199219
0.3870603561401367,0.3137340545654297
0.3870603561401367,0.3137340545654297
0.3965658187866211,0.3117439270019531
0.3965658187866211,0.3117439270019531
0.3979848861694336,0.3229053497314453
0.3979848861694336,0.3229053497314453
0.3926330566406250,0.3116701126098633
0.3926330566406250,0.3116701126098633
0.4032091140747070,0.3222530364990234
0.4032091140747070,0.3222530364990234
0.3911212921142578,0.3205930709838867
0.3911212921142578,0.3205930709838867
0.4003435134887695,0.3173149108886719
0.4003435134887695,0.3173149108886719
0.4024417877197266,0.3281129837036132
0.4024417877197266,0.3281129837036132
0.3944074630737305,0.3156360626220703
0.3973108291625976,0.3279848098754883
0.4058383941650390,0.3271677017211914
0.3974618911743164,0.3271677017211914
0.3935102462768554,0.3244039535522461
0.3935102462768554,0.3244039535522461
0.4035055160522461,0.3207286834716797
0.3940126419067383,0.3207286834716797
0.4030271530151367,0.3300149917602539
0.4030271530151367,0.3300149917602539
0.3959255218505859,0.3187025070190430
0.3959255218505859,0.3187025070190430
0.4074445724487304,0.3296831130981445
0.4074445724487304,0.3296831130981445
0.3962968826293945,0.3270578384399414
0.3962968826293945,0.3270578384399414
0.4042613983154297,0.3231210708618164
0.4042613983154297,0.3231210708618164
0.4053348541259765,0.3346858978271484
0.4053348541259765,0.3346858978271484
0.3986600875854492,0.3234689712524414
0.3986600875854492,0.3234689712524414
0.4117395401000977,0.3349863052368164
0.4117395401000977,0.3349863052368164
0.3984798431396484,0.3322357177734375
0.3984798431396484,0.3322357177734375
0.4075000762939453,0.3292282104492187
0.4075000762939453,0.3292282104492187
0.4071298599243164,0.3366863250732422
0.4071298599243164,0.3366863250732422
0.3974533081054688,0.3180250167846679
0.3974533081054688,0.3180250167846679
0.4035490036010742,0.3221849441528320
0.4035490036010742,0.3221849441528320
0.3880840301513672,0.3154890060424805
0.3880840301513672,0.3154890060424805
0.3946603775024414,0.3088005065917969
0.3946603775024414,0.3088005065917969
0.3951868057250976,0.3171712875366211
0.3951868057250976,0.3171712875366211
0.3861351013183594,0.3031562805175781
0.3861351013183594,0.3031562805175781
0.3966493606567383,0.3133123397827148
0.3966493606567383,0.3133123397827148
0.3840345382690429,0.3099534988403320
0.3840345382690429,0.3099534988403320
0.3935159683227539,0.3059423446655273
0.3935159683227539,0.3059423446655273
0.3932682037353515,0.3156011581420898
0.3932682037353515,0.3156011581420898
0.3864349365234375,0.3047189712524414
0.3864349365234375,0.3047189712524414
0.3981462478637695,0.3158695220947266
0.3981462478637695,0.3158695220947266
0.3875118255615234,0.3138364791870117
0.3875118255615234,0.3138364791870117
0.3956691741943359,0.3106584548950195
0.3956691741943359,0.3106584548950195
0.3972375869750976,0.3229024887084961
0.3972375869750976,0.3229024887084961
0.3913908004760742,0.3128173828125000
0.3913908004760742,0.3128173828125000
0.4045549392700195,0.3246030807495117
0.4045549392700195,0.3246030807495117
0.3921152114868164,0.3226175308227539
0.3921152114868164,0.3226175308227539
0.4016761779785156,0.3211692810058593
0.4016761779785156,0.3211692810058593
0.4033464431762695,0.3329206466674804
0.4033464431762695,0.3329206466674804
0.3987373352050781,0.3228801727294922
0.3987373352050781,0.3228801727294922
0.4096126556396484,0.3337291717529297
0.4096126556396484,0.3337291717529297
0.3981840133666992,0.3326076507568359
0.3981840133666992,0.3326076507568359
0.4073799133300781,0.3298238754272461
0.4073799133300781,0.3298238754272461
0.4097671508789062,0.3404748916625976
0.4097671508789062,0.3404748916625976
0.4018896102905273,0.3281187057495117
0.4018896102905273,0.3281187057495117
0.4130121231079101,0.3390472412109375
0.4130121231079101,0.3390472412109375
0.4008350372314453,0.3359888076782226
0.4008350372314453,0.3359888076782226
0.4102735519409180,0.3317790985107422
0.4102735519409180,0.3317790985107422
0.4096681594848633,0.3406259536743164
0.4096681594848633,0.3406259536743164
0.4022100448608398,0.3286886215209961
0.4022100448608398,0.3286886215209961
0.4132266998291015,0.3386735916137695
0.4132266998291015,0.3386735916137695
0.4018804550170899,0.3356678009033203
0.4018804550170899,0.3356678009033203
0.4091028213500976,0.3310106277465820
0.4091028213500976,0.3310106277465820
0.4097894668579101,0.3413560867309570
0.4097894668579101,0.3413560867309570
0.4022987365722656,0.3287801742553711
0.4022987365722656,0.3287801742553711
0.4135316848754882,0.3369644165039062
0.4135316848754882,0.3369644165039062
0.3975070953369140,0.3292842864990234
0.3975070953369140,0.3292842864990234
0.4026208877563476,0.3207881927490234
0.3926982879638672,0.3207881927490234
0.4001438140869141,0.3260942459106445
0.4001438140869141,0.3260942459106445
0.3915367126464844,0.3102876663208008
0.3915367126464844,0.3102876663208008
0.3996156692504882,0.3168960571289062
0.3996156692504882,0.3168960571289062
0.3858146667480469,0.3128986358642578
0.3858146667480469,0.3128986358642578
0.3933151245117187,0.3075857162475586
0.3933151245117187,0.3075857162475586
0.3946340560913086,0.3167026519775391
0.3946340560913086,0.3167026519775391
0.3859514236450195,0.3034641265869141
0.3859514236450195,0.3034641265869141
0.3970127105712891,0.3140539169311523
0.3970127105712891,0.3140539169311523
0.3847028732299805,0.3114498138427734
0.3847028732299805,0.3114498138427734
0.3943313598632812,0.3074981689453125
0.3943313598632812,0.3074981689453125
0.3944017410278320,0.3173910140991211
0.3944017410278320,0.3173910140991211
0.3877767562866211,0.3068206787109375
0.3877767562866211,0.3068206787109375
0.3996339797973633,0.3180438995361328
0.3996339797973633,0.3180438995361328
0.3888399124145508,0.3163215637207031
0.3888399124145508,0.3163215637207031
0.3969297409057617,0.3129077911376953
0.3969297409057617,0.3129077911376953
0.3987945556640625,0.3250608444213867
0.3987945556640625,0.3250608444213867
0.3925792694091797,0.3145048141479492
0.3925792694091797,0.3145048141479492
0.4058012008666992,0.3255626678466797
0.4058012008666992,0.3255626678466797
0.3923223495483398,0.3227142333984375
0.3923223495483398,0.3227142333984375
0.4010793685913086,0.3195528030395507
0.4010793685913086,0.3195528030395507
0.4022787094116211,0.3298707962036133
0.4022787094116211,0.3298707962036133
0.3963523864746094,0.3178579330444336
0.3963523864746094,0.3178579330444336
0.4064472198486328,0.3275270462036133
0.4064472198486328,0.3275270462036133
0.3941390991210937,0.3260547637939453
0.3941390991210937,0.3260547637939453
0.4027793884277344,0.3222558975219726
0.4027793884277344,0.3222558975219726
0.4054327011108398,0.3335391998291016
0.4054327011108398,0.3335391998291016
0.3975683212280273,0.3216854095458984
0.3975683212280273,0.3216854095458984
0.4098363876342773,0.3340764999389648
0.4098363876342773,0.3340764999389648
0.3986211776733398,0.3334413528442383
0.3986211776733398,0.3334413528442383
0.4093666076660156,0.3311273574829102
0.4093666076660156,0.3311273574829102
0.4103473663330078,0.3427831649780274
0.4103473663330078,0.3427831649780274
0.4041069030761719,0.3330871582031250
0.4041069030761719,0.3330871582031250
0.4166255950927734,0.3449964523315430
0.4166255950927734,0.3449964523315430
0.4062103271484375,0.3439401626586914
0.4062103271484375,0.3439401626586914
0.4142807006835937,0.3402946472167969
0.4142807006835937,0.3402946472167969
0.4160951614379882,0.3523870468139648
0.4160951614379882,0.3523870468139648
0.4087932586669922,0.3407867431640625
0.4087932586669922,0.3407867431640625
0.4216724395751953,0.3506984710693359
0.4216724395751953,0.3506984710693359
0.4061708450317383,0.3430555343627930
0.4061708450317383,0.3430555343627930
0.4088218688964844,0.3291904449462891
0.4088218688964844,0.3291904449462891
0.4039684295654297,0.3304544448852539
0.4039684295654297,0.3304544448852539
0.3931926727294922,0.3119401931762695
0.3931926727294922,0.3119401931762695
0.4001918792724609,0.3166282653808594
0.4001918792724609,0.3166282653808594
0.3855033874511719,0.3117782592773438
0.3855033874511719,0.3117782592773438
0.3925815582275390,0.3056940078735351
0.3925815582275390,0.3056940078735351
0.3941116333007812,0.3151983261108398
0.3941116333007812,0.3151983261108398
0.3849512100219726,0.3018304824829102
0.3849512100219726,0.3018304824829102
0.3964027404785156,0.3125141143798828
0.3964027404785156,0.3125141143798828
0.3839567184448242,0.3103025436401367
0.3839567184448242,0.3103025436401367
0.3936527252197266,0.3063131332397461
0.3936527252197266,0.3063131332397461
0.3940658569335938,0.3166168212890625
0.3940658569335938,0.3166168212890625
0.3868045806884766,0.3055034637451172
0.3868045806884766,0.3055034637451172
0.3903774261474609,0.3072326660156250
0.3903774261474609,0.3073413848876953
0.3992506027221679,0.3196455001831054
0.3992506027221679,0.3196455001831054
0.3882087707519531,0.3111591339111328
0.3882087707519531,0.3111591339111328
0.4000688552856445,0.3155055999755859
0.4000688552856445,0.3155055999755859
0.3934198379516601,0.3213644027709961
0.3934198379516601,0.3213644027709961
0.3934667587280273,0.3122085571289062
0.3934667587280273,0.3122085571289062
0.4021568298339844,0.3245121002197265
0.4021568298339844,0.3245121002197265
0.3914394378662109,0.3167186737060547
0.3914394378662109,0.3167186737060547
0.4036376953125000,0.3213581085205078
0.4036376953125000,0.3213581085205078
0.3973457336425781,0.3279991149902344
0.3973457336425781,0.3279991149902344
0.3978492736816406,0.3195487976074219
0.3978492736816406,0.3195487976074219
0.4070428848266601,0.3329092025756836
0.4070428848266601,0.3329092025756836
0.3968719482421875,0.3255163192749023
0.3968719482421875,0.3255163192749023
0.4096138000488281,0.3309608459472656
0.4096138000488281,0.3309608459472656
0.4034975051879883,0.3379343032836914
0.4034975051879883,0.3379343032836914
0.4043346405029297,0.3302124023437500
0.4043346405029297,0.3302124023437500
0.4137067794799805,0.3436534881591797
0.4137067794799805,0.3436534881591797
0.4036319732666016,0.3363767623901367
0.4036319732666016,0.3363767623901367
0.4160923004150390,0.3420833587646484
0.4160923004150390,0.3420833587646484
0.4104921340942383,0.3499156951904297
0.4104921340942383,0.3499156951904297
0.4114637374877930,0.3419832229614257
0.4114637374877930,0.3419832229614257
0.4210149765014649,0.3558746337890625
0.4210149765014649,0.3558746337890625
0.4111021041870117,0.3487386703491211
0.4111021041870117,0.3487386703491211
0.4236671447753906,0.3547897338867188
0.4236671447753906,0.3547897338867188
0.4176956176757812,0.3609621047973633
0.4176956176757812,0.3609621047973633
0.4152374267578125,0.3458650588989258
0.4152374267578125,0.3458650588989258
0.4177722930908203,0.3474832534790039
0.4177722930908203,0.3474832534790039
0.4003669738769531,0.3287658691406250
0.4003669738769531,0.3287658691406250
0.4066452026367187,0.3251501083374023
0.4066452026367187,0.3251501083374023
0.3965503692626953,0.3259254455566406
0.3965503692626953,0.3259254455566406
0.3939491271972656,0.3132167816162109
0.3939491271972656,0.3132167816162109
0.4010530471801758,0.3233905792236328
0.4010530471801758,0.3233905792236328
0.3900060653686523,0.3133707046508789
0.3900060653686523,0.3133707046508789
0.4004665374755859,0.3172662734985351
0.4004665374755859,0.3172662734985351
0.3926925659179688,0.3211143493652344
0.3926925659179688,0.3211143493652344
0.3939949035644531,0.3130960464477539
0.3939949035644531,0.3130960464477539
0.4012653350830078,0.3243404388427734
0.4012653350830078,0.3243404388427734
0.3916625976562500,0.3159456253051758
0.3916625976562500,0.3159456253051758
0.4027936935424805,0.3208436965942383
0.4027936935424805,0.3208436965942383
0.3958059310913086,0.3260147094726563
0.3958059310913086,0.3260147094726563
0.3975791931152344,0.3186395645141601
0.3975791931152344,0.3186395645141601
0.4053308486938477,0.3306255340576172
0.4053308486938477,0.3306255340576172
0.3959169387817383,0.3227188110351563
0.3959169387817383,0.3227188110351563
0.4072368621826172,0.3278984069824218
0.4072368621826172,0.3278984069824218
0.4098106384277344,0.3329097747802734
0.4098106384277344,0.3329097747802734
0.4098106384277344,0.3327701568603516
0.3972867965698242,0.3290599822998047
0.3972867965698242,0.3290599822998047
0.4056575775146484,0.3268941879272461
0.4056575775146484,0.3268941879272461
0.4054979324340820,0.3358228683471680
0.4054979324340820,0.3358228683471680
0.4000476837158203,0.3242145538330078
0.4000476837158203,0.3242145538330078
0.4089517593383789,0.3327598571777344
0.4012475967407226,0.3327598571777344
0.3969297409057617,0.3292619705200195
0.3969297409057617,0.3292619705200195
0.4052564620971680,0.3263591766357422
0.4052564620971680,0.3263591766357422
0.4070245742797852,0.3358858108520508
0.4070245742797852,0.3358858108520508
0.3977937698364258,0.3229259490966797
0.3977937698364258,0.3229259490966797
0.4093574523925781,0.3332233428955078
0.4093574523925781,0.3332233428955078
0.3972084045410156,0.3314535140991211
0.3972084045410156,0.3314535140991211
0.4062715530395508,0.3269525527954101
0.4062715530395508,0.3269525527954101
0.4071310043334961,0.3372877120971680
0.4071310043334961,0.3372877120971680
0.3995195388793945,0.3268724441528320
0.3995195388793945,0.3268724441528320
0.4118282318115234,0.3376115798950195
0.4118282318115234,0.3376115798950195
0.4017208099365234,0.3373781204223633
0.4017208099365234,0.3373781204223633
0.4095605850219726,0.3337589263916015
0.4095605850219726,0.3337589263916015
0.4120290756225586,0.3465396881103516
0.4120290756225586,0.3465396881103516
0.4053852081298828,0.3360540390014649
0.4053852081298828,0.3360540390014649
0.4176876068115234,0.3436769485473632
0.4176876068115234,0.3436769485473632
0.3999755859375000,0.3335815429687500
0.3999755859375000,0.3335815429687500
0.4035621643066406,0.3235359191894531
0.4035621643066406,0.3235359191894531
0.4020011901855469,0.3294376373291015
0.4020011901855469,0.3294376373291015
0.3932235717773437,0.3141511917114257
0.3932235717773437,0.3141511917114257
0.4019010543823242,0.3210330963134765
0.4019010543823242,0.3210330963134765
0.3884817123413086,0.3180822372436523
0.3884817123413086,0.3180822372436523
0.3959272384643555,0.3127784729003906
0.3959272384643555,0.3127784729003906
0.3985450744628906,0.3227869033813476
0.3985450744628906,0.3227869033813476
0.3890190124511719,0.3097091674804687
0.3890190124511719,0.3097091674804687
0.4007165908813476,0.3201450347900390
0.4007165908813476,0.3201450347900390
0.3886190414428711,0.3184329986572266
0.3886190414428711,0.3184329986572266
0.3982566833496093,0.3145717620849609
0.3982566833496093,0.3145717620849609
0.3994571685791016,0.3258367538452148
0.3994571685791016,0.3258367538452148
0.3922943115234375,0.3158042907714844
0.3922943115234375,0.3158042907714844
0.4051946640014648,0.3273330688476562
0.4051946640014648,0.3273330688476562
0.3953046798706055,0.3272192001342774
0.3953046798706055,0.3272192001342774
0.4034540176391602,0.3241378784179688
0.4034540176391602,0.3241378784179688
0.4065753936767578,0.3379142761230469
0.4065753936767578,0.3379142761230469
0.3997632980346680,0.3273765563964844
0.3997632980346680,0.3273765563964844
0.4135774612426757,0.3387468338012695
0.4135774612426757,0.3387468338012695
0.4010164260864258,0.3372791290283203
0.4010164260864258,0.3372791290283203
0.4094209671020508,0.3338928222656250
0.4094209671020508,0.3338928222656250
0.4117057800292969,0.3454404830932617
0.4117057800292969,0.3454404830932617
0.4048341751098632,0.3334270477294922
0.4048341751098632,0.3334270477294922
0.4153861999511719,0.3425497055053711
0.4153861999511719,0.3425497055053711
0.4032239913940430,0.3410419464111328
0.4032239913940430,0.3410419464111328
0.4109012603759766,0.3358692169189453
0.4109012603759766,0.3358692169189453
0.4137439727783203,0.3461917877197265
0.4137439727783203,0.3461917877197265
0.4040050506591797,0.3328714370727539
0.4040050506591797,0.3328714370727539
0.4154857635498047,0.3430154800415039
0.4154857635498047,0.3430154800415039
0.4033630371093750,0.3410499572753906
0.4033630371093750,0.3410499572753906
0.4124187469482422,0.3364265441894531
0.4124187469482422,0.3364265441894531
0.4132913589477539,0.3470220565795898
0.4132913589477539,0.3470220565795898
0.4053611755371094,0.3359573364257812
0.4053611755371094,0.3359573364257812
0.4174386978149414,0.3461076736450195
0.4174386978149414,0.3461076736450195
0.4062583923339844,0.3436437606811523
0.4062583923339844,0.3436437606811523
0.4106855392456055,0.3338750839233398
0.4106855392456055,0.3338750839233398
0.4083852767944336,0.3385036468505859
0.4083852767944336,0.3385036468505859
0.3957761764526367,0.3198057174682617
0.3957761764526367,0.3198057174682617
0.4050287246704101,0.3241344451904297
0.4050287246704101,0.3241344451904297
0.3886974334716797,0.3178064346313477
0.3886974334716797,0.3178064346313477
0.3944320678710938,0.3108598709106445
0.3944320678710938,0.3108598709106445
0.3953115463256836,0.3202823638916015
0.3953115463256836,0.3202823638916015
0.3874734878540039,0.3069419860839844
0.3874734878540039,0.3069419860839844
0.3975322723388672,0.3153202056884766
0.3975322723388672,0.3153202056884766
0.3852344512939453,0.3140396118164062
0.3852344512939453,0.3140396118164062
0.3930616378784180,0.3092805862426758
0.3930616378784180,0.3092805862426758
0.3965909957885742,0.3206491470336914
0.3965909957885742,0.3206491470336914
0.3871839523315430,0.3080692291259766
0.3871839523315430,0.3080692291259766
0.3994319915771484,0.3191917419433594
0.3994319915771484,0.3191917419433594
0.3880828857421875,0.3187934875488281
0.3880828857421875,0.3187934875488281
0.3978212356567383,0.3149522781372070
0.3978212356567383,0.3149522781372070
0.3995470046997070,0.3266258239746094
0.3995470046997070,0.3266258239746094
0.3919424057006836,0.3162443161010742
0.3919424057006836,0.3162443161010742
0.4043506622314453,0.3272048950195313
0.4043506622314453,0.3272048950195313
0.3942008972167969,0.3265153884887695
0.3942008972167969,0.3265153884887695
0.4011840820312500,0.3219743728637695
0.4011840820312500,0.3219743728637695
0.4041257858276367,0.3352203369140625
0.4041257858276367,0.3352203369140625
0.3967231750488281,0.3244297027587891
0.3967231750488281,0.3244297027587891
0.4109739303588867,0.3361307144165039
0.4109739303588867,0.3361307144165039
0.3990892410278320,0.3358697891235352
0.3990892410278320,0.3358697891235352
0.4082382202148437,0.3341743469238281
0.4082382202148437,0.3341743469238281
0.4117406845092773,0.3476474761962891
0.4117406845092773,0.3476474761962891
0.4062229156494140,0.3375291824340820
0.4062229156494140,0.3375291824340820
0.4177185058593750,0.3485607147216797
0.4177185058593750,0.3485607147216797
0.4071149826049805,0.3493961334228515
0.4071149826049805,0.3493961334228515
0.4157701492309570,0.3462490081787109
0.4157701492309570,0.3462490081787109
0.4202161788940429,0.3588500976562500
0.4202161788940429,0.3588500976562500
0.4114929199218750,0.3476491928100586
0.4114929199218750,0.3476491928100586
0.4240550994873047,0.3595138549804687
0.4240550994873047,0.3595138549804687
0.4136415481567383,0.3587745666503906
0.4136415481567383,0.3587745666503906
0.4237655639648437,0.3568433761596679
0.4237655639648437,0.3568433761596679
0.4232980728149414,0.3664999008178711
0.4232980728149414,0.3664999008178711
0.4169940948486328,0.3562030792236328
0.4169940948486328,0.3562030792236328
0.4273315429687500,0.3645395278930664
0.4273315429687500,0.3645395278930664
0.4151281356811523,0.3569234848022461
0.4151281356811523,0.3569234848022461
0.4170644760131836,0.3442348480224609
0.4170644760131836,0.3442348480224609
0.4111021041870117,0.3447835922241211
0.4111021041870117,0.3447835922241211
0.3993112564086914,0.3259323120117187
0.3993112564086914,0.3259323120117187
0.4075178146362304,0.3300424575805664
0.4075178146362304,0.3300424575805664
0.3920316696166992,0.3225700378417969
0.3920316696166992,0.3225700378417969
0.3981891632080078,0.3176118850708008
0.3981891632080078,0.3176118850708008
0.3975025177001953,0.3259426116943359
0.3975025177001953,0.3259426116943359
0.3915693283081055,0.3135852813720703
0.3915693283081055,0.3135852813720703
0.4002845764160156,0.3219303131103515
0.4002845764160156,0.3219303131103515
0.3889417648315430,0.3192667007446289
0.3889417648315430,0.3192667007446289
0.3962848663330078,0.3154031753540039
0.3962848663330078,0.3154031753540039
0.3995412826538086,0.3260404586791992
0.3995412826538086,0.3260404586791992
0.3897039413452149,0.3132871627807617
0.3897039413452149,0.3132871627807617
0.4014387130737305,0.3236841201782226
0.4014387130737305,0.3236841201782226
0.3901388168334961,0.3227273941040039
0.3901388168334961,0.3227273941040039
0.3990520477294922,0.3181365966796875
0.3990520477294922,0.3181365966796875
0.4005552291870117,0.3289827346801757
0.4005552291870117,0.3289827346801757
0.3921695709228515,0.3182744979858398
0.3921695709228515,0.3182744979858398
0.4044296264648438,0.3279819488525391
0.4044296264648438,0.3279819488525391
0.3945722579956055,0.3275774002075195
0.3945722579956055,0.3275774002075195
0.4006708145141601,0.3219697952270508
0.4006708145141601,0.3219697952270508
0.4032274246215820,0.3339099884033203
0.4032274246215820,0.3339099884033203
0.3949281692504883,0.3221288681030273
0.3949281692504883,0.3221288681030273
0.4086032867431640,0.3323043823242187
0.4086032867431640,0.3323043823242187
0.3958597183227539,0.3311588287353516
0.3958597183227539,0.3311588287353516
0.4038436889648437,0.3278732299804688
0.4038436889648437,0.3278732299804688
0.4068128585815430,0.3393762588500976
0.4068128585815430,0.3393762588500976
0.4005706787109375,0.3283441543579101
0.4005706787109375,0.3283441543579101
0.4116291046142578,0.3384017944335938
0.4116291046142578,0.3384017944335938
0.4004899978637695,0.3390129089355469
0.4004899978637695,0.3390129089355469
0.4086708068847656,0.3353193283081055
0.4086708068847656,0.3353193283081055
0.4133480072021484,0.3474008560180664
0.4133480072021484,0.3474008560180664
0.4045034408569336,0.3358354568481445
0.4045034408569336,0.3358354568481445
0.4173768997192382,0.3478042602539063
0.4173768997192382,0.3478042602539063
0.4065324783325195,0.3481824874877930
0.4065324783325195,0.3481824874877930
0.4159847259521484,0.3443927764892578
0.4159847259521484,0.3443927764892578
0.4184234619140625,0.3568147659301757
0.4184234619140625,0.3568147659301757
0.4108348846435547,0.3470987319946289
0.4108348846435547,0.3470987319946289
0.4237346649169922,0.3582544326782227
0.4237346649169922,0.3582544326782227
0.4140140533447266,0.3579071044921875
0.4140140533447266,0.3579071044921875
0.4201103210449219,0.3517169952392578
0.4201103210449219,0.3517169952392578
0.4201292037963867,0.3575128555297851
0.4201292037963867,0.3575128555297851
0.4043724060058594,0.3334745407104492
0.4043724060058594,0.3334745407104492
0.4111604690551758,0.3336130142211914
0.4111604690551758,0.3336130142211914
0.3939359664916992,0.3261314392089844
0.3939359664916992,0.3261314392089844
0.3984809875488281,0.3176336288452148
0.3984809875488281,0.3176336288452148
0.3990594863891602,0.3263980865478516
0.3990594863891602,0.3263980865478516
0.3904535293579102,0.3123395919799805
0.3904535293579102,0.3123395919799805
0.4004356384277344,0.3203269958496094
0.4004356384277344,0.3203269958496094
0.3883329391479492,0.3193691253662109
0.3883329391479492,0.3193691253662109
0.3952119827270508,0.3137203216552734
0.3952119827270508,0.3137203216552734
0.3993015289306641,0.3247804641723633
0.3993015289306641,0.3247804641723633
0.3939737319946289,0.3248605728149414
0.3939737319946289,0.3240640640258789
0.3898544311523438,0.3148017883300781
0.3900220870971680,0.3148017883300781
0.4019914627075195,0.3265451431274414
0.4019914627075195,0.3265451431274414
0.3908151626586914,0.3191362380981445
0.3908151626586914,0.3191362380981445
0.4023885726928711,0.3217752456665039
0.4023885726928711,0.3217752456665039
0.3972719192504883,0.3293964385986328
0.3972719192504883,0.3293964385986328
0.3959953308105469,0.3199493408203125
0.3959953308105469,0.3199493408203125
0.4057085037231445,0.3319444656372070
0.4057085037231445,0.3319444656372070
0.3936910629272461,0.3242511749267578
0.4047128677368164,0.3242511749267578
0.4053365707397461,0.3270057678222656
0.4053365707397461,0.3270057678222656
0.4000179290771484,0.3337228775024414
0.4000179290771484,0.3337228775024414
0.3985170364379882,0.3239370346069336
0.3955381393432617,0.3239370346069336
0.4076139450073242,0.3351493835449219
0.4076139450073242,0.3351493835449219
0.3958534240722656,0.3279058456420899
0.3958534240722656,0.3279058456420899
0.4076288223266601,0.3303995132446289
0.4076288223266601,0.3303995132446289
0.4026906967163086,0.3377986907958984
0.4026906967163086,0.3377986907958984
0.4015016555786133,0.3288042068481445
0.4015016555786133,0.3288042068481445
0.4112245559692383,0.3416404724121094
0.4112245559692383,0.3416404724121094
0.4001386642456055,0.3345663070678711
0.4001386642456055,0.3345663070678711
0.4122007369995117,0.3380601882934570
0.4122007369995117,0.3380601882934570
0.4075624465942383,0.3460269927978515
0.4075624465942383,0.3460269927978515
0.4068843841552734,0.3382232666015625
0.4068843841552734,0.3382232666015625
0.4169197082519531,0.3509771347045899
0.4169197082519531,0.3509771347045899
0.4060472488403320,0.3444511413574219
0.4060472488403320,0.3444511413574219
0.4183891296386719,0.3487163543701172
0.4183891296386719,0.3487163543701172
0.4145021438598633,0.3576782226562500
0.4145021438598633,0.3576782226562500
0.4138406753540039,0.3494138717651367
0.4138406753540039,0.3494138717651367
0.4226068496704101,0.3582962036132812
0.4226068496704101,0.3582962036132812
0.4052793502807617,0.3400428771972656
0.4052793502807617,0.3400428771972656
0.4101076126098633,0.3333057403564453
0.4101076126098633,0.3333057403564453
0.4005054473876953,0.3339511871337891
0.4005054473876953,0.3339511871337891
0.3959924697875977,0.3203887939453125
0.3959924697875977,0.3203887939453125
0.4033098220825195,0.3294301986694336
0.4033098220825195,0.3294301986694336
0.3906869888305664,0.3206972122192382
0.3906869888305664,0.3206972122192382
0.4017013549804687,0.3222644805908203
0.4017013549804687,0.3222644805908203
0.3963901519775391,0.3288448333740234
0.3963901519775391,0.3288448333740234
0.3946054458618164,0.3191265106201172
0.3946054458618164,0.3191265106201172
0.4038139343261719,0.3311777114868164
0.4038139343261719,0.3311777114868164
0.3926399230957031,0.3237573623657227
0.3926399230957031,0.3237573623657227
0.4046012878417969,0.3268255233764648
0.4046012878417969,0.3268255233764648
0.3999509811401367,0.3348690032958984
0.3999509811401367,0.3348690032958984
0.3989707946777344,0.3266944885253906
0.3989707946777344,0.3266944885253906
0.4089111328125000,0.3389396667480469
0.4089111328125000,0.3389396667480469
0.3981170654296875,0.3323810577392578
0.3981170654296875,0.3323810577392578
0.4099994659423828,0.3361627578735352
0.4099994659423828,0.3361627578735352
0.4050910949707031,0.3432151794433594
0.4050910949707031,0.3432151794433594
0.4053771972656250,0.3357656478881836
0.4053771972656250,0.3357656478881836
0.4139745712280273,0.3472492218017578
0.4139745712280273,0.3472492218017578
0.4037269592285156,0.3399232864379882
0.4037269592285156,0.3399232864379882
0.4150926589965820,0.3440832138061523
0.4150926589965820,0.3440832138061523
0.4092796325683594,0.3494441986083984
0.4092796325683594,0.3494441986083984
0.4091920852661133,0.3413452148437500
0.4091920852661133,0.3413452148437500
0.4169265747070313,0.3515350341796875
0.4169265747070313,0.3515350341796875
0.4060369491577148,0.3436231613159180
0.4060369491577148,0.3436231613159180
0.4167137145996094,0.3460138320922851
0.4167137145996094,0.3460138320922851
0.4105516433715820,0.3508180618286132
0.4105516433715820,0.3508180618286132
0.4096412658691406,0.3420633316040039
0.4096412658691406,0.3420633316040039
0.4173425674438476,0.3524545669555664
0.4173425674438476,0.3524545669555664
0.4066755294799805,0.3439893722534180
0.4066755294799805,0.3439893722534180
0.4173454284667968,0.3469322204589844
0.4173454284667968,0.3469322204589844
0.4109447479248047,0.3516363143920898
0.4109447479248047,0.3516363143920898
0.4094026565551758,0.3429954528808594
0.4070348739624023,0.3429954528808594
0.4185487747192383,0.3535285949707031
0.4185487747192383,0.3535285949707031
0.4063699722290039,0.3449363708496094
0.4063699722290039,0.3449363708496094
0.4157690048217773,0.3440111160278320
0.4157690048217773,0.3440111160278320
0.4077049255371094,0.3456624984741211
0.4077049255371094,0.3456624984741211
0.4014696121215820,0.3298954010009765
0.4014696121215820,0.3298954010009765
0.4076763153076172,0.3360031127929687
0.4076763153076172,0.3360031127929687
0.3928459167480469,0.3240640640258789
0.3928459167480469,0.3240640640258789
0.4016063690185547,0.3230958938598633
0.4016063690185547,0.3230958938598633
0.3956806182861328,0.3280546188354492
0.3956806182861328,0.3280546188354492
0.3926919937133789,0.3170619964599609
0.3926919937133789,0.3170619964599609
0.4012561798095703,0.3274663925170898
0.4012561798095703,0.3274663925170898
0.3892524719238281,0.3198440551757812
0.3892524719238281,0.3198440551757812
0.4004316329956055,0.3214736938476562
0.4004316329956055,0.3214736938476562
0.3959375381469726,0.3285575866699219
0.3959375381469726,0.3285575866699219
0.3938735961914062,0.3189165115356445
0.3938735961914062,0.3189165115356445
0.4034248352050781,0.3309385299682617
0.4034248352050781,0.3309385299682617
0.3920545578002930,0.3238592147827148
0.3920545578002930,0.3238592147827148
0.4039455413818359,0.3262458801269531
0.4039455413818359,0.3262458801269531
0.3992723464965820,0.3335340499877930
0.3992723464965820,0.3335340499877930
0.3970773696899414,0.3239324569702148
0.3970773696899414,0.3239324569702148
0.4065776824951172,0.3346927642822266
0.4065776824951172,0.3346927642822266
0.3947158813476562,0.3266693115234375
0.3947158813476562,0.3266693115234375
0.4053623199462891,0.3275493621826172
0.4053623199462891,0.3275493621826172
0.4003881454467773,0.3344959259033203
0.4003881454467773,0.3344959259033203
0.3976673126220703,0.3237768173217773
0.3976673126220703,0.3237768173217773
0.4069885253906250,0.3346361160278320
0.4069885253906250,0.3346361160278320
0.3944829940795898,0.3265537261962890
0.3944829940795898,0.3265537261962890
0.4053663253784179,0.3281787872314453
0.4053663253784179,0.3281787872314453
0.4010272979736328,0.3353776931762695
0.4010272979736328,0.3353776931762695
0.3987190246582031,0.3254396438598633
0.3987190246582031,0.3254396438598633
0.4081558227539062,0.3364076614379883
0.4081558227539062,0.3364076614379883
0.3959758758544922,0.3290880203247070
0.3959758758544922,0.3290880203247070
0.4072866439819336,0.3306507110595703
0.4072866439819336,0.3306507110595703
0.4030878067016602,0.3382038116455078
0.4030878067016602,0.3382038116455078
0.4004281997680664,0.3285615921020508
0.4004281997680664,0.3285615921020508
0.4104040145874023,0.3404600143432617
0.4104040145874023,0.3404600143432617
0.3985261917114258,0.3332691192626953
0.3985261917114258,0.3332691192626953
0.4101356506347656,0.3354921340942383
0.4101356506347656,0.3354921340942383
0.4061388015747070,0.3435516357421875
0.4061388015747070,0.3435516357421875
0.4041475296020507,0.3350435256958008
0.4041475296020507,0.3350435256958008
0.4146944046020508,0.3474746704101562
0.4146944046020508,0.3474746704101562
0.4033790588378906,0.3408508300781250
0.4033790588378906,0.3408508300781250
0.4147178649902344,0.3425628662109375
0.4147178649902344,0.3425628662109375
0.4100172042846680,0.3496685028076172
0.4100172042846680,0.3496685028076172
0.4054561614990234,0.3353885650634765
0.4054561614990234,0.3353885650634765
0.4112651824951172,0.3404983520507812
0.4112651824951172,0.3404983520507812
0.3953413009643554,0.3277078628540039
0.3953413009643554,0.3277078628540039
0.4039501190185547,0.3262561798095703
0.4039501190185547,0.3262561798095703
0.3979957580566406,0.3313167572021484
0.3979957580566406,0.3313167572021484
0.3944349288940430,0.3202268600463867
0.3944349288940430,0.3202268600463867
0.4034666061401367,0.3310106277465820
0.4034666061401367,0.3310106277465820
0.3913078308105469,0.3233459472656250
0.3913078308105469,0.3233459472656250
0.4023971557617188,0.3248405456542969
0.3940240859985352,0.3248405456542969
0.3985656738281250,0.3326425552368164
0.3985656738281250,0.3326425552368164
0.3962362289428711,0.3231325149536133
0.3962362289428711,0.3231325149536133
0.4062412261962891,0.3354721069335938
0.4062412261962891,0.3354721069335938
0.3948371887207031,0.3285003662109375
0.3948371887207031,0.3285003662109375
0.4064352035522461,0.3307777404785156
0.4064352035522461,0.3307777404785156
0.4025499343872070,0.3390106201171875
0.4025499343872070,0.3390106201171875
0.4004493713378906,0.3302787780761718
0.4004493713378906,0.3302787780761718
0.4105052947998047,0.3421257019042969
0.4105052947998047,0.3421257019042969
0.3992700576782227,0.3356088638305664
0.3992700576782227,0.3356088638305664
0.4108657836914062,0.3380189895629883
0.4108657836914062,0.3380189895629883
0.4076728820800781,0.3476600646972656
0.4076728820800781,0.3476600646972656
0.4060352325439453,0.3394660949707031
0.4060352325439453,0.3394660949707031
0.4169345855712890,0.3529415130615234
0.4169345855712890,0.3529415130615234
0.4064958572387695,0.3479095458984375
0.4064958572387695,0.3479095458984375
0.4188446044921875,0.3514263153076172
0.4188446044921875,0.3514263153076172
0.4153146743774414,0.3590515136718750
0.4153146743774414,0.3590515136718750
0.4125680923461914,0.3489572525024414
0.4125680923461914,0.3489572525024414
0.4220249176025391,0.3602193832397461
0.4220249176025391,0.3602193832397461
0.4104194641113281,0.3537631988525390
0.4104194641113281,0.3537631988525390
0.4219636917114258,0.3559736251831054
0.4219636917114258,0.3559736251831054
0.4185819625854492,0.3644777297973633
0.4185819625854492,0.3644777297973633
0.4162874221801758,0.3558277130126953
0.4162874221801758,0.3558277130126953
0.4266775131225586,0.3687681198120117
0.4266775131225586,0.3687681198120117
0.4159412384033203,0.3630214691162109
0.4159412384033203,0.3630214691162109
0.4280857086181640,0.3665262222290039
0.4280857086181640,0.3665262222290039
0.4251211166381836,0.3757341384887695
0.4251211166381836,0.3757341384887695
0.4231000900268554,0.3674835205078125
0.4231000900268554,0.3674835205078125
0.4322822570800781,0.3764785766601562
0.4322822570800781,0.3764785766601562
0.4170593261718750,0.3622203826904297
0.4170593261718750,0.3622203826904297
0.4218475341796875,0.3535566329956055
0.4218475341796875,0.3535566329956055
0.4115999221801758,0.3514995574951172
0.4115999221801758,0.3514995574951172
0.4036376953125000,0.3339265823364257
0.4036376953125000,0.3339265823364257
0.4098964691162109,0.3403392791748047
0.4098964691162109,0.3403392791748047
0.3953687667846680,0.3293054580688476
0.3953687667846680,0.3293054580688476
0.4047740936279297,0.3289678573608398
0.4047740936279297,0.3289678573608398
0.4070972442626953,0.3327535629272461
0.3966098785400390,0.3327535629272461
0.4012332916259765,0.3259695053100586
0.4012647628784179,0.3269605636596680
0.4040067672729492,0.3378215789794922
0.4060586929321289,0.3378215789794922
0.4009740829467773,0.3270143508911132
0.4009740829467773,0.3270143508911132
0.4083686828613281,0.3363990783691406
0.4083686828613281,0.3363990783691406
0.3988351821899414,0.3370136260986328
0.3988351821899414,0.3370136260986328
0.4055837631225586,0.3337337493896484
0.4055837631225586,0.3337337493896484
0.4101230621337891,0.3447538375854492
0.4101230621337891,0.3447538375854492
0.4007858276367187,0.3328365325927734
0.4007858276367187,0.3328365325927734
0.4127145767211914,0.3427774429321289
0.4127145767211914,0.3427774429321289
0.4027112960815429,0.3431762695312500
0.4027112960815429,0.3431762695312500
0.4091423034667969,0.3366943359375000
0.4091423034667969,0.3366943359375000
0.4116497039794922,0.3467805862426758
0.4116497039794922,0.3467805862426758
0.4020635604858399,0.3349182128906250
0.4020635604858399,0.3349182128906250
0.4133491516113281,0.3432397842407227
0.4133491516113281,0.3432397842407227
0.4044794082641601,0.3434337615966797
0.4044794082641601,0.3434337615966797
0.4076042175292969,0.3359853744506836
0.4076042175292969,0.3359853744506836
0.4116680145263672,0.3479066848754883
0.4116680145263672,0.3479066848754883
0.4021242141723633,0.3358400344848633
0.4021242141723633,0.3358400344848633
0.4155189514160156,0.3450393676757812
0.4155189514160156,0.3450393676757812
0.4043254852294922,0.3455406188964844
0.4043254852294922,0.3455406188964844
0.4093008041381836,0.3408325195312500
0.4093008041381836,0.3408325195312500
0.4147705078125000,0.3536630630493164
0.4147705078125000,0.3536630630493164
0.4076425552368164,0.3432844161987305
0.4076425552368164,0.3432844161987305
0.4187135696411133,0.3525020599365234
0.4187135696411133,0.3525020599365234
0.4099113464355469,0.3560165405273437
0.4099113464355469,0.3560165405273437
0.4157976150512695,0.3518468856811524
0.4157976150512695,0.3518468856811524
0.4236019134521484,0.3656238555908203
0.4236019134521484,0.3656238555908203
0.4140037536621093,0.3544544219970703
0.4140037536621093,0.3544544219970703
0.4267393112182617,0.3660209655761719
0.4267393112182617,0.3660209655761719
0.4165008544921875,0.3656553268432617
0.4165008544921875,0.3656553268432617
0.4198448181152344,0.3524454116821289
0.4198448181152344,0.3524454116821289
0.4160917282104492,0.3522542953491211
0.4160917282104492,0.3522542953491211
0.4007972717285156,0.3320194244384765
0.4039953231811523,0.3320194244384765
0.4082668304443359,0.3350526809692383
0.4082668304443359,0.3350526809692383
0.3965188980102539,0.3312595367431641
0.3965188980102539,0.3312595367431641
0.3980152130126953,0.3213924407958984
0.3980152130126953,0.3213924407958984
0.4011737823486328,0.3318626403808594
0.4011737823486328,0.3318626403808594
0.3909181594848632,0.3182373046875000
0.3909181594848632,0.3182373046875000
0.4038242340087890,0.3268724441528320
0.4038242340087890,0.3268724441528320
0.3921495437622070,0.3261909484863281
0.3921495437622070,0.3261909484863281
0.3966493606567383,0.3202142715454102
0.3966493606567383,0.3202142715454102
0.4013820648193359,0.3317184448242188
0.4013820648193359,0.3317184448242188
0.3929431915283203,0.3190092086791992
0.3929431915283203,0.3190092086791992
0.4037858963012695,0.3273622512817383
0.4037858963012695,0.3273622512817383
0.3934616088867187,0.3280151367187500
0.3934616088867187,0.3280151367187500
0.3977783203125000,0.3210262298583984
0.3977783203125000,0.3210262298583984
0.4033601760864258,0.3321310043334961
0.4033601760864258,0.3321310043334961
0.3919979095458984,0.3183242797851563
0.3919979095458984,0.3183242797851563
0.4035146713256836,0.3275722503662109
0.4035146713256836,0.3275722503662109
0.3932189941406250,0.3282709121704102
0.3932189941406250,0.3282709121704102
0.3991733551025390,0.3216814041137695
0.3991733551025390,0.3216814041137695
0.4026563644409180,0.3328685760498047
0.4026563644409180,0.3328685760498047
0.3931297302246093,0.3216739654541015
0.3931297302246093,0.3216739654541015
0.4056112289428711,0.3312973022460937
0.4056112289428711,0.3312973022460937
0.3970636367797851,0.3328582763671875
0.3970636367797851,0.3328582763671875
0.4010015487670898,0.3263408660888672
0.4010015487670898,0.3263408660888672
0.4061056137084961,0.3392457962036133
0.4061056137084961,0.3392457962036133
0.3970270156860352,0.3277118682861328
0.3970270156860352,0.3277118682861328
0.4107885360717773,0.3374748229980469
0.4107885360717773,0.3374748229980469
0.3999567031860352,0.3382347106933594
0.3999567031860352,0.3382347106933594
0.4048244476318359,0.3329074859619141
0.4048244476318359,0.3329074859619141
0.4098512649536133,0.3451126098632812
0.4098512649536133,0.3451126098632812
0.4016967773437500,0.3332147598266602
0.4016967773437500,0.3332147598266602
0.4125652313232422,0.3421686172485351
0.4125652313232422,0.3421686172485351
0.4030088424682617,0.3440654754638672
0.4030088424682617,0.3440654754638672
0.4076419830322265,0.3377077102661133
0.4006055831909179,0.3377077102661133
0.4137874603271484,0.3494562149047851
0.4137874603271484,0.3494562149047851
0.4030340194702148,0.3365861892700195
0.4030340194702148,0.3365861892700195
0.4145656585693359,0.3451555252075195
0.4145656585693359,0.3451555252075195
0.4022523880004883,0.3410385131835937
0.4022523880004883,0.3410385131835937
0.4035043716430664,0.3276832580566406
0.4035043716430664,0.3276832580566406
0.4033401489257812,0.3336330413818359
0.4033401489257812,0.3336330413818359
0.3909627914428711,0.3183397293090820
0.3909627914428711,0.3183397293090820
0.4011686325073242,0.3251884460449219
0.4011686325073242,0.3251884460449219
0.3913639068603516,0.3245893478393554
0.3913639068603516,0.3245893478393554
0.3939651489257812,0.3165996551513672
0.3939651489257812,0.3165996551513672
0.3985696792602539,0.3287893295288086
0.3985696792602539,0.3287893295288086
0.3890401840209961,0.3165624618530273
0.3890401840209961,0.3165624618530273
0.4023679733276367,0.3257406234741211
0.4023679733276367,0.3257406234741211
0.3913455963134765,0.3259912490844726
0.3913455963134765,0.3259912490844726
0.3958196640014648,0.3199928283691406
0.3958196640014648,0.3199928283691406
0.4008893966674805,0.3322093963623047
0.4008893966674805,0.3322093963623047
0.3928344726562500,0.3205272674560547
0.3928344726562500,0.3205272674560547
0.4037996292114258,0.3294244766235351
0.4037996292114258,0.3294244766235351
0.3944280624389648,0.3315216064453125
0.3944280624389648,0.3315216064453125
0.3993913650512695,0.3257452011108398
0.3993913650512695,0.3257452011108398
0.4060037612915039,0.3384092330932617
0.4060037612915039,0.3384092330932617
0.3959369659423828,0.3270898818969726
0.3959369659423828,0.3270898818969726
0.4088945388793945,0.3382965087890625
0.4088945388793945,0.3382965087890625
0.4000345230102539,0.3406385421752929
0.4000345230102539,0.3406385421752929
0.4064083099365234,0.3353055953979492
0.4064083099365234,0.3353055953979492
0.4106700897216797,0.3473241806030273
0.4106700897216797,0.3473241806030273
0.4016035079956055,0.3366582870483398
0.4016035079956055,0.3366582870483398
0.4137039184570312,0.3458644866943359
0.4137039184570312,0.3458644866943359
0.4053874969482422,0.3467674255371094
0.4053874969482422,0.3467674255371094
0.4084396362304688,0.3395164489746094
0.4084396362304688,0.3395164489746094
0.4134098052978515,0.3518800735473633
0.4134098052978515,0.3518800735473633
0.4041830062866211,0.3404016494750977
0.4041830062866211,0.3404016494750977
0.4175113677978515,0.3496129989624023
0.4175113677978515,0.3496129989624023
0.4068815231323242,0.3506000518798828
0.4068815231323242,0.3506000518798828
0.4124198913574219,0.3458696365356445
0.4124198913574219,0.3458696365356445
0.4162748336791992,0.3576879501342773
0.4162748336791992,0.3576879501342773
0.4103988647460937,0.3475942611694336
0.4103988647460937,0.3475942611694336
0.4209686279296875,0.3576089859008789
0.4209686279296875,0.3576089859008789
0.4123357772827148,0.3592494964599609
0.4123357772827148,0.3592494964599609
0.4182632446289062,0.3556291580200195
0.4182632446289062,0.3556291580200195
0.4234107971191406,0.3664747238159179
0.4234107971191406,0.3664747238159179
0.4124914169311523,0.3504026412963867
0.4124914169311523,0.3504026412963867
0.4188566207885742,0.3517301559448242
0.4188566207885742,0.3517301559448242
0.4040594100952148,0.3443613052368164
0.4040594100952148,0.3443613052368164
0.4046459197998047,0.3311330795288086
0.4046459197998047,0.3311330795288086
0.4053462982177734,0.3375234603881836
0.4053462982177734,0.3375234603881836
0.3932292938232422,0.3229734420776367
0.3932292938232422,0.3229734420776367
0.4033309936523438,0.3298988342285156
0.4033309936523438,0.3298988342285156
0.3944114685058593,0.3300533294677734
0.3944114685058593,0.3300533294677734
0.3966951370239258,0.3221958160400391
0.3900306701660156,0.3221958160400391
0.4015491485595703,0.3341320037841797
0.4015491485595703,0.3341320037841797
0.3922519683837891,0.3226198196411132
0.3922519683837891,0.3226198196411132
0.4052839279174805,0.3318723678588867
0.4052839279174805,0.3318723678588867
0.3952880859375000,0.3332994461059570
0.3952880859375000,0.3332994461059570
0.3994348526000976,0.3276918411254883
0.3994348526000976,0.3276918411254883
0.4054927825927734,0.3404205322265625
0.4054927825927734,0.3404205322265625
0.3977846145629882,0.3299743652343750
0.3977846145629882,0.3299743652343750
0.4089786529541016,0.3390941619873047
0.4089786529541016,0.3390941619873047
0.4012292861938476,0.3431259155273437
0.4012292861938476,0.3431259155273437
0.4059276580810547,0.3380784988403320
0.4059276580810547,0.3380784988403320
0.4139293670654297,0.3517873764038086
0.4139293670654297,0.3517873764038086
0.4041017532348632,0.3403867721557617
0.4041017532348632,0.3403867721557617
0.4163389205932617,0.3509891510009766
0.4163389205932617,0.3509891510009766
0.4077003479003906,0.3535234451293945
0.4077003479003906,0.3535234451293945
0.4136587142944336,0.3482425689697266
0.4136587142944336,0.3482425689697266
0.4183319091796875,0.3602405548095703
0.4183319091796875,0.3602405548095703
0.4095714569091797,0.3497703552246094
0.4095714569091797,0.3497703552246094
0.4219242095947265,0.3596448898315430
0.4219242095947265,0.3596448898315430
0.4145221710205078,0.3621013641357422
0.4145221710205078,0.3621013641357422
0.4174163818359375,0.3552898406982422
0.4174163818359375,0.3552898406982422
0.4237129211425781,0.3687892913818359
0.4237129211425781,0.3687892913818359
0.4147859573364258,0.3581748962402344
0.4147859573364258,0.3581748962402344
0.4289651870727539,0.3685838699340820
0.4289651870727539,0.3685838699340820
0.4195346832275391,0.3707593917846679
0.4195346832275391,0.3707593917846679
0.4239423751831055,0.3652576446533203
0.4239423751831055,0.3652576446533203
0.4301193237304687,0.3784177780151367
0.4301193237304687,0.3784177780151367
0.4220363616943359,0.3674428939819336
0.4220363616943359,0.3674428939819336
0.4335119247436524,0.3765878677368164
0.4335119247436524,0.3765878677368164
0.4246004104614258,0.3789121627807617
0.4246004104614258,0.3789121627807617
0.4278963088989258,0.3713871002197265
0.4278963088989258,0.3713871002197265
0.4340915679931641,0.3825090408325195
0.4340915679931641,0.3825090408325195
0.4283397674560547,0.3795427322387695
0.4283397674560547,0.3795427322387695
0.4158966064453125,0.3602439880371094
0.4161598205566406,0.3602439880371094
0.4223505020141601,0.3582326889038086
0.4223505020141601,0.3582326889038086
0.4024583816528320,0.3397006988525391
0.4024583816528320,0.3397006988525391
0.4073032379150390,0.3326820373535156
0.4073032379150390,0.3326820373535156
0.4020812988281250,0.3375646591186524
0.4020812988281250,0.3375646591186524
0.3957996368408203,0.3237510681152344
0.3957996368408203,0.3237510681152344
0.4048713684082031,0.3333652496337891
0.4048713684082031,0.3333652496337891
0.3916471481323242,0.3251226425170898
0.3916471481323242,0.3251226425170898
0.4011428833007812,0.3246150970458984
0.4011428833007812,0.3246150970458984
0.3986097335815429,0.3328702926635742
0.3986097335815429,0.3328702926635742
0.3940618515014648,0.3215646743774414
0.3940618515014648,0.3215646743774414
0.4041852951049805,0.3326076507568359
0.4041852951049805,0.3326076507568359
0.3916036605834961,0.3255626678466797
0.3916036605834961,0.3255626678466797
0.4012458801269531,0.3245338439941406
0.4012458801269531,0.3245338439941406
0.3982515335083008,0.3320474624633789
0.3982515335083008,0.3320474624633789
0.3927961349487304,0.3195608139038086
0.3927961349487304,0.3195608139038086
0.4022615432739258,0.3303428649902344
0.4022615432739258,0.3303428649902344
0.3897022247314453,0.3228103637695313
0.3897022247314453,0.3228103637695313
0.3996368408203125,0.3224510192871093
0.3996368408203125,0.3224510192871093
0.3972982406616211,0.3312967300415039
0.3972982406616211,0.3312967300415039
0.3929420471191406,0.3207258224487304
0.3931818008422852,0.3207258224487304
0.4037075042724609,0.3327896118164063
0.4037075042724609,0.3327896118164063
0.3920785903930664,0.3268318176269531
0.3920785903930664,0.3268318176269531
0.4027072906494141,0.3277685165405274
0.4027072906494141,0.3277685165405274
0.4013832092285156,0.3382564544677734
0.4013832092285156,0.3382564544677734
0.3981233596801758,0.3290576934814453
0.3981233596801758,0.3290576934814453
0.4100080490112304,0.3425354003906250
0.4100080490112304,0.3425354003906250
0.3990039825439453,0.3376504898071289
0.3990039825439453,0.3376504898071289
0.4100337982177734,0.3397842407226562
0.4100337982177734,0.3397842407226562
0.4089260101318359,0.3503173828125000
0.4089260101318359,0.3503173828125000
0.4062881469726562,0.3420936584472656
0.4062881469726562,0.3420936584472656
0.4180870056152344,0.3557292938232422
0.4180870056152344,0.3557292938232422
0.4073913574218750,0.3516637802124024
0.4073913574218750,0.3516637802124024
0.4182437896728515,0.3532573699951172
0.4182437896728515,0.3532573699951172
0.4167961120605468,0.3632034301757812
0.4167961120605468,0.3632034301757812
0.4133056640625000,0.3537872314453125
0.4133056640625000,0.3537872314453125
0.4242244720458984,0.3667036056518554
0.4242244720458984,0.3667036056518554
0.4131952285766601,0.3610078811645508
0.4131952285766601,0.3610078811645508
0.4232185363769531,0.3605695724487304
0.4232185363769531,0.3605695724487304
0.4176544189453125,0.3622323989868164
0.4176544189453125,0.3622323989868164
0.4073696136474609,0.3421176910400390
0.4073696136474609,0.3421176910400390
0.4124267578125000,0.3457677841186523
0.4124267578125000,0.3457677841186523
0.3973869323730468,0.3344661712646484
0.3973869323730468,0.3344661712646484
0.4049892425537109,0.3317934036254883
0.4049892425537109,0.3317934036254883
0.4014610290527343,0.3387651443481445
0.4014610290527343,0.3387651443481445
0.3967134475708008,0.3273113250732422
0.3967134475708008,0.3273113250732422
0.4068958282470703,0.3384109497070312
0.4068958282470703,0.3384109497070312
0.3951381683349609,0.3319187164306641
0.3951381683349609,0.3319187164306641
0.4051534652709961,0.3329441070556641
0.4051534652709961,0.3329441070556641
0.4036697387695312,0.3424810409545898
0.4036697387695312,0.3424810409545898
0.4004882812500000,0.3333086013793945
0.4004882812500000,0.3333086013793945
0.4113269805908203,0.3461551666259766
0.4113269805908203,0.3461551666259766
0.4011383056640625,0.3405126571655273
0.4011383056640625,0.3405126571655273
0.4117835998535156,0.3432712554931641
0.4117835998535156,0.3432712554931641
0.4091365814208984,0.3516168594360352
0.4091365814208984,0.3516168594360352
0.4071762084960938,0.3431287765502929
0.4071762084960938,0.3431287765502929
0.4167829513549804,0.3551061630249023
0.4167829513549804,0.3551061630249023
0.4064220428466797,0.3483444213867187
0.4064220428466797,0.3483444213867187
0.4162811279296875,0.3497938156127929
0.4162811279296875,0.3497938156127929
0.4125846862792968,0.3562236785888672
0.4125846862792968,0.3562236785888672
0.4093563079833984,0.3459823608398437
0.4093563079833984,0.3459823608398437
0.4184715270996094,0.3558597564697266
0.4184715270996094,0.3558597564697266
0.4064020156860351,0.3485155105590820
0.4064020156860351,0.3485155105590820
0.4151704788208008,0.3471158981323242
0.4151704788208008,0.3471158981323242
0.4124422073364258,0.3550231933593750
0.4124422073364258,0.3550231933593750
0.4077095031738281,0.3435373306274414
0.4077095031738281,0.3435373306274414
0.4177534103393555,0.3542129516601563
0.4177534103393555,0.3542129516601563
0.4054304122924804,0.3473413467407226
0.4054304122924804,0.3473413467407226
0.4146188735961914,0.3468481063842773
0.4146188735961914,0.3468481063842773
0.4126115798950195,0.3551605224609375
0.4126115798950195,0.3551605224609375
0.4079561233520508,0.3443286895751953
0.4079561233520508,0.3443286895751953
0.4181625366210938,0.3552984237670898
0.4181625366210938,0.3552984237670898
0.4062297821044922,0.3493200302124023
0.4062297821044922,0.3493200302124023
0.4154989242553711,0.3483043670654297
0.4154989242553711,0.3483043670654297
0.4134172439575195,0.3564886093139648
0.4134172439575195,0.3564886093139648
0.4084293365478516,0.3450187683105468
0.4084293365478516,0.3450187683105468
0.4177459716796875,0.3543508529663086
0.4177459716796875,0.3543508529663086
0.4033967971801758,0.3434091567993164
0.4033967971801758,0.3434091567993164
0.4094638824462891,0.3375852584838867
0.4094638824462891,0.3375852584838867
0.4043415069580078,0.3417148590087891
0.4043415069580078,0.3417148590087891
0.3979928970336914,0.3280025482177734
0.3979928970336914,0.3280025482177734
0.4064838409423828,0.3370313644409180
0.4064838409423828,0.3370313644409180
0.3939434051513672,0.3295377731323242
0.3939434051513672,0.3295377731323242
0.4030380249023438,0.3288442611694336
0.4030380249023438,0.3288442611694336
0.4009654998779297,0.3375068664550781
0.4009654998779297,0.3375068664550781
0.3967477798461914,0.3265457153320312
0.3967477798461914,0.3265457153320312
0.4073141098022461,0.3382455825805664
0.4073141098022461,0.3382455825805664
0.3956995010375977,0.3322746276855469
0.4082530975341797,0.3322746276855469
0.4056398391723633,0.3329017639160156
0.4056398391723633,0.3329017639160156
0.4048078536987305,0.3426532745361328
0.4048078536987305,0.3426532745361328
0.4006456375122070,0.3324050903320312
0.4006456375122070,0.3324050903320312
0.4116554260253906,0.3443796157836914
0.4116554260253906,0.3443796157836914
0.3997655868530273,0.3386650085449219
0.3997655868530273,0.3386650085449219
0.4099445343017578,0.3386598587036133
0.4099445343017578,0.3386598587036133
0.4083961486816406,0.3480880737304687
0.4083961486816406,0.3480880737304687
0.4040147781372070,0.3374610900878906
0.4040147781372070,0.3374610900878906
0.4150588989257812,0.3498338699340820
0.4150588989257812,0.3498338699340820
0.4032817840576172,0.3443429946899414
0.4032817840576172,0.3443429946899414
0.4137159347534179,0.3444643020629883
0.4137159347534179,0.3444643020629883
0.4120473861694336,0.3540767669677734
0.4120473861694336,0.3540767669677734
0.4076545715332031,0.3435682296752929
0.4076545715332031,0.3435682296752929
0.4186077117919922,0.3552766799926758
0.4186077117919922,0.3552766799926758
0.4068071365356445,0.3495363235473632
0.4068071365356445,0.3495363235473632
0.4164876937866211,0.3489561080932617
0.4164876937866211,0.3489561080932617
0.4148271560668945,0.3584730148315430
0.4148271560668945,0.3584730148315430
0.4101230621337891,0.3471982955932617
0.4101230621337891,0.3471982955932617
0.4211025238037109,0.3589038848876953
0.4211025238037109,0.3589038848876953
0.4090438842773437,0.3531721115112305
0.4090438842773437,0.3531721115112305
0.4187095642089844,0.3531618118286133
0.4187095642089844,0.3531618118286133
0.4176315307617187,0.3628017425537109
0.4176315307617187,0.3628017425537109
0.4133480072021484,0.3525684356689453
0.4133480072021484,0.3525684356689453
0.4245878219604492,0.3647964477539062
0.4245878219604492,0.3647964477539062
0.4131042480468750,0.3601083755493164
0.4131042480468750,0.3601083755493164
0.4230205535888672,0.3600105285644531
0.4230205535888672,0.3600105285644531
0.4214767456054687,0.3686056137084961
0.4214767456054687,0.3686056137084961
0.4158319473266601,0.3564090728759766
0.4158319473266601,0.3564090728759766
0.4253717422485351,0.3662218093872070
0.4253717422485351,0.3662218093872070
0.4117938995361328,0.3575683593750000
0.4117938995361328,0.3575683593750000
0.4188749313354492,0.3523092269897461
0.4081958770751953,0.3523092269897461
0.4136999130249023,0.3556583404541016
0.4136999130249023,0.3556583404541016
0.4061124801635742,0.3406368255615234
0.4061124801635742,0.3406368255615234
0.4147865295410156,0.3490568161010742
0.4147865295410156,0.3490568161010742
0.4017797470092773,0.3414539337158203
0.4136667251586914,0.3414539337158203
0.4104412078857422,0.3397790908813477
0.4104412078857422,0.3397790908813477
0.4084613800048828,0.3487380981445312
0.4084613800048828,0.3487380981445312
0.4038946151733399,0.3375297546386719
0.4038946151733399,0.3375297546386719
0.4149484634399414,0.3497200012207031
0.4149484634399414,0.3497200012207031
0.4034059524536133,0.3444723129272461
0.4034059524536133,0.3444723129272461
0.4135248184204102,0.3453918457031250
0.4135248184204102,0.3453918457031250
0.4127305984497070,0.3555107116699219
0.4127305984497070,0.3555107116699219
0.4089855194091797,0.3459428787231445
0.4089855194091797,0.3459428787231445
0.4206642150878906,0.3593833923339844
0.4206642150878906,0.3593833923339844
0.4096887588500976,0.3554861068725586
0.4096887588500976,0.3554861068725586
0.4204010009765625,0.3566871643066406
0.4204010009765625,0.3566871643066406
0.4197841644287109,0.3670875549316406
0.4197841644287109,0.3670875549316406
0.4155017852783203,0.3571500778198242
0.4155017852783203,0.3571500778198242
0.4269973754882813,0.3704040527343750
0.4269973754882813,0.3704040527343750
0.4159257888793945,0.3658344268798828
0.4159257888793945,0.3658344268798828
0.4264200210571289,0.3668266296386719
0.4264200210571289,0.3668266296386719
0.4255393981933593,0.3772390365600586
0.4255393981933593,0.3772390365600586
0.4217010498046875,0.3683000564575195
0.4217010498046875,0.3683000564575195
0.4338443756103516,0.3814590454101562
0.4338443756103516,0.3814590454101562
0.4228958129882812,0.3772006988525390
0.4228958129882812,0.3772006988525390
0.4329654693603516,0.3779674530029297
0.4329654693603516,0.3779674530029297
0.4321683883666992,0.3891317367553711
0.4321683883666992,0.3891317367553711
0.4286590576171875,0.3799718856811523
0.4286590576171875,0.3799718856811523
0.4407783508300781,0.3932859420776367
0.4407783508300781,0.3932859420776367
0.4294750213623047,0.3889097213745117
0.4421997070312500,0.3889097213745117
0.4397180557250976,0.3899808883666992
0.4397180557250976,0.3899808883666992
0.4390010833740234,0.4002759933471680
0.4451889038085937,0.3967231750488281
0.4350448608398437,0.3904209136962891
0.4360536575317382,0.3904209136962891
0.4458938598632812,0.4014799118041992
0.4458938598632812,0.4014799118041992
0.4331102371215820,0.3938598632812500
0.4331102371215820,0.3938598632812500
0.4400093078613281,0.3891677856445312
0.4400093078613281,0.3891677856445312
0.4336063385009766,0.3890848159790039
0.4336063385009766,0.3890848159790039
0.4248458862304688,0.3699657440185547
0.4248458862304688,0.3699657440185547
0.4284851074218750,0.3715438842773438
0.4284851074218750,0.3715438842773438
0.4125469207763672,0.3570190429687500
0.4125469207763672,0.3570190429687500
0.4184234619140625,0.3524591445922852
0.4184234619140625,0.3524591445922852
0.4133274078369141,0.3565504074096680
0.4133274078369141,0.3565504074096680
0.4086147308349609,0.3453620910644531
0.4086147308349609,0.3453620910644531
0.4176143646240234,0.3545373916625976
0.4176143646240234,0.3545373916625976
0.4058835983276367,0.3471508026123047
0.4058835983276367,0.3471508026123047
0.4148168563842773,0.3475255966186523
0.4148168563842773,0.3475255966186523
0.4121343612670899,0.3557722091674805
0.4121343612670899,0.3557722091674805
0.4081438064575195,0.3450519561767578
0.4081438064575195,0.3450519561767578
0.4192594528198242,0.3569961547851562
0.4192594528198242,0.3569961547851562
0.4077993392944336,0.3519819259643555
0.4077993392944336,0.3519819259643555
0.4175416946411133,0.3523853302001953
0.4175416946411133,0.3523853302001953
0.4165317535400391,0.3617843627929687
0.4165317535400391,0.3617843627929687
0.4120891571044922,0.3513370513916015
0.4120891571044922,0.3513370513916015
0.4228048324584961,0.3629499435424804
0.4228048324584961,0.3629499435424804
0.4111639022827148,0.3577754974365234
0.4235074996948242,0.3577754974365234
0.4205858230590820,0.3570396423339844
0.4205858230590820,0.3570396423339844
0.4194871902465820,0.3664564132690429
0.4194871902465820,0.3664564132690429
0.4144781112670898,0.3554145812988281
0.4144781112670898,0.3554145812988281
0.4252744674682617,0.3670944213867187
0.4252744674682617,0.3670944213867187
0.4136444091796875,0.3615634918212891
0.4136444091796875,0.3615634918212891
0.4231950759887695,0.3610593795776367
0.4231950759887695,0.3610593795776367
0.4218252182006836,0.3701951980590820
0.4218252182006836,0.3701951980590820
0.4171016693115234,0.3596191406250000
0.4171016693115234,0.3596191406250000
0.4277715682983398,0.3706747055053711
0.4277715682983398,0.3706747055053711
0.4155899047851562,0.3645778656005859
0.4155899047851562,0.3645778656005859
0.4245998382568359,0.3633378982543945
0.4245998382568359,0.3633378982543945
0.4232448577880859,0.3729251861572265
0.4232448577880859,0.3729251861572265
0.4188051223754883,0.3618827819824219
0.4188051223754883,0.3618827819824219
0.4292953491210937,0.3728485107421875
0.4292953491210937,0.3728485107421875
0.4165666580200195,0.3662189483642578
0.4165666580200195,0.3662189483642578
0.4252286911010742,0.3642253875732422
0.4252286911010742,0.3642253875732422
0.4234886169433594,0.3723564147949219
0.4234886169433594,0.3723564147949219
0.4182741165161133,0.3604299545288086
0.4182741165161133,0.3604299545288086
0.4283889770507812,0.3710832595825195
0.4283889770507812,0.3710832595825195
0.4158840179443359,0.3650699615478515
0.4158840179443359,0.3650699615478515
0.4239486694335937,0.3608339309692383
0.4239486694335937,0.3608339309692383
0.4190643310546875,0.3639450073242188
0.4190643310546875,0.3639450073242188
0.4096017837524414,0.3455268859863281
0.4096017837524414,0.3455268859863281
0.4166044235229492,0.3516202926635742
0.4166044235229492,0.3516202926635742
0.4021419525146484,0.3424249649047851
0.4021419525146484,0.3424249649047851
0.4098346710205078,0.3388320922851563
0.4098346710205078,0.3388320922851563
0.4070486068725586,0.3463073730468750
0.4070486068725586,0.3463073730468750
0.4012876510620117,0.3341823577880859
0.4012876510620117,0.3341823577880859
0.4120433807373047,0.3450119018554688
0.4120433807373047,0.3450119018554688
0.3996557235717773,0.3391908645629882
0.3996557235717773,0.3391908645629882
0.4089712142944336,0.3379583358764648
0.4089712142944336,0.3379583358764648
0.4077335357666015,0.3475130081176758
0.4077335357666015,0.3475130081176758
0.4026254653930664,0.3359287261962891
0.4026254653930664,0.3359287261962891
0.4138252258300781,0.3475616455078125
0.4138252258300781,0.3475616455078125
0.4015571594238281,0.3422241210937500
0.4015571594238281,0.3422241210937500
0.4111799240112304,0.3415809631347656
0.4111799240112304,0.3415809631347656
0.4103015899658203,0.3510812759399414
0.4103015899658203,0.3510812759399414
0.4052742004394531,0.3396240234375000
0.4052742004394531,0.3396240234375000
0.4160202026367187,0.3512500762939453
0.4160202026367187,0.3512500762939453
0.4036680221557617,0.3459674835205078
0.4036680221557617,0.3459674835205078
0.4131580352783203,0.3442171096801758
0.4131580352783203,0.3442171096801758
0.4116662979125976,0.3528928756713867
0.4116662979125976,0.3528928756713867
0.4058240890502929,0.3404754638671875
0.4058240890502929,0.3404754638671875
0.4163566589355469,0.3517919540405273
0.4163566589355469,0.3517919540405273
0.4039615631103515,0.3458633422851562
0.4039615631103515,0.3458633422851562
0.4133623123168945,0.3445472717285156
0.4133623123168945,0.3445472717285156
0.4121561050415039,0.3539257049560547
0.4121561050415039,0.3539257049560547
0.4069044113159180,0.3428478240966797
0.4069044113159180,0.3428478240966797
0.4181837081909179,0.3548749923706054
0.4181837081909179,0.3548749923706054
0.4065324783325195,0.3504610061645508
0.4065324783325195,0.3504610061645508
0.4164922714233398,0.3501440048217773
0.4164922714233398,0.3501440048217773
0.4159870147705078,0.3608694076538086
0.4159870147705078,0.3608694076538086
0.4115009307861328,0.3506097793579102
0.4144414901733398,0.3506097793579102
0.4234382629394531,0.3633275985717773
0.4234382629394531,0.3633275985717773
0.4116302490234375,0.3592660903930664
0.4116302490234375,0.3592660903930664
0.4216466903686523,0.3592998504638672
0.4216466903686523,0.3592998504638672
0.4211877822875976,0.3694862365722656
0.4211877822875976,0.3694862365722656
0.4161071777343750,0.3581691741943359
0.4161071777343750,0.3581691741943359
0.4268028259277344,0.3691932678222656
0.4268028259277344,0.3691932678222656
0.4141113281250000,0.3639776229858399
0.4141113281250000,0.3639776229858399
0.4236053466796875,0.3621522903442383
0.4236053466796875,0.3621522903442383
0.4212203979492187,0.3682977676391602
0.4212203979492187,0.3682977676391602
0.4126413345336914,0.3515659332275390
0.4126413345336914,0.3515659332275390
0.4205389022827148,0.3591688156127930
0.4205389022827148,0.3591688156127930
0.4069427490234375,0.3514245986938476
0.4069427490234375,0.3514245986938476
0.4154972076416015,0.3487266540527343
0.4154972076416015,0.3487266540527343
0.4137742996215820,0.3571363449096679
0.4137742996215820,0.3571363449096679
0.4083749771118164,0.3463926315307617
0.4083749771118164,0.3463926315307617
0.4199100494384765,0.3585170745849609
0.4199100494384765,0.3585170745849609
0.4089906692504883,0.3550643920898438
0.4089906692504883,0.3550643920898438
0.4194454193115234,0.3559673309326172
0.4194454193115234,0.3559673309326172
0.4196256637573242,0.3676534652709961
0.4196256637573242,0.3676534652709961
0.4158725738525391,0.3588644027709961
0.4158725738525391,0.3588644027709961
0.4283987045288086,0.3728616714477539
0.4283987045288086,0.3728616714477539
0.4178947448730468,0.3704847335815429
0.4178947448730468,0.3704847335815429
0.4288393020629883,0.3723506927490234
0.4288393020629883,0.3723506927490234
0.4292352676391601,0.3837415695190430
0.4292352676391601,0.3837415695190430
0.4254335403442382,0.3745862960815430
0.4254335403442382,0.3745862960815430
0.4369932174682617,0.3874986648559570
0.4369932174682617,0.3874986648559570
0.4258094787597656,0.3839498519897461
0.4258094787597656,0.3839498519897461
0.4361412048339844,0.3838434219360352
0.4361412048339844,0.3838434219360352
0.4355352401733398,0.3937042236328125
0.4355352401733398,0.3937042236328125
0.4314617156982422,0.3838039398193359
0.4314617156982422,0.3838039398193359
0.4411645889282226,0.3953693389892578
0.4411645889282226,0.3953693389892578
0.4305644989013672,0.3897125244140625
0.4305644989013672,0.3897125244140625
0.4402050018310547,0.3902360916137695
0.4402050018310547,0.3902360916137695
0.4377691268920899,0.3982652664184570
0.4377691268920899,0.3982652664184570
0.4341608047485351,0.3884376525878906
0.4341608047485351,0.3884376525878906
0.4440399169921875,0.3992397308349609
0.4440399169921875,0.3992397308349609
0.4327949523925781,0.3929786682128906
0.4327949523925781,0.3929786682128906
0.4415290832519531,0.3917312622070312
0.4415290832519531,0.3917312622070312
0.4378664016723633,0.3970647811889648
0.4378664016723633,0.3970647811889648
0.4311939239501953,0.3812948226928711
0.4311939239501953,0.3812948226928711
0.4366619110107422,0.3841152191162109
0.4366619110107422,0.3841152191162109
0.4196697235107422,0.3688270568847656
0.4196697235107422,0.3688270568847656
0.4231584548950195,0.3601066589355469
0.4231584548950195,0.3601066589355469
0.4184532165527344,0.3633029937744141
0.4184532165527344,0.3633029937744141
0.4104154586791992,0.3482780456542969
0.4104154586791992,0.3482780456542969
0.4197681427001953,0.3571346282958984
0.4197681427001953,0.3571346282958984
0.4068054199218750,0.3517988204956055
0.4068054199218750,0.3517988204956055
0.4159658432006836,0.3496656417846680
0.4159658432006836,0.3496656417846680
0.4151859283447266,0.3593559265136719
0.4151859283447266,0.3593559265136719
0.4098512649536133,0.3488101959228516
0.4098512649536133,0.3488101959228516
0.4214178085327148,0.3614135742187500
0.4214178085327148,0.3614135742187500
0.4106821060180664,0.3586778640747070
0.4106821060180664,0.3586778640747070
0.4206367492675781,0.3583854675292968
0.4206367492675781,0.3583854675292968
0.4213411331176758,0.3694049835205078
0.4213411331176758,0.3694049835205078
0.4163326263427734,0.3600156784057617
0.4163326263427734,0.3600156784057617
0.4285760879516601,0.3726963043212890
0.4285760879516601,0.3726963043212890
0.4176744461059570,0.3695159912109375
0.4176744461059570,0.3695159912109375
0.4276193618774414,0.3695474624633789
0.4276193618774414,0.3695474624633789
0.4278373718261719,0.3806110382080078
0.4278373718261719,0.3806110382080078
0.4234050750732422,0.3702821731567383
0.4234050750732422,0.3702821731567383
0.4347106933593750,0.3827934265136719
0.4347106933593750,0.3827934265136719
0.4229438781738281,0.3786117553710938
0.4229438781738281,0.3786117553710938
0.4327096939086914,0.3780532836914062
0.4327096939086914,0.3780532836914062
0.4325603485107422,0.3880256652832031
0.4325603485107422,0.3880256652832031
0.4278528213500977,0.3774164199829101
0.4278528213500977,0.3774164199829101
0.4389301300048828,0.3896512985229492
0.4389301300048828,0.3896512985229492
0.4270156860351562,0.3861036300659180
0.4270156860351562,0.3861036300659180
0.4372432708740234,0.3850708007812500
0.4372432708740234,0.3850708007812500
0.4371036529541015,0.3954774856567383
0.4371036529541015,0.3954774856567383
0.4319314956665039,0.3848636627197266
0.4319314956665039,0.3848636627197266
0.4436439514160156,0.3978469848632812
0.4436439514160156,0.3978469848632812
0.4319103240966797,0.3938570022583008
0.4319103240966797,0.3938570022583008
0.4419610977172851,0.3927177429199218
0.4419610977172851,0.3927177429199218
0.4458915710449219,0.3983264923095703
0.4458915710449219,0.3983264923095703
0.4458915710449219,0.3983648300170898
0.4387161254882813,0.4031055450439453
0.4387161254882813,0.4031055450439453
0.4420509338378906,0.3953847885131836
0.4420509338378906,0.3953847885131836
0.4485271453857422,0.4081140518188476
0.4485271453857422,0.4081140518188476
0.4392168045043945,0.3987751007080078
0.4392168045043945,0.3987751007080078
0.4508119583129883,0.4060844421386718
0.4508119583129883,0.4060844421386718
0.4445262908935547,0.4106203079223633
0.4445262908935547,0.4106203079223633
0.4453113555908203,0.4015926361083984
0.4453113555908203,0.4015926361083984
0.4521440505981445,0.4141513824462891
0.4495044708251953,0.4141513824462891
0.4411056518554687,0.4004344940185547
0.4411056518554687,0.4004344940185547
0.4484144210815429,0.3970447540283203
0.4484144210815429,0.3970447540283203
0.4305742263793945,0.3845964431762695
0.4305742263793945,0.3845964431762695
0.4228134155273438,0.3616081237792969
0.4228134155273438,0.3616081237792969
0.4232202529907226,0.3637006759643555
0.4232202529907226,0.3637006759643555
0.4100778579711914,0.3466936111450195
0.4100778579711914,0.3466936111450195
0.4175559997558594,0.3487289428710937
0.4175559997558594,0.3487289428710937
0.4081455230712890,0.3509382247924804
0.4081455230712890,0.3509382247924804
0.4086765289306640,0.3406105041503906
0.4086765289306640,0.3406105041503906
0.4161832809448242,0.3520889282226562
0.4161832809448242,0.3520889282226562
0.4048622131347656,0.3405607223510742
0.4048622131347656,0.3405607223510742
0.4158422470092774,0.3472303390502929
0.4158422470092774,0.3472303390502929
0.4080110549926758,0.3511241912841797
0.4080110549926758,0.3511241912841797
0.4101968765258789,0.3420124053955078
0.4101968765258789,0.3420124053955078
0.4159749984741211,0.3534662246704102
0.4159749984741211,0.3534662246704102
0.4060094833374023,0.3432666778564453
0.4060094833374023,0.3432666778564453
0.4170146942138672,0.3496501922607422
0.4170146942138672,0.3496501922607422
0.4106969833374023,0.3539073944091797
0.4106969833374023,0.3539073944091797
0.4111415863037109,0.3447715759277344
0.4111415863037109,0.3447715759277344
0.4184560775756836,0.3580049514770507
0.4160877227783203,0.3580049514770507
0.4089380264282226,0.3481510162353516
0.4089380264282226,0.3481510162353516
0.4215888977050781,0.3550071716308594
0.4215888977050781,0.3550071716308594
0.4131271362304688,0.3593112945556641
0.4131271362304688,0.3593112945556641
0.4149444580078125,0.3520511627197265
0.4149444580078125,0.3520511627197265
0.4226892471313476,0.3654047012329101
0.4226892471313476,0.3654047012329101
0.4145507812500000,0.3560588836669922
0.4145507812500000,0.3560588836669922
0.4250352859497070,0.3626764297485351
0.4250352859497070,0.3626764297485351
0.4180675506591797,0.3687326431274414
0.4180675506591797,0.3687326431274414
0.4206499099731445,0.3616968154907226
0.4206499099731445,0.3616968154907226
0.4299791336059570,0.3758491516113281
0.4299791336059570,0.3758491516113281
0.4200090408325195,0.3663883209228516
0.4200090408325195,0.3663883209228516
0.4315635681152344,0.3742115020751953
0.4315635681152344,0.3742115020751953
0.4244424819946289,0.3797424316406250
0.4244424819946289,0.3797424316406250
0.4280290603637695,0.3723335266113281
0.4280290603637695,0.3723335266113281
0.4345773696899414,0.3853591918945312
0.4345773696899414,0.3853591918945312
0.4256280899047851,0.3770925521850586
0.4256280899047851,0.3770925521850586
0.4372581481933593,0.3842348098754882
0.4372581481933593,0.3842348098754882
0.4309993743896484,0.3877098083496094
0.4309993743896484,0.3877098083496094
0.4275804519653320,0.3703273773193359
0.4275804519653320,0.3703273773193359
0.4276731491088867,0.3713178634643555
0.4276731491088867,0.3713178634643555
0.4116325378417969,0.3514068603515625
0.4116325378417969,0.3514068603515625
0.4193401336669922,0.3509336471557617
0.4193401336669922,0.3509336471557617
0.4078760147094727,0.3503179550170898
0.4078760147094727,0.3503179550170898
0.4071762084960938,0.3393316268920898
0.4071762084960938,0.3393316268920898
0.4128782272338867,0.3492691040039063
0.4128782272338867,0.3492691040039063
0.4033395767211914,0.3379755020141602
0.4033395767211914,0.3379755020141602
0.4127803802490234,0.3427127838134765
0.4127803802490234,0.3427127838134765
0.4050636291503906,0.3473253250122070
0.4050636291503906,0.3473253250122070
0.4066177368164062,0.3390192031860351
0.4066177368164062,0.3390192031860351
0.4152723312377929,0.3516654968261719
0.4152723312377929,0.3516654968261719
0.4048238754272461,0.3417755126953125
0.4048238754272461,0.3417755126953125
0.4164665222167969,0.3492284774780273
0.4164665222167969,0.3492284774780273
0.4095594406127930,0.3540910720825195
0.4095594406127930,0.3540910720825195
0.4134853363037109,0.3473773956298828
0.4134853363037109,0.3473773956298828
0.4187370300292969,0.3589439392089844
0.4187370300292969,0.3589439392089844
0.4105613708496094,0.3504735946655274
0.4105613708496094,0.3504735946655274
0.4212678909301757,0.3571758270263672
0.4212678909301757,0.3571758270263672
0.4149816513061523,0.3604242324829102
0.4149816513061523,0.3604242324829102
0.4160247802734375,0.3523218154907227
0.4160247802734375,0.3523218154907227
0.4219516754150390,0.3639719009399414
0.4219516754150390,0.3639719009399414
0.4129760742187500,0.3536167144775391
0.4129760742187500,0.3536167144775391
0.4243188858032226,0.3592517852783203
0.4243188858032226,0.3592517852783203
0.4147968292236328,0.3606983184814453
0.4147968292236328,0.3606983184814453
0.4162736892700195,0.3530588150024414
0.4162736892700195,0.3530588150024414
0.4219734191894531,0.3640291213989258
0.4219734191894531,0.3640291213989258
0.4140970230102539,0.3539360046386719
0.4140970230102539,0.3539360046386719
0.4229839324951172,0.3588981628417969
0.4229839324951172,0.3588981628417969
0.4149908065795898,0.3622100830078125
0.4149908065795898,0.3622100830078125
0.4166782379150391,0.3537065505981445
0.4166782379150391,0.3537065505981445
0.4242198944091797,0.3649017333984375
0.4242198944091797,0.3649017333984375
0.4127122879028320,0.3538290023803711
0.4127122879028320,0.3538290023803711
0.4232431411743164,0.3591545104980469
0.4232431411743164,0.3591545104980469
0.4153415679931641,0.3628046035766602
0.4153415679931641,0.3628046035766602
0.4166021347045898,0.3520288467407227
0.4166021347045898,0.3520288467407227
0.4213788986206055,0.3604328155517578
0.4213788986206055,0.3604328155517578
0.4083641052246094,0.3462226867675781
0.4083641052246094,0.3462226867675781
0.4158308029174805,0.3456825256347656
0.4158308029174805,0.3456825256347656
0.4066257476806641,0.3458467483520508
0.4066257476806641,0.3458467483520508
0.4035209655761718,0.3317590713500976
0.4035209655761718,0.3317590713500976
0.4088035583496094,0.3413629531860352
0.4088035583496094,0.3413629531860352
0.3974464416503906,0.3289312362670898
