REDsignal,IRsignal
0.8784662246704101,1.0505704879760742
0.8784662246704101,1.0505704879760742
0.8832979202270508,1.0562536239624023
0.8832979202270508,1.0562536239624023
0.8806285858154297,1.0590597152709960
0.8806285858154297,1.0590597152709960
0.8824132919311524,1.0600027084350585
0.8824132919311524,1.0600027084350585
0.8845739364624023,1.0646358489990233
0.8845739364624023,1.0646358489990233
0.8825918197631836,1.0625364303588867
0.8825918197631836,1.0625364303588867
0.8866498947143554,1.0670562744140624
0.8866498947143554,1.0670562744140624
0.8829002380371094,1.0685680389404297
0.8829002380371094,1.0685680389404297
0.8865119934082031,1.0688816070556639
0.8845945358276367,1.0688816070556639
0.8876838684082031,1.0729803085327148
0.8876838684082031,1.0729803085327148
0.8855604171752930,1.0709753036499023
0.8855604171752930,1.0709753036499023
0.8884986877441406,1.0749727249145506
0.8884986877441406,1.0749727249145506
0.8866207122802734,1.0758132934570312
0.8866207122802734,1.0758132934570312
0.8889209747314453,1.0749155044555663
0.8889209747314453,1.0749155044555663
0.8890720367431640,1.0759099960327148
0.8890720367431640,1.0759099960327148
0.8830827713012696,1.0637363433837890
0.8830827713012696,1.0637363433837890
0.8809604644775391,1.0474822998046875
0.8809604644775391,1.0474822998046875
0.8688840866088867,1.0247102737426756
0.8688840866088867,1.0247102737426756
0.8631380081176757,1.0060306549072264
0.8631380081176757,1.0060306549072264
0.8584671020507812,0.9993404388427733
0.8584671020507812,0.9993404388427733
0.8546030044555664,0.9900238037109375
0.8546030044555664,0.9900238037109375
0.8564369201660156,0.9885154724121094
0.8564369201660156,0.9885154724121094
0.8521316528320312,0.9858690261840820
0.8521316528320312,0.9858690261840820
0.8527055740356445,0.9833890914916992
0.8527055740356445,0.9833890914916992
0.8540039062500000,0.9855365753173828
0.8540039062500000,0.9855365753173828
0.8518323898315430,0.9820072174072265
0.8518323898315430,0.9820072174072265
0.8547277450561523,0.9840288162231445
0.8547277450561523,0.9840288162231445
0.8504676818847656,0.9837873458862304
0.8504676818847656,0.9837873458862304
0.8533109664916992,0.9826520919799804
0.8533109664916992,0.9826520919799804
0.8542819976806640,0.9861843109130859
0.8542819976806640,0.9861843109130859
0.8520807266235352,0.9834245681762694
0.8520807266235352,0.9834245681762694
0.8548622131347656,0.9865762710571289
0.8548622131347656,0.9865762710571289
0.8526432037353515,0.9875638961791992
0.8526432037353515,0.9875638961791992
0.8552232742309570,0.9879140853881836
0.8552232742309570,0.9879140853881836
0.8566755294799805,0.9931062698364257
0.8566755294799805,0.9931062698364257
0.8546876907348633,0.9935577392578124
0.8546876907348633,0.9935577392578124
0.8609710693359375,1.0008184432983398
0.8609710693359375,1.0008184432983398
0.8596143722534180,1.0063854217529296
0.8596143722534180,1.0063854217529296
0.8642503738403320,1.0121086120605469
0.8642503738403320,1.0121086120605469
0.8673357009887696,1.0225719451904296
0.8673357009887696,1.0225719451904296
0.8686592102050781,1.0253934860229492
0.8686592102050781,1.0253934860229492
0.8737724304199218,1.0316001892089843
0.8737724304199218,1.0316001892089843
0.8709497451782227,1.0334592819213866
0.8709497451782227,1.0334592819213866
0.8730005264282227,1.0346946716308594
0.8730005264282227,1.0346946716308594
0.8753780364990235,1.0394720077514648
0.8753780364990235,1.0394720077514648
0.8734348297119140,1.0371671676635741
0.8734348297119140,1.0371671676635741
0.8770786285400390,1.0403818130493163
0.8770786285400390,1.0403818130493163
0.8730777740478516,1.0410089492797852
0.8730777740478516,1.0410089492797852
0.8762317657470703,1.0407474517822266
0.8762317657470703,1.0407474517822266
0.8771736145019531,1.0444581985473633
0.8771736145019531,1.0444581985473633
0.8750495910644531,1.0421041488647460
0.8750495910644531,1.0421041488647460
0.8780090332031250,1.0459207534790038
0.8780090332031250,1.0459207534790038
0.8761928558349609,1.0474313735961913
0.8761928558349609,1.0474313735961913
0.8789566040039062,1.0485031127929687
0.8789566040039062,1.0485031127929687
0.8805061340332031,1.0541084289550782
0.8805061340332031,1.0541084289550782
0.8786699295043945,1.0537788391113281
0.8786699295043945,1.0537788391113281
0.8839742660522460,1.0590620040893555
0.8839742660522460,1.0590620040893555
0.8818702697753906,1.0616827011108398
0.8818702697753906,1.0616827011108398
0.8848909378051758,1.0638387680053711
0.8828361511230468,1.0638387680053711
0.8857686996459960,1.0697198867797850
0.8857686996459960,1.0697198867797850
0.8854854583740234,1.0688295364379883
0.8854854583740234,1.0688295364379883
0.8898387908935547,1.0737482070922850
0.8898387908935547,1.0737482070922850
0.8871992111206054,1.0749778747558594
0.8871992111206054,1.0749778747558594
0.8887784957885742,1.0754636764526366
0.8887784957885742,1.0754636764526366
0.8905214309692383,1.0784397125244141
0.8905214309692383,1.0784397125244141
0.8878606796264649,1.0724292755126952
0.8878606796264649,1.0724292755126952
0.8877153396606445,1.0646810531616211
0.8877153396606445,1.0646810531616211
0.8764892578125000,1.0449686050415039
0.8764892578125000,1.0449686050415039
0.8703964233398437,1.0209880828857421
0.8703964233398437,1.0209880828857421
0.8630739212036133,1.0058996200561523
0.8630739212036133,1.0058996200561523
0.8554561614990234,0.9914422988891601
0.8554561614990234,0.9914422988891601
0.8546510696411133,0.9870552062988280
0.8546510696411133,0.9870552062988280
0.8500236511230469,0.9821920394897461
0.8500236511230469,0.9821920394897461
0.8508441925048827,0.9782426834106445
0.8508441925048827,0.9782426834106445
0.8507961273193360,0.9796686172485352
0.8507961273193360,0.9796686172485352
0.8471895217895508,0.9753530502319335
0.8471895217895508,0.9753530502319335
0.8512178421020508,0.9770215988159179
0.8512178421020508,0.9770215988159179
0.8475002288818360,0.9760894775390625
0.8475002288818360,0.9760894775390625
0.8491132736206054,0.9743808746337890
0.8491132736206054,0.9743808746337890
0.8494789123535156,0.9784732818603515
0.8494789123535156,0.9784732818603515
0.8482904434204102,0.9755664825439453
0.8482904434204102,0.9755664825439453
0.8523061752319335,0.9785367965698242
0.8523061752319335,0.9785367965698242
0.8486200332641601,0.9790632247924804
0.8486200332641601,0.9790632247924804
0.8503332138061523,0.9788675308227539
0.8503332138061523,0.9788675308227539
0.8522987365722656,0.9834594726562500
0.8522987365722656,0.9834594726562500
0.8502828598022460,0.9815277099609374
0.8502828598022460,0.9815277099609374
0.8546092987060546,0.9868755340576172
0.8546092987060546,0.9868755340576172
0.8521356582641602,0.9909845352172851
0.8521356582641602,0.9909845352172851
0.8575023651123047,0.9955982208251952
0.8575023651123047,0.9955982208251952
0.8612514495849609,1.0049915313720703
0.8612514495849609,1.0049915313720703
0.8609447479248047,1.0068729400634766
0.8609447479248047,1.0068729400634766
0.8656511306762695,1.0143362045288085
0.8656511306762695,1.0143362045288085
0.8650606155395507,1.0188995361328124
0.8650606155395507,1.0188995361328124
0.8690076828002929,1.0224363327026367
0.8690076828002929,1.0224363327026367
0.8717216491699219,1.0300918579101561
0.8717216491699219,1.0300918579101561
0.8697790145874024,1.0305221557617188
0.8697790145874024,1.0305221557617188
0.8754621505737304,1.0358247756958008
0.8754621505737304,1.0358247756958008
0.8729679107666015,1.0379505157470703
0.8729679107666015,1.0379505157470703
0.8753940582275390,1.0383447647094726
0.8753940582275390,1.0383447647094726
0.8758363723754883,1.0430608749389647
0.8758363723754883,1.0430608749389647
0.8748762130737304,1.0409008026123046
0.8748762130737304,1.0409008026123046
0.8785652160644531,1.0443294525146485
0.8785652160644531,1.0443294525146485
0.8753225326538085,1.0451625823974608
0.8753225326538085,1.0451625823974608
0.8773389816284179,1.0465478897094727
0.8773389816284179,1.0465478897094727
0.8802709579467773,1.0530515670776366
0.8802709579467773,1.0530515670776366
0.8795225143432617,1.0537719726562500
0.8795225143432617,1.0537719726562500
0.8843164443969727,1.0599752426147460
0.8843164443969727,1.0599752426147460
0.8814428329467773,1.0635412216186524
0.8814428329467773,1.0635412216186524
0.8857395172119140,1.0656223297119141
0.8857395172119140,1.0656223297119141
0.8877588272094726,1.0714513778686523
0.8877588272094726,1.0714513778686523
0.8863552093505859,1.0701730728149415
0.8863552093505859,1.0701730728149415
0.8893404006958008,1.0742105484008788
0.8882028579711914,1.0742105484008788
0.8874446868896484,1.0750917434692382
0.8874446868896484,1.0750917434692382
0.8900751113891602,1.0752777099609374
0.8900751113891602,1.0752777099609374
0.8912235260009765,1.0794507980346679
0.8912235260009765,1.0794507980346679
0.8881593704223633,1.0766790390014649
0.8881593704223633,1.0766790390014649
0.8924755096435547,1.0780929565429687
0.8924755096435547,1.0780929565429687
0.8879814147949219,1.0736349105834961
0.8879814147949219,1.0736349105834961
0.8858934402465820,1.0603288650512694
0.8858934402465820,1.0603288650512694
0.8784622192382813,1.0437274932861327
0.8784622192382813,1.0437274932861327
0.8686231613159180,1.0189212799072265
0.8686231613159180,1.0189212799072265
0.8646257400512695,1.0041326522827148
0.8646257400512695,1.0041326522827148
0.8557605743408203,0.9933414459228516
0.8557605743408203,0.9933414459228516
0.8536600112915039,0.9858226776123047
0.8536600112915039,0.9858226776123047
0.8536342620849610,0.9847995758056640
0.8536342620849610,0.9847995758056640
0.8498022079467773,0.9785682678222656
0.8498022079467773,0.9785682678222656
0.8525453567504883,0.9796663284301758
0.8525453567504883,0.9796663284301758
0.8481931686401367,0.9793836593627929
0.8481931686401367,0.9793836593627929
0.8512029647827148,0.9782461166381835
0.8512029647827148,0.9782461166381835
0.8523284912109375,0.9816123962402343
0.8523284912109375,0.9816123962402343
0.8499126434326172,0.9787725448608398
0.8499126434326172,0.9787725448608398
0.8525648117065430,0.9816987991333007
0.8525648117065430,0.9816987991333007
0.8503097534179688,0.9822326660156250
0.8503097534179688,0.9822326660156250
0.8525573730468750,0.9821668624877929
0.8525573730468750,0.9821668624877929
0.8538414001464844,0.9868927001953125
0.8538414001464844,0.9868927001953125
0.8518083572387695,0.9859931945800781
0.8518083572387695,0.9859931945800781
0.8573839187622070,0.9911064147949218
0.8573839187622070,0.9911064147949218
0.8551071166992187,0.9936321258544921
0.8551071166992187,0.9936321258544921
0.8584928512573242,0.9971008300781250
0.8584928512573242,0.9971008300781250
0.8604715347290038,1.0055465698242188
0.8604715347290038,1.0055465698242188
0.8613601684570312,1.0077735900878906
0.8613601684570312,1.0077735900878906
0.8667623519897460,1.0159400939941405
0.8667623519897460,1.0159400939941405
0.8657472610473632,1.0215574264526366
0.8657472610473632,1.0215574264526366
0.8687021255493164,1.0286956787109374
0.8687021255493164,1.0286956787109374
0.8741649627685547,1.0339588165283202
0.8741649627685547,1.0339588165283202
0.8736660003662109,1.0387447357177735
0.8736660003662109,1.0387447357177735
0.8745431900024414,1.0382034301757812
0.8745431900024414,1.0382034301757812
0.8777389526367188,1.0447191238403319
0.8781944274902344,1.0447191238403319
0.8756978988647460,1.0441383361816405
0.8767616271972656,1.0441383361816405
0.8787860870361328,1.0463619232177734
0.8766420364379882,1.0463619232177734
0.8781332015991211,1.0499736785888671
0.8813999176025390,1.0499736785888671
0.8786098480224609,1.0483331680297852
0.8786098480224609,1.0483331680297852
0.8821357727050781,1.0541650772094726
0.8822015762329102,1.0541650772094726
0.8789611816406250,1.0534172058105469
0.8789611816406250,1.0534172058105469
0.8827566146850586,1.0562879562377929
0.8827566146850586,1.0562879562377929
0.8819389343261719,1.0600461959838867
0.8819389343261719,1.0600461959838867
0.8832761764526367,1.0587318420410157
0.8832761764526367,1.0587318420410157
0.8855197906494140,1.0643537521362305
0.8855197906494140,1.0643537521362305
0.8828859329223633,1.0640258789062500
0.8828859329223633,1.0640258789062500
0.8865720748901367,1.0667020797729492
0.8865720748901367,1.0667020797729492
0.8864633560180664,1.0700998306274414
0.8864633560180664,1.0700998306274414
0.8862831115722656,1.0676753997802735
0.8862831115722656,1.0676753997802735
0.8887985229492187,1.0728881835937500
0.8887985229492187,1.0728881835937500
0.8858934402465820,1.0711297988891602
0.8858934402465820,1.0711297988891602
0.8897300720214844,1.0728544235229491
0.8897300720214844,1.0728544235229491
0.8879001617431640,1.0750396728515625
0.8879001617431640,1.0750396728515625
0.8875173568725586,1.0710325241088867
0.8875173568725586,1.0710325241088867
0.8890365600585938,1.0736434936523438
0.8890365600585938,1.0736434936523438
0.8841110229492187,1.0641500473022460
0.8841110229492187,1.0641500473022460
0.8810531616210937,1.0481443405151367
0.8810531616210937,1.0481443405151367
0.8710653305053710,1.0271862030029297
0.8710653305053710,1.0271862030029297
0.8619443893432617,1.0026048660278319
0.8619443893432617,1.0026048660278319
0.8581237792968750,0.9929426193237304
0.8581237792968750,0.9929426193237304
0.8502296447753906,0.9820289611816406
0.8502296447753906,0.9820289611816406
0.8513002395629883,0.9785453796386718
0.8513002395629883,0.9785453796386718
0.8487516403198242,0.9780721664428711
0.8487516403198242,0.9780721664428711
0.8486989974975586,0.9733961105346679
0.8486989974975586,0.9733961105346679
0.8504344940185546,0.9770193099975586
0.8504344940185546,0.9770193099975586
0.8469606399536133,0.9744552612304687
0.8469606399536133,0.9744552612304687
0.8501346588134765,0.9754875183105468
0.8501346588134765,0.9754875183105468
0.8491802215576172,0.9775897979736328
0.8491802215576172,0.9775897979736328
0.8487356185913085,0.9746795654296875
0.8487356185913085,0.9746795654296875
0.8521419525146484,0.9809497833251952
0.8521419525146484,0.9809497833251952
0.8498920440673828,0.9808124542236327
0.8498920440673828,0.9808124542236327
0.8546224594116211,0.9836952209472656
0.8546224594116211,0.9836952209472656
0.8539438247680664,0.9876846313476562
0.8539438247680664,0.9876846313476562
0.8547637939453124,0.9869052886962890
0.8547637939453124,0.9869052886962890
0.8584470748901367,0.9949790954589843
0.8584470748901367,0.9949790954589843
0.8574600219726562,0.9975751876831054
0.8574600219726562,0.9975751876831054
0.8625177383422852,1.0046281814575195
0.8625177383422852,1.0046281814575195
0.8638875961303710,1.0138263702392578
0.8638875961303710,1.0138263702392578
0.8663108825683593,1.0174959182739258
0.8663108825683593,1.0174959182739258
0.8719974517822265,1.0289955139160156
0.8719974517822265,1.0289955139160156
0.8700696945190429,1.0315412521362304
0.8700696945190429,1.0315412521362304
0.8744836807250976,1.0359552383422852
0.8744836807250976,1.0359552383422852
0.8734302520751953,1.0396087646484375
0.8734302520751953,1.0396087646484375
0.8744115829467773,1.0373159408569335
0.8744115829467773,1.0373159408569335
0.8763851165771485,1.0423353195190430
0.8763851165771485,1.0423353195190430
0.8734537124633789,1.0415044784545897
0.8734537124633789,1.0415044784545897
0.8772262573242188,1.0441463470458985
0.8772262573242188,1.0441463470458985
0.8771158218383789,1.0478427886962891
0.8771158218383789,1.0478427886962891
0.8771512985229492,1.0459058761596680
0.8771512985229492,1.0459058761596680
0.8804105758666992,1.0524192810058592
0.8804105758666992,1.0524192810058592
0.8780462265014648,1.0521703720092772
0.8780462265014648,1.0521703720092772
0.8825729370117187,1.0555057525634766
0.8825729370117187,1.0555057525634766
0.8818542480468750,1.0595924377441406
0.8818542480468750,1.0595924377441406
0.8828722000122070,1.0591300964355468
0.8828722000122070,1.0591300964355468
0.8861652374267578,1.0657602310180663
0.8861652374267578,1.0657602310180663
0.8847112655639648,1.0663982391357421
0.8847112655639648,1.0663982391357421
0.8885833740234375,1.0699790954589843
0.8885833740234375,1.0699790954589843
0.8881708145141601,1.0736909866333006
0.8881708145141601,1.0736909866333006
0.8888832092285156,1.0721099853515625
0.8888832092285156,1.0721099853515625
0.8923261642456054,1.0778039932250976
0.8923261642456054,1.0778039932250976
0.8892963409423827,1.0767465591430663
0.8896705627441406,1.0783052444458008
0.8942201614379882,1.0813602447509765
0.8942201614379882,1.0813602447509765
0.8912944793701172,1.0814889907836913
0.8912944793701172,1.0814889907836913
0.8928857803344726,1.0806003570556639
0.8928857803344726,1.0806003570556639
0.8923879623413086,1.0822597503662108
0.8923879623413086,1.0822597503662108
0.8895521163940430,1.0743392944335937
0.8895521163940430,1.0743392944335937
0.8879894256591797,1.0617782592773437
0.8879894256591797,1.0617782592773437
0.8757362365722656,1.0378068923950194
0.8757362365722656,1.0378068923950194
0.8675708770751953,1.0142761230468749
0.8675708770751953,1.0142761230468749
0.8619003295898438,1.0013986587524413
0.8619003295898438,1.0013986587524413
0.8555162429809570,0.9895471572875976
0.8555162429809570,0.9895471572875976
0.8562675476074219,0.9871982574462890
0.8562675476074219,0.9871982574462890
0.8508893966674804,0.9841129302978515
0.8508893966674804,0.9841129302978515
0.8525756835937500,0.9812381744384765
0.8525756835937500,0.9812381744384765
0.8527107238769531,0.9829181671142577
0.8527107238769531,0.9829181671142577
0.8499658584594726,0.9791158676147460
0.8499658584594726,0.9791158676147460
0.8525356292724610,0.9816438674926757
0.8525356292724610,0.9816438674926757
0.8504562377929688,0.9816862106323242
0.8504562377929688,0.9816862106323242
0.8527095794677734,0.9811832427978515
0.8527095794677734,0.9811832427978515
0.8537017822265625,0.9849672317504883
0.8537017822265625,0.9849672317504883
0.8508934020996094,0.9825765609741210
0.8508934020996094,0.9825765609741210
0.8554796218872071,0.9861070632934570
0.8554796218872071,0.9861070632934570
0.8527450561523438,0.9872114181518554
0.8527450561523438,0.9872114181518554
0.8553909301757813,0.9887804031372069
0.8553909301757813,0.9887804031372069
0.8565307617187500,0.9954448699951172
0.8565307617187500,0.9954448699951172
0.8567871093750000,0.9966384887695312
0.8567871093750000,0.9966384887695312
0.8625337600708007,1.0050916671752930
0.8625337600708007,1.0050916671752930
0.8618288040161133,1.0115266799926756
0.8618288040161133,1.0115266799926756
0.8660682678222656,1.0177614212036132
0.8660682678222656,1.0177614212036132
0.8700651168823242,1.0270923614501952
0.8700651168823242,1.0270923614501952
0.8703598022460938,1.0294269561767577
0.8703598022460938,1.0294269561767577
0.8752704620361328,1.0362401962280272
0.8752704620361328,1.0362401962280272
0.8728677749633789,1.0397495269775390
0.8728677749633789,1.0397495269775390
0.8769996643066406,1.0423410415649415
0.8769996643066406,1.0423410415649415
0.8788787841796875,1.0480516433715821
0.8788787841796875,1.0480516433715821
0.8775575637817382,1.0470342636108398
0.8775575637817382,1.0470342636108398
0.8807367324829102,1.0515529632568359
0.8807367324829102,1.0515529632568359
0.8791391372680664,1.0530143737792967
0.8791391372680664,1.0530143737792967
0.8819234848022460,1.0539419174194335
0.8819234848022460,1.0539419174194335
0.8831182479858398,1.0584983825683594
0.8831182479858398,1.0584983825683594
0.8808883666992188,1.0571943283081053
0.8808883666992188,1.0571943283081053
0.8854888916015625,1.0612415313720702
0.8854888916015625,1.0612415313720702
0.8833087921142578,1.0626296997070312
0.8833087921142578,1.0626296997070312
0.8857080459594726,1.0634473800659179
0.8857080459594726,1.0634473800659179
0.8863168716430664,1.0679660797119139
0.8863168716430664,1.0679660797119139
0.8856542587280273,1.0663415908813476
0.8856542587280273,1.0663415908813476
0.8892499923706054,1.0697874069213866
0.8892499923706054,1.0697874069213866
0.8862796783447265,1.0704505920410157
0.8862796783447265,1.0704505920410157
0.8877714157104492,1.0707229614257812
0.8877714157104492,1.0707229614257812
0.8896699905395508,1.0745252609252929
0.8896699905395508,1.0745252609252929
0.8878881454467773,1.0717592239379883
0.8874927520751953,1.0717592239379883
0.8908802032470703,1.0743690490722655
0.8908802032470703,1.0743690490722655
0.8867723464965820,1.0744880676269530
0.8867723464965820,1.0744880676269530
0.8893318176269531,1.0728767395019532
0.8893318176269531,1.0728767395019532
0.8888242721557617,1.0721523284912109
0.8888242721557617,1.0721523284912109
0.8822113037109375,1.0562238693237305
0.8822113037109375,1.0562238693237305
0.8770465850830078,1.0371253967285157
0.8770465850830078,1.0371253967285157
0.8648014068603516,1.0131214141845704
0.8648014068603516,1.0131214141845704
0.8591302871704102,0.9945402145385742
0.8591302871704102,0.9945402145385742
0.8545183181762696,0.9870306015014648
0.8545183181762696,0.9870306015014648
0.8484632492065429,0.9776899337768554
0.8484632492065429,0.9776899337768554
0.8506336212158203,0.9762605667114257
0.8506336212158203,0.9762605667114257
0.8462013244628906,0.9739671707153320
0.8462013244628906,0.9739671707153320
0.8481920242309570,0.9724628448486328
0.8481920242309570,0.9724628448486328
0.8490154266357421,0.9765048980712890
0.8490154266357421,0.9765048980712890
0.8482789993286133,0.9743465423583983
0.8482789993286133,0.9743465423583983
0.8524177551269531,0.9774307250976562
0.8524177551269531,0.9774307250976562
0.8493764877319335,0.9781105041503906
0.8493764877319335,0.9781105041503906
0.8511028289794922,0.9780956268310547
0.8487607955932617,0.9780956268310547
0.8532989501953124,0.9824689865112304
0.8532989501953124,0.9824689865112304
0.8515874862670898,0.9808147430419921
0.8515874862670898,0.9808147430419921
0.8556163787841796,0.9849735260009765
0.8556163787841796,0.9849735260009765
0.8518821716308593,0.9868875503540039
0.8518821716308593,0.9868875503540039
0.8556615829467773,0.9880308151245116
0.8556615829467773,0.9880308151245116
0.8576574325561523,0.9939096450805663
0.8576574325561523,0.9939096450805663
0.8561708450317382,0.9937751770019531
0.8561708450317382,0.9937751770019531
0.8601694107055664,1.0008853912353515
0.8601694107055664,1.0008853912353515
0.8595308303833008,1.0056941986083985
0.8595308303833008,1.0056941986083985
0.8624582290649414,1.0124090194702149
0.8652271270751953,1.0124090194702149
0.8677036285400390,1.0189750671386719
0.8677036285400390,1.0189750671386719
0.8682792663574218,1.0259651184082030
0.8682792663574218,1.0259651184082030
0.8701171875000000,1.0267461776733398
0.8701171875000000,1.0267461776733398
0.8731269836425781,1.0340309143066406
0.8731269836425781,1.0340309143066406
0.8712867736816406,1.0350471496582030
0.8712867736816406,1.0350471496582030
0.8754529953002930,1.0387149810791014
0.8754529953002930,1.0387149810791014
0.8754981994628906,1.0426397323608398
0.8754981994628906,1.0426397323608398
0.8757139205932617,1.0410032272338867
0.8757139205932617,1.0410032272338867
0.8785091400146484,1.0468734741210937
0.8785091400146484,1.0468734741210937
0.8761207580566406,1.0462898254394530
0.8761207580566406,1.0462898254394530
0.8805547714233398,1.0494483947753905
0.8805547714233398,1.0494483947753905
0.8797359466552734,1.0533485412597656
0.8797359466552734,1.0533485412597656
0.8810302734375000,1.0533262252807616
0.8810302734375000,1.0533262252807616
0.8847696304321289,1.0607368469238281
0.8847696304321289,1.0607368469238281
0.8835565567016601,1.0617067337036132
0.8835565567016601,1.0617067337036132
0.8873582839965820,1.0652172088623046
0.8873582839965820,1.0652172088623046
0.8871797561645508,1.0694749832153321
0.8871797561645508,1.0694749832153321
0.8878984451293945,1.0679609298706054
0.8878984451293945,1.0679609298706054
0.8913980484008789,1.0739147186279296
0.8913980484008789,1.0739147186279296
0.8880701065063477,1.0725248336791993
0.8880701065063477,1.0725248336791993
0.8912727355957031,1.0743553161621093
0.8912727355957031,1.0743553161621093
0.8900350570678711,1.0765216827392579
0.8900350570678711,1.0765216827392579
0.8904710769653320,1.0733161926269530
0.8904710769653320,1.0733161926269530
0.8920595169067382,1.0773771286010743
0.8920595169067382,1.0773771286010743
0.8887578964233398,1.0750001907348632
0.8899194717407226,1.0750001907348632
0.8912921905517578,1.0741373062133788
0.8912921905517578,1.0741373062133788
0.8887578964233398,1.0702600479125977
0.8887578964233398,1.0702600479125977
0.8828081130981446,1.0507164001464844
0.8828081130981446,1.0507164001464844
0.8769241333007812,1.0333654403686523
0.8769241333007812,1.0333654403686523
0.8649032592773437,1.0101173400878907
0.8649032592773437,1.0101173400878907
0.8614173889160156,0.9958042144775390
0.8614173889160156,0.9958042144775390
0.8550716400146484,0.9881332397460937
0.8550716400146484,0.9881332397460937
0.8524658203125000,0.9799346923828125
0.8524658203125000,0.9799346923828125
0.8535953521728515,0.9811471939086913
0.8535953521728515,0.9811471939086913
0.8494857788085938,0.9758565902709960
0.8494857788085938,0.9758565902709960
0.8510032653808594,0.9743242263793945
0.8510032653808594,0.9743242263793945
0.8489376068115234,0.9749776840209960
0.8489376068115234,0.9749776840209960
0.8484048843383789,0.9709224700927734
0.8484048843383789,0.9709224700927734
0.8510301589965820,0.9754137039184569
0.8510301589965820,0.9754137039184569
0.8474430084228516,0.9729515075683594
0.8474430084228516,0.9729515075683594
0.8506153106689452,0.9746326446533202
0.8506153106689452,0.9746326446533202
0.8493650436401367,0.9771331787109374
0.8493650436401367,0.9771331787109374
0.8501564025878906,0.9749067306518554
0.8501564025878906,0.9749067306518554
0.8527027130126953,0.9808032989501952
0.8527027130126953,0.9808032989501952
0.8503549575805663,0.9811992645263672
0.8503549575805663,0.9811992645263672
0.8549446105957031,0.9858015060424804
0.8549446105957031,0.9858015060424804
0.8557462692260742,0.9917524337768554
0.8557462692260742,0.9917524337768554
0.8574514389038086,0.9939674377441405
0.8574514389038086,0.9939674377441405
0.8621131896972656,1.0045246124267577
0.8621131896972656,1.0045246124267577
0.8612045288085938,1.0079040527343750
0.8612045288085938,1.0079040527343750
0.8670095443725586,1.0149839401245118
0.8670095443725586,1.0149839401245118
0.8673608779907226,1.0219711303710937
0.8673608779907226,1.0219711303710937
0.8693235397338867,1.0235624313354492
0.8693235397338867,1.0235624313354492
0.8731201171874999,1.0318714141845702
0.8731201171874999,1.0318714141845702
0.8719327926635742,1.0332189559936522
0.8719327926635742,1.0332189559936522
0.8755582809448242,1.0367385864257812
0.8755582809448242,1.0367385864257812
0.8749271392822265,1.0404951095581054
0.8749271392822265,1.0404951095581054
0.8756366729736328,1.0389249801635743
0.8756366729736328,1.0389249801635743
0.8789045333862304,1.0446189880371093
0.8789045333862304,1.0446189880371093
0.8759061813354492,1.0436885833740235
0.8759061813354492,1.0436885833740235
0.8796964645385742,1.0466560363769530
0.8796964645385742,1.0466560363769530
0.8786024093627930,1.0494941711425780
0.8786024093627930,1.0494941711425780
0.8799156188964844,1.0484127044677733
0.8799156188964844,1.0484127044677733
0.8822988510131836,1.0543453216552734
0.8822988510131836,1.0543453216552734
0.8799196243286133,1.0541868209838867
0.8799196243286133,1.0541868209838867
0.8837081909179687,1.0573442459106446
0.8837081909179687,1.0573442459106446
0.8836738586425781,1.0612449645996094
0.8836738586425781,1.0612449645996094
0.8839897155761719,1.0597898483276367
0.8839897155761719,1.0597898483276367
0.8867780685424804,1.0657339096069336
0.8867780685424804,1.0657339096069336
0.8838970184326171,1.0644847869873046
0.8838970184326171,1.0644847869873046
0.8878887176513671,1.0663896560668944
0.8878887176513671,1.0663896560668944
0.8862007141113281,1.0685686111450194
0.8862007141113281,1.0685686111450194
0.8862613677978516,1.0658700942993165
0.8862613677978516,1.0658700942993165
0.8886114120483398,1.0707029342651366
0.8886114120483398,1.0707029342651366
0.8859872817993164,1.0685422897338868
0.8859872817993164,1.0685422897338868
0.8882658004760742,1.0677560806274413
0.8882658004760742,1.0677560806274413
0.8849859237670898,1.0637392044067382
0.8849859237670898,1.0637392044067382
0.8797811508178711,1.0463670730590819
0.8797811508178711,1.0463670730590819
0.8752458572387695,1.0305862426757812
0.8752458572387695,1.0305862426757812
0.8630538940429687,1.0085826873779296
0.8630538940429687,1.0085826873779296
0.8603296279907227,0.9957870483398437
0.8603296279907227,0.9957870483398437
0.8555202484130859,0.9896793365478516
0.8555202484130859,0.9896793365478516
0.8537870407104492,0.9814126968383788
0.8537870407104492,0.9814126968383788
0.8541040420532227,0.9818584442138671
0.8541040420532227,0.9818584442138671
0.8497861862182617,0.9773557662963867
0.8497861862182617,0.9773557662963867
0.8522111892700195,0.9767005920410156
0.8522111892700195,0.9767005920410156
0.8511205673217773,0.9780246734619140
0.8511205673217773,0.9780246734619140
0.8500802993774413,0.9739980697631836
0.8500802993774413,0.9739980697631836
0.8523508071899414,0.9784315109252929
0.8523508071899414,0.9784315109252929
0.8490737915039063,0.9766204833984374
0.8490737915039063,0.9766204833984374
0.8529087066650390,0.9782140731811523
0.8529087066650390,0.9782140731811523
0.8511766433715821,0.9802717208862304
0.8511766433715821,0.9802717208862304
0.8511674880981445,0.9775508880615233
0.8511674880981445,0.9775508880615233
0.8535089492797852,0.9827665328979491
0.8535089492797852,0.9827665328979491
0.8510049819946289,0.9817565917968749
0.8510049819946289,0.9817565917968749
0.8543437957763672,0.9844562530517578
0.8543437957763672,0.9844562530517578
0.8538602828979492,0.9889766693115234
0.8538602828979492,0.9889766693115234
0.8549188613891602,0.9891065597534179
0.8549188613891602,0.9891065597534179
0.8592967987060547,0.9980306625366211
0.8592967987060547,0.9980306625366211
0.8578783035278320,1.0013099670410155
0.8578783035278320,1.0013099670410155
0.8637348175048828,1.0092704772949219
0.8637348175048828,1.0092704772949219
0.8650445938110352,1.0178318023681641
0.8650445938110352,1.0178318023681641
0.8681379318237304,1.0211791992187500
0.8681379318237304,1.0211791992187500
0.8724128723144531,1.0310405731201171
0.8724128723144531,1.0310405731201171
0.8715328216552735,1.0340744018554686
0.8715328216552735,1.0340744018554686
0.8762804031372070,1.0391727447509764
0.8762804031372070,1.0391727447509764
0.8770814895629883,1.0448381423950195
0.8770814895629883,1.0448381423950195
0.8782173156738281,1.0447036743164062
0.8782173156738281,1.0447036743164062
0.8814376831054688,1.0516937255859375
0.8814376831054688,1.0516937255859375
0.8795597076416015,1.0522218704223631
0.8795597076416015,1.0522218704223631
0.8842454910278320,1.0558731079101562
0.8842454910278320,1.0558731079101562
0.8836835861206055,1.0598911285400390
0.8836835861206055,1.0598911285400390
0.8845750808715820,1.0592193603515625
0.8845750808715820,1.0592193603515625
0.8876964569091796,1.0652229309082031
0.8876964569091796,1.0652229309082031
0.8858356475830078,1.0649717330932618
0.8858356475830078,1.0649717330932618
0.8888362884521485,1.0671924591064452
0.8888362884521485,1.0671924591064452
0.8881965637207031,1.0701639175415039
0.8881965637207031,1.0701639175415039
0.8881982803344727,1.0675987243652343
0.8881982803344727,1.0675987243652343
0.8910919189453125,1.0724767684936523
0.8910919189453125,1.0724767684936523
0.8876398086547851,1.0706239700317381
0.8876398086547851,1.0706239700317381
0.8909820556640625,1.0723239898681640
0.8909820556640625,1.0723239898681640
0.8895864486694336,1.0744176864624022
0.8895864486694336,1.0744176864624022
0.8900453567504882,1.0713472366333008
0.8900453567504882,1.0713472366333008
0.8919307708740234,1.0760164260864258
0.8919307708740234,1.0760164260864258
0.8888031005859375,1.0742380142211914
0.8888031005859375,1.0742380142211914
0.8918798446655273,1.0755552291870116
0.8918798446655273,1.0755552291870116
0.8910650253295899,1.0773187637329100
0.8934328079223632,1.0773187637329100
0.8902650833129883,1.0728939056396485
0.8902650833129883,1.0728939056396485
0.8916578292846680,1.0740772247314452
0.8916578292846680,1.0740772247314452
0.8852445602416992,1.0614223480224609
0.8852445602416992,1.0614223480224609
0.8813655853271484,1.0413866043090820
0.8813655853271484,1.0413866043090820
0.8704313278198242,1.0201234817504883
0.8704313278198242,1.0201234817504883
0.8622127532958984,0.9982984542846679
0.8622127532958984,0.9982984542846679
0.8585386276245117,0.9903476715087890
0.8585386276245117,0.9903476715087890
0.8521093368530274,0.9809492111206054
0.8521093368530274,0.9809492111206054
0.8528520584106445,0.9779371261596679
0.8528520584106445,0.9779371261596679
0.8501209259033203,0.9770256042480469
0.8501209259033203,0.9770256042480469
0.8492019653320312,0.9722305297851562
0.8492019653320312,0.9722305297851562
0.8513998031616211,0.9755613327026367
0.8513998031616211,0.9755613327026367
0.8478017807006836,0.9733526229858398
0.8478017807006836,0.9733526229858398
0.8510141372680664,0.9748981475830077
0.8510141372680664,0.9748981475830077
0.8497175216674805,0.9772521972656250
0.8526191711425781,0.9772521972656250
0.8504682540893554,0.9752460479736328
0.8504682540893554,0.9752460479736328
0.8528228759765625,0.9810264587402343
0.8528228759765625,0.9810264587402343
0.8506221771240234,0.9808027267456054
0.8506221771240234,0.9808027267456054
0.8545663833618163,0.9843492507934570
0.8545663833618163,0.9843492507934570
0.8547723770141601,0.9886470794677734
0.8579069137573242,0.9886470794677734
0.8559494018554688,0.9892827987670898
0.8547546386718750,0.9892827987670898
0.8590948104858398,0.9990720748901367
0.8590948104858398,0.9990720748901367
0.8663354873657226,1.0080162048339842
0.8663354873657226,1.0080162048339842
0.8635007858276367,1.0113618850708008
0.8635007858276367,1.0113618850708008
0.8688468933105469,1.0192777633666992
0.8688468933105469,1.0192777633666992
0.8671005249023437,1.0244316101074218
0.8671005249023437,1.0244316101074218
0.8718172073364258,1.0284891128540039
0.8718172073364258,1.0284891128540039
0.8742897033691406,1.0349515914916991
0.8742897033691406,1.0349515914916991
0.8729919433593750,1.0344125747680664
0.8729919433593750,1.0344125747680664
0.8760023117065430,1.0383161544799804
0.8760023117065430,1.0383161544799804
0.8740779876708984,1.0390354156494139
0.8740779876708984,1.0390354156494139
0.8765716552734375,1.0397043228149414
0.8765716552734375,1.0397043228149414
0.8779277801513672,1.0441503524780273
0.8779277801513672,1.0441503524780273
0.8754678726196289,1.0428354263305664
0.8754678726196289,1.0428354263305664
0.8801885604858398,1.0468786239624024
0.8801885604858398,1.0468786239624024
0.8778573989868164,1.0485569000244139
0.8778573989868164,1.0485569000244139
0.8802194595336914,1.0495891571044922
0.8802194595336914,1.0495891571044922
0.8807762145996093,1.0546108245849608
0.8807762145996093,1.0546108245849608
0.8803430557250976,1.0539344787597655
0.8803430557250976,1.0539344787597655
0.8844326019287109,1.0585527420043945
0.8844326019287109,1.0585527420043945
0.8820442199707031,1.0606178283691405
0.8820442199707031,1.0606178283691405
0.8843484878540039,1.0619155883789062
0.8843484878540039,1.0619155883789062
0.8870195388793946,1.0672296524047851
0.8870195388793946,1.0672296524047851
0.8856880187988281,1.0657419204711913
0.8856880187988281,1.0657419204711913
0.8896047592163085,1.0695270538330077
0.8896047592163085,1.0695270538330077
0.8857910156250000,1.0709341049194336
0.8857910156250000,1.0709341049194336
0.8891630172729492,1.0708700180053710
0.8891630172729492,1.0708700180053710
0.8904796600341797,1.0756353378295898
0.8904796600341797,1.0756353378295898
0.8888523101806640,1.0738557815551757
0.8888523101806640,1.0738557815551757
0.8923971176147460,1.0773153305053711
0.8911251068115235,1.0773153305053711
0.8896230697631836,1.0753652572631835
0.8896230697631836,1.0753652572631835
0.8895658493041992,1.0667409896850586
0.8895658493041992,1.0667409896850586
0.8844268798828124,1.0533931732177735
0.8844268798828124,1.0533931732177735
0.8731458663940429,1.0297370910644530
0.8731458663940429,1.0297370910644530
0.8698282241821289,1.0139791488647460
0.8698282241821289,1.0139791488647460
0.8605310440063476,1.0006856918334961
0.8605310440063476,1.0006856918334961
0.8585597991943359,0.9915521621704101
0.8585597991943359,0.9915521621704101
0.8561811447143555,0.9900003433227539
0.8561811447143555,0.9900003433227539
0.8530941009521484,0.9832838058471679
0.8530941009521484,0.9832838058471679
0.8552061080932617,0.9828935623168945
0.8552061080932617,0.9828935623168945
0.8506233215332031,0.9807929992675781
0.8506233215332031,0.9807929992675781
0.8510931015014648,0.9781179428100586
0.8510931015014648,0.9781179428100586
0.8522695541381836,0.9804931640625000
0.8522695541381836,0.9804931640625000
0.8497266769409180,0.9769203186035156
0.8497266769409180,0.9769203186035156
0.8533195495605469,0.9798540115356444
0.8533195495605469,0.9798540115356444
0.8494503021240234,0.9807809829711913
0.8494503021240234,0.9807809829711913
0.8527862548828125,0.9813383102416992
0.8527862548828125,0.9813383102416992
0.8545429229736328,0.9865922927856445
0.8545429229736328,0.9865922927856445
0.8532600402832031,0.9861454010009765
0.8532600402832031,0.9861454010009765
0.8569925308227538,0.9915744781494140
0.8569925308227538,0.9915744781494140
0.8561061859130860,0.9955009460449218
0.8561061859130860,0.9955009460449218
0.8601190567016601,0.9996700286865234
0.8601190567016601,0.9996700286865234
0.8631523132324218,1.0088956832885743
0.8631523132324218,1.0088956832885743
0.8629657745361328,1.0129743576049803
0.8629657745361328,1.0129743576049803
0.8701040267944335,1.0228740692138671
0.8701040267944335,1.0228740692138671
0.8700897216796875,1.0304803848266602
0.8700897216796875,1.0304803848266602
0.8746719360351562,1.0363025665283203
0.8746719360351562,1.0363025665283203
0.8770666122436523,1.0455459594726562
0.8770666122436523,1.0455459594726562
0.8780519485473632,1.0473655700683593
0.8780519485473632,1.0473655700683593
0.8828596115112305,1.0531007766723632
0.8828596115112305,1.0531007766723632
0.8807046890258788,1.0556493759155272
0.8807046890258788,1.0556493759155272
0.8825483322143555,1.0568000793457031
0.8825483322143555,1.0568000793457031
0.8850511550903321,1.0612792968750000
0.8850511550903321,1.0612792968750000
0.8833362579345703,1.0591878890991211
0.8833362579345703,1.0591878890991211
0.8866985321044921,1.0623836517333984
0.8866985321044921,1.0623836517333984
0.8827371597290039,1.0630102157592773
0.8827371597290039,1.0630102157592773
0.8859403610229492,1.0630233764648438
0.8859403610229492,1.0630233764648438
0.8874057769775391,1.0674682617187499
0.8874057769775391,1.0674682617187499
0.8853538513183593,1.0648618698120116
0.8853538513183593,1.0648618698120116
0.8878870010375977,1.0676507949829102
0.8878870010375977,1.0676507949829102
0.8856044769287109,1.0681789398193360
0.8856044769287109,1.0681789398193360
0.8882526397705078,1.0680484771728516
0.8857606887817383,1.0680484771728516
0.8892602920532227,1.0721883773803711
0.8892602920532227,1.0721883773803711
0.8863277435302734,1.0696489334106445
0.8863277435302734,1.0696489334106445
0.8907783508300781,1.0726186752319335
0.8907783508300781,1.0726186752319335
0.8875837326049805,1.0731840133666992
0.8875837326049805,1.0731840133666992
0.8901111602783203,1.0732692718505858
0.8901111602783203,1.0732692718505858
0.8911954879760742,1.0779081344604491
0.8911954879760742,1.0779081344604491
0.8901357650756836,1.0753652572631835
0.8901357650756836,1.0753652572631835
0.8936582565307617,1.0777708053588866
0.8936582565307617,1.0777708053588866
0.8899160385131836,1.0766778945922850
0.8899160385131836,1.0766778945922850
0.8901409149169922,1.0727348327636719
0.8901409149169922,1.0727348327636719
0.8885828018188476,1.0662214279174804
0.8873857498168946,1.0662214279174804
0.8792100906372070,1.0432353973388671
0.8792100906372070,1.0432353973388671
0.8731521606445313,1.0220832824707031
0.8731521606445313,1.0220832824707031
0.8601333618164062,1.0016790390014647
0.8601333618164062,1.0016790390014647
0.8565181732177735,0.9874746322631835
0.8565181732177735,0.9874746322631835
0.8535982131958008,0.9829101562500000
0.8535982131958008,0.9829101562500000
0.8491950988769531,0.9755367279052733
0.8491950988769531,0.9755367279052733
0.8505529403686524,0.9750915527343750
0.8505529403686524,0.9750915527343750
0.8472032546997070,0.9734521865844726
0.8472032546997070,0.9734521865844726
0.8491504669189452,0.9723077774047851
0.8491504669189452,0.9723077774047851
0.8500677108764648,0.9755813598632812
0.8500677108764648,0.9755813598632812
0.8473789215087890,0.9732158660888671
0.8473789215087890,0.9732158660888671
0.8516029357910156,0.9760923385620117
0.8516029357910156,0.9760923385620117
0.8487945556640625,0.9768201828002929
0.8487945556640625,0.9768201828002929
0.8511949539184570,0.9771852493286133
0.8511949539184570,0.9771852493286133
0.8516893386840820,0.9816221237182616
0.8516893386840820,0.9816221237182616
0.8510107040405274,0.9803197860717773
0.8510107040405274,0.9803197860717773
0.8551191329956055,0.9845071792602539
0.8551191329956055,0.9845071792602539
0.8527181625366210,0.9868349075317382
0.8527181625366210,0.9868349075317382
0.8549600601196289,0.9894567489624023
0.8549600601196289,0.9894567489624023
0.8586662292480468,0.9971712112426757
0.8586662292480468,0.9971712112426757
0.8589088439941406,1.0000144958496093
0.8589088439941406,1.0000144958496093
0.8646858215332031,1.0091159820556641
0.8646858215332031,1.0091159820556641
0.8633955001831054,1.0161872863769530
0.8633955001831054,1.0161872863769530
0.8692056655883789,1.0223161697387695
0.8692056655883789,1.0223161697387695
0.8727882385253906,1.0317661285400390
0.8727882385253906,1.0317661285400390
0.8726989746093750,1.0337276458740234
0.8726989746093750,1.0337276458740234
0.8767816543579101,1.0397466659545898
0.8767816543579101,1.0397466659545898
0.8757196426391601,1.0425069808959961
0.8757196426391601,1.0425069808959961
0.8786521911621094,1.0435695648193359
0.8786521911621094,1.0435695648193359
0.8798744201660156,1.0481254577636718
0.8798744201660156,1.0481254577636718
0.8770191192626953,1.0455202102661132
0.8770191192626953,1.0455202102661132
0.8813913345336913,1.0481975555419922
0.8813913345336913,1.0481975555419922
0.8776233673095702,1.0481615066528320
0.8776233673095702,1.0481615066528320
0.8795934677124023,1.0474800109863280
0.8795934677124023,1.0474800109863280
0.8799568176269531,1.0518167495727540
0.8799568176269531,1.0518167495727540
0.8791133880615234,1.0500217437744139
0.8791133880615234,1.0500217437744139
0.8834798812866210,1.0540958404541014
0.8820997238159179,1.0540958404541014
0.8803075790405274,1.0556453704833983
0.8803075790405274,1.0556453704833983
0.8821901321411133,1.0564630508422852
0.8821901321411133,1.0564630508422852
0.8847496032714843,1.0614028930664061
0.8847496032714843,1.0614028930664061
0.8827766418457031,1.0596061706542967
0.8827766418457031,1.0596061706542967
0.8870389938354492,1.0641059875488281
0.8862522125244140,1.0641059875488281
0.8841339111328125,1.0670259475708008
0.8841339111328125,1.0670259475708008
0.8882171630859375,1.0679540634155273
0.8882171630859375,1.0679540634155273
0.8905963897705078,1.0727628707885741
0.8905963897705078,1.0727628707885741
0.8882984161376953,1.0707292556762695
0.8882984161376953,1.0707292556762695
0.8913265228271484,1.0736589431762695
0.8913265228271484,1.0736589431762695
0.8887241363525390,1.0733877182006835
0.8887241363525390,1.0733877182006835
0.8899658203124999,1.0697696685791016
0.8862333297729492,1.0697696685791016
0.8881919860839843,1.0640024185180663
0.8881919860839843,1.0640024185180663
0.8782230377197265,1.0424869537353516
0.8782230377197265,1.0424869537353516
0.8735177993774413,1.0219860076904297
0.8735177993774413,1.0219860076904297
0.8617424011230469,1.0028892517089842
0.8617424011230469,1.0028892517089842
0.8576179504394531,0.9891242980957031
0.8576179504394531,0.9891242980957031
0.8537200927734375,0.9846628189086913
0.8537200927734375,0.9846628189086913
0.8497037887573242,0.9765266418457030
0.8497037887573242,0.9765266418457030
0.8517620086669921,0.9755109786987304
0.8517620086669921,0.9755109786987304
0.8470613479614257,0.9735019683837890
0.8470613479614257,0.9735019683837890
0.8476278305053710,0.9716136932373046
0.8476278305053710,0.9716136932373046
0.8493461608886719,0.9744976043701171
0.8493461608886719,0.9744976043701171
0.8471363067626952,0.9714340209960937
0.8471363067626952,0.9714340209960937
0.8504293441772460,0.9741193771362304
0.8504293441772460,0.9741193771362304
0.8464490890502929,0.9746023178100586
0.8464490890502929,0.9746023178100586
0.8495189666748046,0.9742418289184570
0.8495189666748046,0.9742418289184570
0.8507995605468750,0.9785173416137695
0.8507995605468750,0.9785173416137695
0.8490549087524414,0.9770112991333008
0.8490549087524414,0.9770112991333008
0.8522981643676758,0.9813949584960937
0.8522981643676758,0.9813949584960937
0.8512041091918945,0.9841363906860351
0.8512041091918945,0.9841363906860351
0.8547803878784179,0.9868412017822266
0.8532531738281249,0.9868412017822266
0.8574600219726562,0.9946409225463867
0.8600612640380859,0.9946409225463867
0.8567922592163085,0.9974235534667968
0.8567922592163085,0.9974235534667968
0.8638687133789062,1.0060861587524415
0.8638687133789062,1.0060861587524415
0.8636718750000000,1.0134172439575195
0.8636718750000000,1.0134172439575195
0.8685728073120117,1.0197080612182616
0.8685728073120117,1.0197080612182616
0.8715745925903320,1.0301668167114257
0.8715745925903320,1.0301668167114257
0.8729267120361328,1.0335479736328124
0.8729267120361328,1.0335479736328124
0.8787054061889649,1.0407228469848633
0.8787054061889649,1.0407228469848633
0.8767112731933594,1.0443340301513671
0.8767112731933594,1.0443340301513671
0.8786390304565429,1.0456346511840819
0.8786390304565429,1.0456346511840819
0.8812746047973633,1.0505807876586915
0.8812746047973633,1.0505807876586915
0.8794240951538086,1.0488029479980467
0.8794240951538086,1.0488029479980467
0.8830513000488281,1.0518596649169922
0.8830513000488281,1.0518596649169922
0.8790161132812500,1.0530618667602538
0.8790161132812500,1.0530618667602538
0.8824213027954101,1.0535516738891602
0.8824213027954101,1.0535516738891602
0.8842220306396484,1.0587404251098633
0.8842220306396484,1.0587404251098633
0.8825981140136718,1.0575496673583984
0.8825981140136718,1.0575496673583984
0.8858304977416992,1.0612667083740235
0.8858304977416992,1.0612667083740235
0.8839960098266602,1.0627904891967772
0.8839960098266602,1.0627904891967772
0.8863014221191406,1.0631521224975586
0.8863014221191406,1.0631521224975586
0.8876844406127929,1.0673023223876952
0.8876844406127929,1.0673023223876952
0.8851078033447265,1.0655244827270507
0.8851078033447265,1.0655244827270507
0.8903022766113281,1.0693519592285157
0.8903022766113281,1.0693519592285157
0.8879379272460938,1.0709329605102538
0.8879379272460938,1.0709329605102538
0.8900619506835937,1.0704231262207031
0.8900619506835937,1.0704231262207031
0.8903142929077148,1.0740159988403319
0.8903142929077148,1.0740159988403319
0.8889003753662109,1.0713712692260742
0.8889003753662109,1.0713712692260742
0.8922632217407226,1.0736063003540040
0.8922632217407226,1.0736063003540040
0.8886514663696289,1.0731021881103515
0.8886514663696289,1.0731021881103515
0.8892780303955078,1.0711921691894530
0.8892780303955078,1.0711921691894530
0.8899709701538085,1.0714456558227539
0.8899709701538085,1.0714456558227539
0.8847558975219726,1.0588937759399413
0.8847558975219726,1.0588937759399413
0.8810073852539062,1.0416692733764648
0.8751131057739258,1.0416692733764648
0.8676658630371094,1.0182798385620118
0.8676658630371094,1.0182798385620118
0.8619112014770508,0.9979333877563477
0.8619112014770508,0.9979333877563477
0.8571229934692383,0.9887088775634765
0.8571229934692383,0.9887088775634765
0.8512172698974609,0.9785253524780273
0.8512172698974609,0.9785253524780273
0.8517236709594727,0.9763692855834960
0.8517236709594727,0.9763692855834960
0.8480375289916992,0.9739110946655273
0.8480375289916992,0.9739110946655273
0.8494903564453125,0.9714986801147460
0.8494903564453125,0.9714986801147460
0.8497346878051758,0.9739128112792969
0.8497346878051758,0.9739128112792969
0.8465629577636719,0.9706678390502930
0.8465629577636719,0.9706678390502930
0.8509305953979492,0.9729286193847656
0.8509305953979492,0.9729286193847656
0.8476518630981446,0.9731655120849609
0.8476518630981446,0.9731655120849609
0.8496671676635742,0.9726648330688477
0.8496671676635742,0.9726648330688477
0.8500350952148438,0.9763252258300781
0.8500350952148438,0.9763252258300781
0.8489112854003906,0.9743556976318359
0.8489112854003906,0.9743556976318359
0.8530529022216796,0.9780143737792968
0.8530529022216796,0.9780143737792968
0.8501804351806640,0.9799209594726562
0.8501804351806640,0.9799209594726562
0.8526723861694335,0.9818761825561523
0.8526723861694335,0.9818761825561523
0.8559242248535156,0.9886882781982421
0.8559242248535156,0.9886882781982421
0.8553514480590820,0.9901170730590820
0.8553514480590820,0.9901170730590820
0.8609453201293945,0.9976055145263671
0.8609453201293945,0.9976055145263671
0.8590032577514648,1.0034420013427734
0.8590032577514648,1.0034420013427734
0.8640008926391601,1.0080791473388671
0.8640008926391601,1.0080791473388671
0.8674255371093750,1.0167943954467773
0.8674255371093750,1.0167943954467773
0.8665981292724609,1.0178506851196290
0.8665981292724609,1.0178506851196290
0.8709560394287109,1.0236974716186522
0.8709560394287109,1.0236974716186522
0.8690380096435547,1.0260978698730467
0.8690380096435547,1.0260978698730467
0.8718355178833007,1.0265121459960938
0.8718355178833007,1.0265121459960938
0.8735567092895508,1.0315132141113281
0.8735567092895508,1.0315132141113281
0.8707454681396484,1.0297061920166015
0.8707454681396484,1.0297061920166015
0.8762655258178711,1.0346786499023437
0.8762655258178711,1.0346786499023437
0.8741712570190430,1.0382955551147461
0.8741712570190430,1.0382955551147461
0.8776325225830078,1.0413557052612303
0.8776325225830078,1.0413557052612303
0.8799127578735352,1.0490615844726563
0.8799127578735352,1.0490615844726563
0.8795831680297851,1.0499193191528320
0.8795831680297851,1.0499193191528320
0.8848686218261719,1.0558742523193358
0.8848686218261719,1.0558742523193358
0.8820184707641602,1.0583702087402342
0.8820184707641602,1.0583702087402342
0.8845533370971680,1.0600101470947265
0.8845533370971680,1.0600101470947265
0.8879487991333007,1.0663192749023438
0.8879487991333007,1.0663192749023438
0.8865926742553710,1.0649442672729492
0.8865926742553710,1.0649442672729492
0.8908819198608399,1.0684913635253905
0.8908819198608399,1.0684913635253905
0.8868083953857422,1.0695453643798827
0.8868083953857422,1.0695453643798827
0.8897741317749023,1.0691608428955077
0.8897741317749023,1.0691608428955077
0.8911977767944336,1.0729305267333984
0.8911977767944336,1.0729305267333984
0.8880947113037109,1.0694211959838866
0.8880947113037109,1.0694211959838866
0.8902307510375976,1.0717260360717773
0.8902307510375976,1.0717260360717773
0.8877805709838867,1.0726278305053711
0.8918535232543945,1.0726278305053711
0.8900568008422851,1.0720922470092773
0.8900568008422851,1.0720922470092773
0.8912361145019531,1.0758533477783203
0.8912361145019531,1.0758533477783203
0.8870779037475586,1.0712041854858398
0.8870779037475586,1.0712041854858398
0.8901494979858399,1.0688713073730469
0.8872999191284180,1.0688713073730469
0.8817924499511719,1.0553380966186523
0.8817924499511719,1.0553380966186523
0.8758913040161133,1.0330547332763671
0.8758913040161133,1.0330547332763671
0.8681030273437500,1.0161993026733398
0.8681030273437500,1.0161993026733398
0.8595451354980469,0.9976753234863280
0.8595451354980469,0.9976753234863280
0.8587646484375000,0.9902521133422851
0.8587646484375000,0.9902521133422851
0.8525259017944335,0.9845764160156250
0.8525259017944335,0.9845764160156250
0.8522254943847656,0.9804336547851562
0.8522254943847656,0.9804336547851562
0.8533378601074219,0.9814367294311523
0.8533378601074219,0.9814367294311523
0.8504013061523438,0.9773666381835937
0.8504013061523438,0.9773666381835937
0.8534694671630859,0.9786071777343750
0.8534694671630859,0.9786071777343750
0.8494405746459961,0.9786489486694335
0.8494405746459961,0.9786489486694335
0.8523239135742188,0.9778707504272460
0.8523239135742188,0.9778707504272460
0.8538133621215820,0.9817783355712890
0.8538133621215820,0.9817783355712890
0.8516698837280273,0.9799953460693359
0.8516698837280273,0.9799953460693359
0.8548770904541015,0.9831567764282226
0.8548770904541015,0.9831567764282226
0.8532428741455078,0.9851829528808593
0.8532428741455078,0.9851829528808593
0.8560976028442383,0.9867244720458984
0.8560976028442383,0.9867244720458984
0.8588172912597656,0.9936779022216796
0.8588172912597656,0.9936779022216796
0.8572374343872070,0.9956102371215820
0.8572374343872070,0.9956102371215820
0.8638818740844726,1.0036966323852539
0.8638818740844726,1.0036966323852539
0.8636804580688476,1.0111461639404296
0.8636804580688476,1.0111461639404296
0.8683359146118164,1.0180503845214843
0.8683359146118164,1.0180503845214843
0.8717731475830078,1.0291940689086914
0.8717731475830078,1.0291940689086914
0.8729576110839844,1.0333711624145507
0.8729576110839844,1.0333711624145507
0.8788484573364258,1.0406644821166993
0.8788484573364258,1.0406644821166993
0.8769664764404297,1.0446315765380858
0.8769664764404297,1.0446315765380858
0.8787729263305664,1.0457456588745118
0.8787729263305664,1.0457456588745118
0.8816293716430664,1.0507083892822264
0.8816293716430664,1.0507083892822264
0.8793714523315429,1.0490415573120118
0.8793714523315429,1.0490415573120118
0.8834907531738281,1.0527528762817382
0.8834907531738281,1.0527528762817382
0.8796426773071289,1.0541645050048827
0.8796426773071289,1.0541645050048827
0.8827474594116210,1.0543813705444336
0.8827474594116210,1.0543813705444336
0.8845075607299805,1.0589836120605469
0.8845075607299805,1.0589836120605469
0.8824075698852539,1.0573087692260741
0.8824075698852539,1.0573087692260741
0.8859283447265625,1.0607831954956055
0.8859283447265625,1.0607831954956055
0.8845767974853516,1.0630537033081053
0.8845767974853516,1.0630537033081053
0.8872827529907227,1.0631446838378906
0.8872827529907227,1.0631446838378906
0.8886543273925781,1.0672204971313477
0.8886543273925781,1.0672204971313477
0.8853200912475586,1.0650363922119139
0.8853200912475586,1.0650363922119139
0.8904373168945312,1.0679723739624023
0.8904373168945312,1.0679723739624023
0.8874561309814453,1.0693164825439452
0.8874561309814453,1.0693164825439452
0.8894393920898437,1.0688186645507811
0.8894393920898437,1.0688186645507811
0.8899915695190429,1.0726438522338866
0.8899915695190429,1.0726438522338866
0.8882091522216796,1.0700014114379883
0.8882091522216796,1.0700014114379883
0.8923593521118164,1.0726598739624023
0.8923593521118164,1.0726598739624023
0.8888980865478515,1.0736148834228516
0.8888980865478515,1.0736148834228516
0.8899629592895507,1.0725488662719727
0.8899629592895507,1.0725488662719727
0.8922266006469727,1.0759540557861327
0.8922266006469727,1.0759540557861327
0.8890903472900390,1.0717180252075196
0.8890903472900390,1.0717180252075196
0.8916343688964844,1.0706829071044921
0.8916343688964844,1.0706829071044921
0.8841756820678711,1.0612792968750000
0.8841756820678711,1.0612792968750000
0.8802566528320312,1.0412057876586913
0.8802566528320312,1.0412057876586913
0.8729558944702148,1.0227561950683592
0.8622093200683594,1.0017230987548829
0.8622093200683594,1.0017230987548829
0.8593700408935546,0.9920974731445312
0.8593700408935546,0.9920974731445312
0.8534219741821288,0.9853477478027344
0.8534219741821288,0.9853477478027344
0.8527061462402343,0.9788801193237304
0.8527061462402343,0.9788801193237304
0.8524532318115234,0.9796188354492187
0.8524532318115234,0.9796188354492187
0.8480895996093750,0.9747093200683593
0.8480895996093750,0.9747093200683593
0.8523210525512696,0.9755424499511718
0.8523210525512696,0.9755424499511718
0.8486869812011718,0.9748746871948242
0.8486869812011718,0.9748746871948242
0.8502519607543945,0.9734458923339844
0.8502519607543945,0.9734458923339844
0.8508075714111328,0.9770410537719726
0.8508075714111328,0.9770410537719726
0.8492666244506836,0.9743333816528320
0.8492666244506836,0.9743333816528320
0.8534746170043945,0.9772499084472656
0.8534746170043945,0.9772499084472656
0.8504636764526367,0.9788686752319335
0.8504636764526367,0.9788686752319335
0.8518163681030273,0.9798620223999023
0.8518163681030273,0.9798620223999023
0.8518163681030273,0.9813022613525391
0.8565868377685547,0.9850032806396484
0.8565868377685547,0.9850032806396484
0.8565233230590820,0.9910394668579101
0.8565233230590820,0.9910394668579101
0.8581300735473633,0.9933746337890624
0.8581300735473633,0.9933746337890624
0.8632049560546875,1.0039283752441406
0.8632049560546875,1.0039283752441406
0.8629594802856445,1.0090307235717773
0.8629594802856445,1.0090307235717773
0.8681041717529296,1.0156797409057616
0.8681041717529296,1.0156797409057616
0.8691833496093749,1.0234823226928711
0.8691833496093749,1.0234823226928711
0.8706768035888671,1.0247777938842773
0.8706768035888671,1.0247777938842773
0.8757299423217774,1.0330982208251953
0.8757299423217774,1.0330982208251953
0.8732625961303710,1.0348840713500975
0.8732625961303710,1.0348840713500975
0.8777904510498047,1.0385181427001953
0.8777904510498047,1.0385181427001953
0.8775564193725586,1.0432920455932617
0.8775564193725586,1.0432920455932617
0.8780422210693359,1.0415651321411132
0.8780422210693359,1.0415651321411132
0.8809072494506835,1.0471750259399413
0.8809072494506835,1.0471750259399413
0.8786493301391601,1.0489225387573242
0.8786493301391601,1.0489225387573242
0.8832847595214843,1.0515998840332030
0.8832847595214843,1.0515998840332030
0.8837591171264648,1.0563217163085936
0.8837591171264648,1.0563217163085936
0.8838472366333008,1.0548379898071290
0.8838472366333008,1.0548379898071290
0.8873760223388671,1.0603746414184569
0.8873760223388671,1.0603746414184569
0.8843061447143554,1.0607128143310547
0.8843061447143554,1.0607128143310547
0.8888803482055664,1.0629861831665040
0.8888803482055664,1.0629861831665040
0.8880117416381835,1.0668828964233399
0.8880117416381835,1.0668828964233399
0.8876884460449218,1.0644756317138671
0.8876884460449218,1.0644756317138671
0.8902547836303710,1.0684930801391601
0.8902547836303710,1.0684930801391601
0.8869668960571289,1.0673006057739258
0.8869668960571289,1.0673006057739258
0.8894308090209960,1.0674962997436523
0.8894308090209960,1.0674962997436523
0.8881845474243164,1.0698394775390625
0.8881845474243164,1.0698394775390625
0.8876569747924804,1.0669046401977538
0.8876569747924804,1.0669046401977538
0.8909214019775390,1.0711555480957031
0.8909214019775390,1.0711555480957031
0.8873107910156249,1.0699533462524413
0.8873107910156249,1.0699533462524413
0.8905912399291992,1.0707738876342774
0.8905912399291992,1.0707738876342774
0.8895114898681641,1.0729156494140624
0.8895114898681641,1.0729156494140624
0.8893964767456054,1.0690166473388671
0.8868461608886719,1.0690166473388671
0.8908058166503906,1.0700483322143555
0.8908058166503906,1.0700483322143555
0.8849006652832031,1.0602653503417969
0.8849006652832031,1.0602653503417969
0.8815784454345703,1.0431266784667967
0.8815784454345703,1.0431266784667967
0.8728620529174804,1.0235263824462890
0.8728620529174804,1.0235263824462890
0.8641519546508789,1.0025459289550780
0.8641519546508789,1.0025459289550780
0.8613727569580077,0.9948028564453124
0.8613727569580077,0.9948028564453124
0.8550378799438476,0.9867622375488281
0.8550378799438476,0.9867622375488281
0.8564197540283203,0.9832592010498047
0.8564197540283203,0.9832592010498047
0.8542110443115234,0.9828060150146484
0.8542110443115234,0.9828060150146484
0.8531009674072265,0.9781499862670898
0.8531009674072265,0.9781499862670898
0.8551820755004883,0.9808988571166992
0.8551820755004883,0.9808988571166992
0.8528028488159179,0.9797613143920898
0.8528028488159179,0.9797613143920898
0.8551975250244140,0.9801898956298828
0.8551975250244140,0.9801898956298828
0.8545686721801757,0.9829307556152344
0.8545686721801757,0.9829307556152344
0.8542865753173828,0.9808313369750976
0.8542865753173828,0.9808313369750976
0.8579292297363281,0.9860401153564453
0.8579292297363281,0.9860401153564453
0.8549697875976562,0.9864326477050781
0.8549697875976562,0.9864326477050781
0.8585460662841796,0.9894315719604492
0.8585460662841796,0.9894315719604492
0.8586313247680664,0.9944257736206055
0.8586313247680664,0.9944257736206055
0.8600584030151367,0.9954666137695312
0.8600584030151367,0.9954666137695312
0.8643688201904297,1.0042865753173829
0.8643688201904297,1.0042865753173829
0.8635974884033203,1.0096206665039062
0.8635974884033203,1.0096206665039062
0.8691061019897460,1.0173494338989257
0.8691061019897460,1.0173494338989257
0.8716260910034179,1.0270620346069335
0.8716260910034179,1.0270620346069335
0.8735996246337890,1.0309392929077148
0.8735996246337890,1.0309392929077148
0.8784576416015625,1.0406908035278319
0.8784576416015625,1.0406908035278319
0.8770082473754882,1.0438488006591797
0.8770082473754882,1.0438488006591797
0.8815132141113281,1.0472797393798827
0.8815132141113281,1.0472797393798827
0.8810073852539062,1.0518934249877929
0.8810073852539062,1.0518934249877929
0.8819732666015625,1.0513263702392577
0.8819732666015625,1.0513263702392577
0.8855546951293946,1.0566638946533202
0.8855546951293946,1.0566638946533202
0.8832527160644531,1.0565660476684571
0.8832527160644531,1.0565660476684571
0.8861738204956054,1.0579587936401367
0.8861738204956054,1.0579587936401367
0.8856502532958984,1.0607545852661133
0.8856502532958984,1.0607545852661133
0.8852680206298827,1.0583559036254881
0.8852680206298827,1.0583559036254881
0.8886039733886718,1.0628562927246092
0.8886039733886718,1.0628562927246092
0.8850751876831054,1.0620088577270508
0.8850751876831054,1.0620088577270508
0.8881067276000977,1.0633169174194335
0.8881067276000977,1.0633169174194335
0.8875648498535156,1.0662425994873046
0.8875648498535156,1.0662425994873046
0.8878274917602539,1.0640830993652344
0.8878274917602539,1.0640830993652344
0.8906238555908202,1.0683752059936522
0.8906238555908202,1.0683752059936522
0.8878824234008789,1.0683122634887694
0.8878824234008789,1.0683122634887694
0.8907863616943359,1.0693960189819336
0.8907863616943359,1.0693960189819336
0.8904573440551757,1.0719732284545898
0.8904573440551757,1.0719732284545898
0.8900064468383789,1.0695384979248046
0.8900064468383789,1.0695384979248046
0.8928417205810547,1.0739988327026366
0.8928417205810547,1.0739988327026366
0.8898874282836914,1.0730878829956054
0.8898874282836914,1.0730878829956054
0.8931529998779296,1.0740674972534179
0.8931529998779296,1.0740674972534179
0.8920045852661133,1.0763231277465819
0.8920045852661133,1.0763231277465819
0.8915822982788085,1.0738855361938475
0.8915822982788085,1.0738855361938475
0.8939517974853516,1.0773090362548827
0.8939517974853516,1.0773090362548827
0.8912773132324219,1.0749727249145506
0.8912773132324219,1.0749727249145506
0.8922586441040039,1.0717958450317382
0.8922586441040039,1.0717958450317382
0.8881742477416992,1.0635206222534179
0.8881742477416992,1.0635206222534179
0.8806657791137695,1.0411182403564452
0.8744213104248046,1.0411182403564452
0.8747074127197265,1.0226366043090820
0.8747074127197265,1.0226366043090820
0.8636381149291992,1.0033779144287109
0.8636381149291992,1.0033779144287109
0.8612028121948242,0.9922651290893554
0.8612028121948242,0.9922651290893554
0.8570726394653320,0.9875890731811523
0.8570726394653320,0.9875890731811523
0.8551912307739258,0.9808107376098633
0.8551912307739258,0.9808107376098633
0.8564071655273438,0.9817005157470703
0.8564071655273438,0.9817005157470703
0.8526752471923827,0.9791284561157226
0.8526752471923827,0.9791284561157226
0.8550567626953125,0.9789018630981445
0.8550567626953125,0.9789018630981445
0.8545389175415039,0.9808696746826171
0.8545389175415039,0.9808696746826171
0.8535964965820312,0.9782415390014648
0.8535964965820312,0.9782415390014648
0.8566720962524413,0.9826898574829102
0.8566720962524413,0.9826898574829102
0.8537298202514648,0.9826744079589843
0.8537298202514648,0.9826744079589843
0.8574239730834960,0.9844928741455078
0.8574239730834960,0.9844928741455078
0.8569473266601563,0.9883581161499023
0.8569473266601563,0.9883581161499023
0.8570903778076172,0.9878854751586914
0.8570903778076172,0.9878854751586914
0.8613481521606445,0.9950345993041991
0.8613481521606445,0.9950345993041991
0.8599102020263671,0.9980810165405273
0.8599102020263671,0.9980810165405273
0.8643682479858398,1.0040777206420899
0.8643682479858398,1.0040777206420899
0.8663537979125976,1.0134922027587889
0.8663537979125976,1.0134922027587889
0.8683559417724609,1.0183130264282225
0.8683559417724609,1.0183130264282225
0.8746810913085937,1.0299688339233397
0.8746810913085937,1.0299688339233397
0.8743383407592773,1.0364255905151367
0.8743383407592773,1.0364255905151367
0.8801101684570313,1.0441131591796875
0.8801101684570313,1.0441131591796875
0.8821025848388672,1.0523397445678710
0.8821025848388672,1.0523397445678710
0.8841619491577148,1.0539442062377928
0.8841619491577148,1.0539442062377928
0.8878761291503906,1.0596244812011719
0.8878761291503906,1.0596244812011719
0.8853326797485351,1.0603345870971679
0.8853326797485351,1.0603345870971679
0.8884019851684570,1.0618320465087889
0.8884019851684570,1.0618320465087889
0.8887933731079102,1.0652481079101561
0.8887933731079102,1.0652481079101561
0.8879281997680664,1.0631423950195311
0.8879281997680664,1.0631423950195311
0.8910793304443360,1.0674951553344727
0.8910793304443360,1.0674951553344727
0.8877651214599609,1.0669561386108397
0.8877651214599609,1.0669561386108397
0.8908664703369140,1.0674007415771485
0.8908664703369140,1.0674007415771485
0.8895080566406249,1.0695894241333008
0.8895080566406249,1.0695894241333008
0.8886468887329101,1.0667644500732421
0.8886468887329101,1.0667644500732421
0.8912338256835938,1.0703899383544921
0.8912338256835938,1.0703899383544921
0.8884014129638672,1.0693473815917969
0.8884014129638672,1.0693473815917969
0.8905998229980469,1.0698308944702148
0.8905998229980469,1.0698308944702148
0.8899744033813476,1.0721918106079100
0.8899744033813476,1.0721918106079100
0.8891040802001953,1.0693868637084960
0.8891040802001953,1.0693868637084960
0.8924365997314453,1.0728590011596679
0.8924365997314453,1.0728590011596679
0.8889261245727539,1.0719881057739258
0.8889261245727539,1.0719881057739258
0.8915840148925781,1.0728012084960936
0.8915840148925781,1.0728012084960936
0.8911256790161133,1.0753440856933594
0.8911256790161133,1.0753440856933594
0.8911520004272461,1.0731170654296875
0.8911520004272461,1.0731170654296875
0.8936124801635742,1.0766361236572266
0.8936124801635742,1.0766361236572266
0.8907176971435546,1.0755987167358398
0.8907176971435546,1.0755987167358398
0.8927312850952148,1.0750551223754883
0.8927312850952148,1.0750551223754883
0.8919633865356446,1.0743747711181639
0.8919633865356446,1.0743747711181639
0.8882194519042969,1.0625856399536133
0.8838958740234375,1.0625856399536133
0.8848400115966797,1.0485677719116211
0.8848400115966797,1.0485677719116211
0.8742794036865235,1.0275724411010743
0.8742794036865235,1.0275724411010743
0.8699254989624023,1.0101654052734375
0.8699254989624023,1.0101654052734375
0.8633342742919922,0.9995063781738280
0.8633342742919922,0.9995063781738280
0.8591611862182617,0.9895895004272460
0.8591611862182617,0.9895895004272460
0.8599491119384766,0.9885887145996093
0.8599491119384766,0.9885887145996093
0.8562108993530273,0.9851308822631836
0.8562108993530273,0.9851308822631836
0.8572443008422851,0.9835321426391601
0.8572443008422851,0.9835321426391601
0.8562767028808593,0.9849758148193359
0.8562767028808593,0.9849758148193359
0.8550189971923828,0.9815694808959960
0.8550189971923828,0.9815694808959960
0.8582777023315430,0.9849740982055664
0.8582777023315430,0.9849740982055664
0.8573232650756836,0.9875003814697265
0.8573232650756836,0.9868005752563476
0.8531610488891601,0.9850090026855468
0.8531610488891601,0.9850090026855468
0.8590393066406250,0.9900587081909179
0.8590393066406250,0.9900587081909179
0.8583824157714843,0.9951490402221679
0.8583824157714843,0.9951490402221679
0.8610872268676758,0.9986612319946289
0.8610872268676758,0.9986612319946289
0.8642692565917969,1.0085311889648436
0.8642692565917969,1.0085311889648436
0.8645702362060547,1.0138292312622070
0.8645702362060547,1.0138292312622070
0.8721714019775391,1.0253580093383790
0.8721714019775391,1.0253580093383790
0.8734027862548828,1.0356571197509765
0.8734027862548828,1.0356571197509765
0.8770448684692382,1.0415491104125976
0.8770448684692382,1.0415491104125976
0.8820585250854492,1.0500995635986328
0.8820585250854492,1.0500995635986328
0.8800271987915039,1.0501218795776366
0.8800271987915039,1.0501218795776366
0.8849842071533203,1.0542915344238282
0.8849842071533203,1.0542915344238282
0.8823898315429687,1.0565288543701172
0.8823898315429687,1.0565288543701172
0.8845745086669922,1.0556350708007811
0.8845745086669922,1.0556350708007811
0.8864753723144531,1.0600679397583008
0.8864753723144531,1.0600679397583008
0.8832681655883788,1.0579530715942382
0.8832681655883788,1.0579530715942382
0.8868913650512695,1.0607791900634764
0.8868913650512695,1.0607791900634764
0.8855272293090820,1.0624591827392578
0.8855272293090820,1.0624591827392578
0.8870653152465821,1.0616706848144530
0.8870653152465821,1.0616706848144530
0.8888574600219726,1.0660074234008790
0.8888574600219726,1.0660074234008790
0.8849676132202148,1.0639451980590819
0.8849676132202148,1.0639451980590819
0.8901266098022461,1.0669921874999999
0.8901266098022461,1.0669921874999999
0.8883087158203125,1.0691007614135741
0.8883087158203125,1.0691007614135741
0.8898759841918945,1.0680473327636719
0.8898759841918945,1.0680473327636719
0.8906381607055663,1.0719772338867186
0.8906381607055663,1.0719772338867186
0.8883333206176758,1.0697233200073242
0.8883333206176758,1.0697233200073242
0.8927644729614258,1.0725259780883789
0.8927644729614258,1.0725259780883789
0.8904739379882812,1.0741212844848633
0.8904739379882812,1.0741212844848633
0.8904750823974609,1.0726140975952148
0.8904750823974609,1.0726140975952148
0.8931701660156249,1.0763734817504882
0.8931701660156249,1.0763734817504882
0.8899475097656250,1.0735588073730469
0.8899475097656250,1.0735588073730469
0.8936216354370117,1.0756422042846678
0.8936216354370117,1.0756422042846678
0.8903778076171874,1.0766057968139648
0.8903778076171874,1.0766057968139648
0.8919141769409179,1.0742929458618165
0.8919141769409179,1.0742929458618165
0.8932582855224609,1.0765365600585937
0.8932582855224609,1.0765365600585937
0.8886451721191406,1.0708087921142577
0.8886451721191406,1.0708087921142577
0.8895298004150390,1.0670013427734375
0.8895298004150390,1.0670013427734375
0.8826684951782227,1.0506385803222655
0.8826684951782227,1.0506385803222655
0.8741701126098632,1.0244047164916992
0.8741701126098632,1.0244047164916992
0.8669311523437500,1.0065084457397460
0.8639385223388671,1.0065084457397460
0.8559133529663085,0.9888072967529297
0.8542831420898437,0.9888072967529297
0.8567029953002929,0.9829479217529297
0.8567029953002929,0.9829479217529297
0.8527301788330078,0.9795867919921875
0.8527301788330078,0.9795867919921875
0.8519594192504882,0.9749479293823242
0.8519594192504882,0.9749479293823242
0.8523210525512696,0.9771629333496094
0.8528228759765625,0.9771629333496094
0.8491247177124023,0.9731689453125000
0.8491247177124023,0.9731689453125000
0.8531284332275391,0.9752008438110351
0.8531284332275391,0.9752008438110351
0.8510564804077149,0.9768064498901367
0.8510564804077149,0.9768064498901367
0.8513523101806640,0.9751064300537109
0.8513523101806640,0.9751064300537109
0.8544616699218750,0.9799232482910156
0.8544616699218750,0.9799232482910156
0.8511188507080077,0.9776681900024413
0.8511188507080077,0.9776681900024413
0.8560438156127930,0.9821239471435547
0.8560438156127930,0.9821239471435547
0.8541549682617188,0.9860824584960937
0.8541549682617188,0.9860824584960937
0.8566577911376952,0.9872314453125000
0.8566577911376952,0.9872314453125000
0.8602220535278320,0.9961475372314452
0.8602220535278320,0.9961475372314452
0.8597745895385742,1.0004711151123047
0.8597745895385742,1.0004711151123047
0.8673809051513671,1.0119546890258788
0.8673809051513671,1.0119546890258788
0.8695220947265625,1.0215734481811523
0.8695220947265625,1.0215734481811523
0.8733879089355469,1.0274774551391601
0.8733879089355469,1.0274774551391601
0.8781160354614258,1.0383579254150390
0.8781160354614258,1.0383579254150390
0.8759450912475586,1.0405935287475585
0.8759450912475586,1.0405935287475585
0.8825305938720703,1.0470726013183593
0.8825305938720703,1.0470726013183593
0.8817684173583984,1.0514213562011718
0.8817684173583984,1.0514213562011718
0.8832910537719726,1.0513257980346680
0.8832910537719726,1.0513257980346680
0.8848388671874999,1.0564149856567382
0.8848388671874999,1.0564149856567382
0.8822914123535156,1.0536243438720703
0.8822914123535156,1.0536243438720703
0.8863706588745117,1.0561403274536132
0.8863706588745117,1.0561403274536132
0.8833614349365234,1.0560573577880858
0.8833614349365234,1.0560573577880858
0.8825620651245117,1.0535116195678711
0.8825620651245117,1.0535116195678711
0.8852628707885742,1.0573390960693358
0.8852628707885742,1.0573390960693358
0.8817020416259765,1.0541101455688475
0.8817020416259765,1.0541101455688475
0.8858505249023437,1.0568887710571289
0.8858505249023437,1.0568887710571289
0.8833236694335938,1.0588222503662108
0.8833236694335938,1.0588222503662108
0.8852754592895508,1.0579828262329101
0.8852754592895508,1.0579828262329101
0.8878160476684570,1.0631120681762696
0.8878160476684570,1.0631120681762696
0.8847833633422851,1.0614675521850585
0.8847833633422851,1.0614675521850585
0.8883825302124023,1.0651662826538086
0.8883825302124023,1.0651662826538086
0.8880300521850586,1.0678442001342774
0.8880300521850586,1.0678442001342774
0.8891475677490234,1.0667879104614257
0.8891475677490234,1.0667879104614257
0.8911296844482421,1.0713586807250977
0.8911296844482421,1.0713586807250977
0.8871551513671875,1.0692684173583984
0.8871551513671875,1.0692684173583984
0.8923032760620117,1.0724327087402343
0.8923032760620117,1.0724327087402343
0.8911725997924804,1.0746305465698243
0.8911725997924804,1.0746305465698243
0.8918071746826172,1.0731657028198243
0.8918071746826172,1.0731657028198243
0.8930042266845702,1.0771659851074218
0.8930042266845702,1.0771659851074218
0.8902730941772461,1.0728235244750977
0.8902730941772461,1.0728235244750977
0.8927438735961913,1.0700386047363282
0.8927438735961913,1.0700386047363282
0.8861589431762695,1.0564647674560546
0.8861589431762695,1.0564647674560546
0.8774671554565430,1.0319143295288085
0.8774671554565430,1.0319143295288085
0.8715396881103515,1.0147716522216796
0.8715396881103515,1.0147716522216796
0.8610952377319335,0.9956319808959960
0.8610952377319335,0.9956319808959960
0.8598661422729492,0.9879673004150390
0.8598661422729492,0.9879673004150390
0.8544593811035156,0.9833232879638671
0.8544593811035156,0.9833232879638671
0.8538482666015624,0.9768276214599609
0.8538482666015624,0.9768276214599609
0.8543025970458984,0.9781087875366210
0.8543025970458984,0.9781087875366210
0.8497564315795898,0.9727769851684570
0.8497564315795898,0.9727769851684570
0.8523336410522461,0.9740226745605468
0.8523336410522461,0.9740226745605468
0.8512561798095702,0.9751264572143554
0.8512561798095702,0.9751264572143554
0.8516561508178710,0.9724325180053710
0.8516561508178710,0.9724325180053710
0.8536365509033202,0.9773197174072266
0.8536365509033202,0.9773197174072266
0.8494371414184571,0.9749668121337890
0.8494371414184571,0.9749668121337890
0.8547077178955078,0.9783496856689453
0.8547077178955078,0.9783496856689453
0.8536840438842773,0.9816564559936523
0.8536840438842773,0.9816564559936523
0.8550579071044921,0.9820037841796875
0.8550579071044921,0.9820037841796875
0.8577907562255859,0.9898109436035156
0.8577907562255859,0.9898109436035156
0.8564134597778320,0.9896976470947265
0.8564134597778320,0.9896976470947265
0.8621927261352539,0.9965045928955077
0.8621927261352539,0.9965045928955077
0.8627323150634766,1.0036462783813476
0.8627323150634766,1.0036462783813476
0.8646446228027344,1.0074874877929687
0.8646446228027344,1.0074874877929687
0.8700433731079101,1.0188297271728515
0.8700433731079101,1.0188297271728515
0.8692794799804687,1.0226423263549804
0.8692794799804687,1.0226423263549804
0.8755514144897460,1.0308837890625000
0.8755514144897460,1.0308837890625000
0.8751909255981445,1.0372816085815428
0.8751909255981445,1.0372816085815428
0.8775901794433594,1.0382926940917969
0.8775901794433594,1.0382926940917969
0.8809724807739258,1.0458829879760743
0.8809724807739258,1.0458829879760743
0.8785572052001953,1.0449720382690428
0.8785572052001953,1.0449720382690428
0.8821157455444336,1.0488384246826172
0.8821157455444336,1.0488384246826172
0.8819807052612304,1.0516073226928710
0.8819807052612304,1.0516073226928710
0.8827251434326172,1.0503971099853515
0.8827251434326172,1.0503971099853515
0.8852027893066406,1.0561460494995116
0.8852027893066406,1.0561460494995116
0.8816871643066406,1.0542068481445312
0.8816871643066406,1.0542068481445312
0.8865898132324218,1.0573665618896484
0.8850368499755860,1.0573665618896484
0.8853893280029297,1.0596736907958983
0.8853893280029297,1.0596736907958983
0.8859100341796875,1.0580068588256835
0.8859100341796875,1.0580068588256835
0.8870962142944335,1.0629776000976563
0.8870962142944335,1.0629776000976563
0.8850305557250976,1.0605823516845703
0.8850305557250976,1.0605823516845703
0.8887121200561523,1.0630880355834960
0.8887121200561523,1.0630880355834960
0.8871385574340820,1.0649208068847655
0.8871385574340820,1.0649208068847655
0.8866573333740234,1.0626245498657225
0.8866573333740234,1.0626245498657225
0.8891830444335938,1.0670190811157225
0.8891830444335938,1.0670190811157225
0.8866115570068359,1.0647148132324218
0.8866115570068359,1.0647148132324218
0.8903835296630859,1.0673549652099610
0.8903835296630859,1.0673549652099610
0.8882343292236328,1.0693599700927734
0.8882343292236328,1.0693599700927734
0.8895973205566406,1.0672004699707032
0.8895973205566406,1.0672004699707032
0.8914369583129883,1.0715898513793944
0.8914369583129883,1.0715898513793944
0.8882944107055664,1.0683122634887694
0.8882944107055664,1.0683122634887694
0.8903200149536132,1.0686023712158204
0.8903200149536132,1.0686023712158204
0.8875774383544922,1.0629083633422851
0.8875774383544922,1.0629083633422851
0.8819017410278320,1.0426094055175781
0.8819017410278320,1.0426094055175781
0.8747646331787109,1.0235853195190430
0.8747646331787109,1.0235853195190430
0.8620754241943359,0.9997095108032226
0.8620754241943359,0.9997095108032226
0.8596366882324219,0.9871639251708983
0.8596366882324219,0.9871639251708983
0.8537778854370117,0.9799798965454101
0.8553766250610352,0.9799798965454101
0.8512355804443359,0.9715581893920898
0.8512355804443359,0.9715581893920898
0.8508962631225586,0.9725818634033203
0.8508962631225586,0.9725818634033203
0.8473943710327149,0.9673084259033202
0.8473943710327149,0.9673084259033202
0.8506616592407227,0.9681158065795898
0.8506616592407227,0.9681158065795898
0.8488580703735351,0.9694072723388671
0.8488580703735351,0.9694072723388671
0.8478961944580078,0.9688493728637695
0.8510896682739257,0.9688493728637695
0.8505374908447265,0.9689495086669921
0.8475854873657226,0.9689495086669921
0.8506296157836913,0.9727008819580077
0.8506296157836913,0.9727008819580077
0.8498405456542969,0.9713430404663086
0.8498405456542969,0.9713430404663086
0.8542739868164062,0.9770307540893555
0.8542739868164062,0.9770307540893555
0.8529653549194336,0.9791170120239258
0.8529653549194336,0.9791170120239258
0.8558635711669922,0.9815643310546874
0.8558635711669922,0.9815643310546874
0.8584007263183594,0.9888719558715819
0.8584007263183594,0.9888719558715819
0.8579475402832031,0.9899047851562499
0.8579475402832031,0.9899047851562499
0.8639482498168946,0.9984724044799804
0.8639482498168946,0.9984724044799804
0.8625434875488281,1.0043941497802733
0.8625434875488281,1.0043941497802733
0.8673643112182617,1.0112897872924804
0.8673643112182617,1.0112897872924804
0.8709897994995117,1.0228128433227539
0.8709897994995117,1.0228128433227539
0.8726348876953125,1.0272182464599608
0.8726348876953125,1.0272182464599608
0.8780422210693359,1.0362150192260742
0.8780422210693359,1.0362150192260742
0.8763891220092773,1.0399040222167968
0.8763891220092773,1.0399040222167968
0.8793027877807617,1.0418621063232421
0.8793027877807617,1.0418621063232421
0.8808946609497070,1.0461519241333008
0.8808946609497070,1.0461519241333008
0.8789812088012695,1.0441778182983399
0.8789812088012695,1.0441778182983399
0.8825300216674804,1.0478565216064453
0.8825300216674804,1.0478565216064453
0.8796981811523438,1.0481575012207032
0.8796981811523438,1.0481575012207032
0.8822055816650390,1.0482713699340820
0.8822055816650390,1.0482713699340820
0.8825643539428710,1.0516788482666015
0.8825643539428710,1.0516788482666015
0.8813821792602539,1.0501298904418945
0.8813821792602539,1.0501298904418945
0.8849550247192383,1.0540557861328124
0.8849550247192383,1.0540557861328124
0.8829231262207031,1.0550085067749022
0.8829231262207031,1.0550085067749022
0.8849515914916992,1.0554656982421875
0.8849515914916992,1.0554656982421875
0.8861858367919921,1.0598510742187499
0.8861858367919921,1.0598510742187499
0.8850076675415038,1.0584897994995117
0.8850076675415038,1.0584897994995117
0.8892173767089844,1.0628265380859374
0.8892173767089844,1.0628265380859374
0.8866270065307617,1.0641941070556640
0.8866270065307617,1.0641941070556640
0.8892848968505859,1.0649923324584960
0.8892848968505859,1.0649923324584960
0.8904350280761718,1.0689634323120116
0.8904350280761718,1.0689634323120116
0.8897249221801757,1.0670682907104492
0.8897249221801757,1.0670682907104492
0.8927724838256835,1.0705621719360352
0.8927724838256835,1.0705621719360352
0.8899675369262695,1.0708642959594725
0.8899675369262695,1.0708642959594725
0.8920938491821289,1.0708871841430663
0.8920938491821289,1.0708871841430663
0.8935094833374023,1.0743656158447266
0.8935094833374023,1.0743656158447266
0.8909671783447265,1.0712116241455079
0.8909671783447265,1.0712116241455079
0.8936296463012695,1.0722879409790038
0.8936296463012695,1.0722879409790038
0.8890033721923828,1.0677532196044921
0.8890033721923828,1.0677532196044921
0.8869491577148437,1.0530441284179688
0.8869491577148437,1.0530441284179688
0.8783105850219727,1.0322622299194335
0.8783105850219727,1.0322622299194335
0.8667285919189452,1.0056135177612304
0.8667285919189452,1.0056135177612304
0.8620519638061523,0.9912952423095702
0.8580413818359375,0.9912952423095702
0.8546052932739258,0.9815769195556641
0.8546052932739258,0.9815769195556641
0.8535289764404297,0.9755699157714843
0.8535289764404297,0.9755699157714843
0.8529270172119140,0.9759607315063477
0.8529270172119140,0.9759607315063477
0.8499773025512695,0.9714500427246093
0.8499773025512695,0.9714500427246093
0.8533161163330077,0.9729360580444335
0.8533161163330077,0.9729360580444335
0.8495527267456054,0.9722980499267577
0.8495527267456054,0.9722980499267577
0.8514461517333984,0.9718414306640625
0.8514461517333984,0.9718414306640625
0.8529047012329102,0.9757455825805663
0.8529047012329102,0.9757455825805663
0.8514438629150390,0.9732765197753905
0.8514438629150390,0.9732765197753905
0.8546310424804687,0.9765769958496093
0.8546310424804687,0.9765769958496093
0.8519645690917969,0.9775485992431641
0.8519645690917969,0.9775485992431641
0.8543432235717773,0.9781877517700195
0.8543432235717773,0.9781877517700195
0.8563493728637696,0.9832540512084961
0.8563493728637696,0.9832540512084961
0.8545475006103516,0.9823390960693359
0.8545475006103516,0.9823390960693359
0.8590410232543945,0.9879575729370117
0.8590410232543945,0.9879575729370117
0.8573003768920898,0.9922187805175781
0.8573003768920898,0.9922187805175781
0.8618173599243164,0.9972347259521483
0.8618173599243164,0.9972347259521483
0.8652317047119140,1.0079635620117187
0.8652317047119140,1.0079635620117187
0.8661941528320313,1.0132787704467774
0.8661941528320313,1.0132787704467774
0.8727928161621094,1.0237718582153319
0.8727928161621094,1.0237718582153319
0.8729267120361328,1.0306972503662108
0.8729267120361328,1.0306972503662108
0.8768423080444335,1.0357463836669922
0.8768423080444335,1.0357463836669922
0.8797634124755859,1.0435163497924804
0.8797634124755859,1.0435163497924804
0.8791294097900391,1.0439397811889648
0.8791294097900391,1.0439397811889648
0.8838855743408203,1.0485609054565430
0.8838855743408203,1.0485609054565430
0.8807264328002929,1.0497642517089842
0.8807264328002929,1.0497642517089842
0.8831119537353516,1.0501190185546874
0.8809627532958985,1.0501190185546874
0.8843576431274414,1.0543218612670897
0.8843576431274414,1.0543218612670897
0.8830993652343749,1.0523941040039062
0.8830993652343749,1.0523941040039062
0.8861732482910156,1.0550691604614257
0.8861732482910156,1.0550691604614257
0.8828762054443359,1.0551555633544922
0.8828762054443359,1.0551555633544922
0.8846929550170898,1.0546331405639648
0.8846929550170898,1.0546331405639648
0.8860301971435547,1.0580097198486327
0.8860301971435547,1.0580097198486327
0.8835823059082031,1.0555046081542969
0.8835823059082031,1.0555046081542969
0.8873514175415039,1.0587839126586913
0.8873514175415039,1.0587839126586913
0.8843587875366211,1.0599214553833007
0.8843587875366211,1.0599214553833007
0.8875751495361328,1.0604267120361328
0.8875751495361328,1.0604267120361328
0.8885999679565429,1.0648035049438476
0.8885999679565429,1.0648035049438476
0.8867197036743164,1.0625810623168945
0.8867197036743164,1.0625810623168945
0.8902587890625000,1.0653448104858398
0.8902587890625000,1.0653448104858398
0.8874864578247070,1.0657768249511719
0.8874864578247070,1.0657768249511719
0.8893598556518555,1.0658111572265625
0.8893598556518555,1.0658111572265625
0.8906215667724610,1.0697250366210938
0.8906215667724610,1.0697250366210938
0.8883481979370117,1.0674144744873046
0.8883481979370117,1.0674144744873046
0.8923141479492187,1.0696311950683592
0.8923141479492187,1.0696311950683592
0.8881416320800781,1.0686836242675781
0.8881416320800781,1.0686836242675781
0.8891029357910156,1.0643548965454102
0.8891029357910156,1.0643548965454102
0.8866853713989258,1.0567605972290040
0.8866853713989258,1.0567605972290040
0.8774499893188477,1.0339353561401368
0.8774499893188477,1.0339353561401368
0.8721256256103516,1.0144077301025389
0.8721256256103516,1.0144077301025389
0.8610980987548827,0.9972759246826172
0.8610980987548827,0.9972759246826172
0.8576946258544922,0.9842931747436523
0.8576946258544922,0.9842931747436523
0.8559070587158203,0.9808153152465819
0.8558412551879883,0.9808153152465819
0.8508047103881836,0.9737720489501953
0.8508047103881836,0.9737720489501953
0.8541366577148437,0.9741851806640625
0.8541366577148437,0.9741851806640625
0.8506845474243164,0.9739660263061523
0.8506845474243164,0.9739660263061523
0.8528915405273437,0.9718969345092773
0.8528915405273437,0.9718969345092773
0.8536027908325196,0.9751018524169921
0.8536027908325196,0.9751018524169921
0.8511245727539062,0.9724565505981445
0.8511245727539062,0.9724565505981445
0.8549497604370117,0.9750274658203124
0.8549497604370117,0.9750274658203124
0.8522369384765625,0.9763532638549804
0.8522369384765625,0.9763532638549804
0.8542196273803710,0.9762519836425780
0.8542196273803710,0.9762519836425780
0.8557737350463867,0.9807489395141601
0.8557737350463867,0.9807489395141601
0.8532199859619141,0.9790243148803710
0.8532199859619141,0.9790243148803710
0.8579744338989258,0.9830314636230468
0.8579744338989258,0.9830314636230468
0.8549245834350586,0.9857236862182617
0.8549245834350586,0.9857236862182617
0.8574691772460937,0.9865865707397461
0.8574691772460937,0.9865865707397461
0.8597562789916992,0.9931091308593749
0.8597562789916992,0.9931091308593749
0.8590181350708007,0.9946386337280273
0.8590181350708007,0.9946386337280273
0.8643808364868164,1.0019611358642577
0.8643808364868164,1.0019611358642577
0.8630578994750976,1.0082925796508788
0.8630578994750976,1.0082925796508788
0.8674289703369140,1.0133531570434571
0.8674289703369140,1.0133531570434571
0.8715602874755859,1.0229879379272460
0.8715602874755859,1.0229879379272460
0.8706567764282226,1.0257785797119141
0.8706567764282226,1.0257785797119141
0.8765985488891601,1.0329849243164062
0.8765985488891601,1.0329849243164062
0.8748647689819335,1.0372278213500976
0.8748647689819335,1.0372278213500976
0.8784255981445312,1.0391550064086914
0.8784255981445312,1.0391550064086914
0.8803722381591796,1.0447116851806639
0.8803722381591796,1.0447116851806639
0.8783437728881835,1.0439523696899413
0.8783437728881835,1.0439523696899413
0.8826530456542968,1.0475950241088867
0.8826530456542968,1.0475950241088867
0.8807836532592773,1.0495639801025389
0.8807836532592773,1.0495639801025389
0.8826770782470703,1.0500297546386719
0.8826770782470703,1.0500297546386719
0.8848096847534179,1.0552173614501952
0.8848096847534179,1.0552173614501952
0.8825300216674804,1.0540208816528320
0.8825300216674804,1.0540208816528320
0.8874515533447266,1.0575719833374022
0.8859958648681641,1.0575719833374022
0.8844251632690430,1.0595071792602540
0.8844251632690430,1.0595071792602540
0.8868524551391601,1.0595603942871092
0.8868524551391601,1.0595603942871092
0.8886526107788085,1.0638530731201172
0.8886526107788085,1.0638530731201172
0.8867385864257812,1.0622371673583983
0.8867385864257812,1.0622371673583983
0.8906518936157226,1.0651485443115234
0.8906518936157226,1.0651485443115234
0.8878681182861328,1.0665802001953124
0.8878681182861328,1.0665802001953124
0.8896442413330078,1.0661327362060546
0.8896442413330078,1.0661327362060546
0.8917293548583984,1.0699287414550780
0.8917293548583984,1.0699287414550780
0.8884654998779297,1.0673950195312500
0.8884654998779297,1.0673950195312500
0.8921728134155273,1.0696146011352539
0.8921728134155273,1.0696146011352539
0.8892465591430664,1.0704368591308593
0.8892465591430664,1.0704368591308593
0.8911663055419922,1.0693937301635741
0.8911663055419922,1.0693937301635741
0.8924806594848632,1.0730466842651367
0.8924806594848632,1.0730466842651367
0.8893335342407226,1.0699127197265625
0.8893335342407226,1.0699127197265625
0.8925722122192382,1.0701507568359374
0.8925722122192382,1.0701507568359374
0.8885021209716797,1.0668073654174803
0.8885021209716797,1.0668073654174803
0.8859569549560546,1.0539825439453125
0.8859569549560546,1.0539825439453125
0.8805078506469727,1.0387830734252930
0.8805078506469727,1.0387830734252930
0.8701103210449218,1.0176143646240234
0.8701103210449218,1.0176143646240234
0.8682083129882813,1.0039461135864258
0.8682083129882813,1.0039461135864258
0.8606506347656250,0.9880811691284179
0.8585821151733398,0.9880811691284179
0.8535278320312499,0.9803443908691406
0.8535278320312499,0.9803443908691406
0.8551059722900390,0.9768573760986328
0.8551059722900390,0.9768573760986328
0.8530460357666015,0.9761449813842773
0.8530460357666015,0.9761449813842773
0.8516424179077148,0.9717739105224609
0.8516424179077148,0.9717739105224609
0.8529670715332031,0.9743831634521484
0.8529670715332031,0.9743831634521484
0.8503789901733398,0.9727077484130859
0.8503789901733398,0.9727077484130859
0.8528766632080078,0.9728210449218749
0.8528766632080078,0.9728210449218749
0.8520446777343750,0.9750440597534179
0.8520446777343750,0.9750440597534179
0.8508373260498047,0.9728279113769531
0.8508373260498047,0.9728279113769531
0.8545228958129882,0.9775663375854492
0.8545228958129882,0.9775663375854492
0.8524091720581054,0.9782604217529296
0.8524091720581054,0.9782604217529296
0.8556449890136718,0.9808868408203124
0.8556449890136718,0.9808868408203124
0.8556312561035156,0.9864807128906250
0.8556312561035156,0.9864807128906250
0.8579887390136719,0.9887500762939453
0.8579887390136719,0.9887500762939453
0.8630641937255860,0.9981822967529297
0.8630641937255860,0.9981822967529297
0.8624599456787109,1.0032382965087889
0.8624599456787109,1.0032382965087889
0.8667411804199219,1.0105859756469726
0.8667411804199219,1.0105859756469726
0.8696628570556640,1.0197303771972657
0.8696628570556640,1.0197303771972657
0.8716856002807617,1.0234457015991210
0.8716856002807617,1.0234457015991210
0.8768903732299804,1.0325042724609375
0.8768903732299804,1.0325042724609375
0.8749391555786132,1.0359987258911132
0.8749391555786132,1.0359987258911132
0.8796443939208984,1.0396327972412109
0.8796443939208984,1.0396327972412109
0.8802766799926758,1.0442802429199218
0.8802766799926758,1.0442802429199218
0.8804145812988281,1.0436439514160156
0.8804145812988281,1.0436439514160156
0.8829711914062500,1.0484796524047850
0.8829711914062500,1.0484796524047850
0.8815967559814453,1.0492080688476562
0.8815967559814453,1.0492080688476562
0.8847227096557617,1.0509990692138671
0.8847227096557617,1.0509990692138671
0.8847284317016602,1.0545278549194335
0.8872186660766601,1.0545278549194335
0.8834518432617188,1.0526275634765625
0.8834518432617188,1.0526275634765625
0.8871866226196289,1.0563760757446288
0.8871866226196289,1.0563760757446288
0.8843513488769531,1.0561426162719727
0.8843513488769531,1.0561426162719727
0.8869651794433594,1.0573499679565430
0.8869651794433594,1.0573499679565430
0.8859083175659179,1.0604959487915038
0.8859083175659179,1.0604959487915038
0.8861658096313476,1.0581979751586914
0.8861658096313476,1.0581979751586914
0.8892396926879883,1.0622709274291993
0.8892396926879883,1.0622709274291993
0.8861629486083984,1.0614555358886719
0.8861629486083984,1.0614555358886719
0.8879487991333007,1.0622177124023438
0.8879487991333007,1.0622177124023438
0.8885393142700195,1.0652177810668946
0.8885393142700195,1.0652177810668946
0.8879339218139648,1.0628225326538085
0.8879339218139648,1.0628225326538085
0.8911754608154296,1.0668125152587891
0.8911754608154296,1.0668125152587891
0.8874378204345703,1.0663244247436523
0.8874378204345703,1.0663244247436523
0.8907062530517578,1.0666997909545899
0.8907062530517578,1.0666997909545899
0.8907033920288085,1.0701816558837891
0.8907033920288085,1.0701816558837891
0.8898622512817382,1.0677577972412109
0.8898622512817382,1.0677577972412109
0.8920606613159180,1.0713718414306641
0.8920606613159180,1.0713718414306641
0.8902290344238281,1.0704534530639649
0.8902290344238281,1.0704534530639649
0.8923587799072266,1.0684970855712890
0.8923587799072266,1.0684970855712890
0.8899532318115234,1.0635658264160155
0.8899532318115234,1.0635658264160155
0.8829042434692382,1.0456970214843750
0.8797227859497070,1.0305850982666016
0.8797227859497070,1.0305850982666016
0.8696914672851562,1.0123975753784180
0.8696914672851562,1.0123975753784180
0.8659927368164062,0.9986978530883789
0.8659927368164062,0.9986978530883789
0.8605350494384766,0.9918142318725586
0.8605350494384766,0.9918142318725586
0.8574314117431641,0.9829954147338866
0.8574314117431641,0.9829954147338866
0.8584819793701172,0.9822355270385742
0.8584819793701172,0.9822355270385742
0.8536857604980469,0.9778553009033203
0.8536857604980469,0.9778553009033203
0.8537635803222656,0.9752105712890624
0.8537635803222656,0.9752105712890624
0.8533384323120117,0.9759281158447265
0.8533384323120117,0.9759281158447265
0.8515365600585937,0.9715667724609375
0.8515365600585937,0.9715667724609375
0.8541257858276367,0.9744501113891602
0.8541257858276367,0.9744501113891602
0.8500316619873046,0.9736318588256836
0.8500316619873046,0.9736318588256836
0.8532520294189453,0.9744461059570312
0.8532520294189453,0.9744461059570312
0.8535558700561523,0.9782815933227539
0.8535558700561523,0.9782815933227539
0.8532812118530273,0.9775852203369140
0.8532812118530273,0.9775852203369140
0.8567905426025391,0.9835979461669921
0.8567905426025391,0.9835979461669921
0.8560455322265624,0.9865493774414062
0.8560455322265624,0.9865493774414062
0.8600446701049804,0.9914045333862305
0.8600446701049804,0.9914045333862305
0.8620674133300781,0.9996019363403320
0.8620674133300781,0.9996019363403320
0.8629245758056641,1.0033836364746094
0.8629245758056641,1.0033836364746094
0.8695438385009765,1.0137313842773437
0.8695438385009765,1.0137313842773437
0.8696743011474609,1.0200656890869140
0.8696743011474609,1.0200656890869140
0.8741094589233398,1.0266094207763672
0.8741094589233398,1.0266094207763672
0.8757848739624023,1.0348028182983398
0.8757848739624023,1.0348028182983398
0.8778110504150390,1.0372987747192381
0.8778110504150390,1.0372987747192381
0.8825489044189453,1.0446939468383789
0.8825489044189453,1.0446939468383789
0.8813438415527344,1.0471618652343750
0.8813438415527344,1.0471618652343750
0.8835622787475585,1.0498186111450194
0.8835622787475585,1.0498186111450194
0.8855386734008789,1.0547018051147461
0.8855386734008789,1.0547018051147461
0.8853710174560546,1.0536157608032226
0.8853710174560546,1.0536157608032226
0.8885782241821288,1.0580938339233399
0.8885782241821288,1.0580938339233399
0.8852594375610351,1.0581991195678710
0.8852594375610351,1.0581991195678710
0.8880540847778320,1.0587198257446289
0.8880540847778320,1.0587198257446289
0.8883991241455078,1.0618217468261719
0.8883991241455078,1.0618217468261719
0.8874212265014648,1.0597457885742188
0.8874212265014648,1.0597457885742188
0.8899566650390625,1.0635686874389647
0.8899566650390625,1.0635686874389647
0.8878337860107421,1.0629884719848632
0.8878337860107421,1.0629884719848632
0.8896574020385742,1.0626565933227539
0.8896574020385742,1.0626565933227539
0.8898256301879882,1.0659885406494141
0.8898256301879882,1.0659885406494141
0.8879957199096680,1.0637546539306639
0.8879957199096680,1.0637546539306639
0.8920915603637695,1.0678682327270508
0.8920915603637695,1.0678682327270508
0.8894313812255860,1.0678630828857421
0.8894313812255860,1.0678630828857421
0.8912389755249023,1.0679283142089844
0.8912389755249023,1.0679283142089844
0.8907331466674805,1.0712671279907227
0.8907331466674805,1.0712671279907227
0.8904916763305664,1.0688398361206055
0.8903200149536132,1.0688398361206055
0.8943546295166015,1.0727405548095703
0.8943546295166015,1.0727405548095703
0.8914884567260742,1.0723371505737305
0.8914884567260742,1.0723371505737305
0.8927616119384766,1.0724847793579102
0.8927616119384766,1.0724847793579102
0.8937074661254882,1.0752313613891602
0.8937074661254882,1.0752313613891602
0.8922557830810547,1.0720802307128905
0.8922557830810547,1.0720802307128905
0.8949171066284179,1.0740222930908203
0.8936073303222656,1.0740222930908203
0.8899515151977538,1.0699905395507812
0.8899515151977538,1.0699905395507812
0.8899469375610352,1.0620786666870117
0.8899469375610352,1.0620786666870117
0.8841848373413086,1.0478136062622070
0.8841848373413086,1.0478136062622070
0.8746644973754882,1.0238296508789062
0.8746644973754882,1.0238296508789062
0.8691942214965820,1.0079229354858399
0.8691942214965820,1.0079229354858399
0.8607187271118164,0.9931251525878906
0.8607187271118164,0.9931251525878906
0.8586845397949219,0.9845335006713867
0.8586845397949219,0.9845335006713867
0.8563356399536133,0.9818807601928711
0.8563356399536133,0.9818807601928711
0.8526426315307617,0.9760276794433593
0.8526426315307617,0.9760276794433593
0.8558893203735352,0.9778055191040038
0.8558893203735352,0.9778055191040038
0.8527158737182617,0.9763521194458007
0.8527158737182617,0.9763521194458007
0.8541664123535156,0.9757724761962890
0.8541664123535156,0.9757724761962890
0.8536485671997071,0.9785333633422851
0.8536485671997071,0.9785333633422851
0.8531650543212891,0.9762073516845703
0.8531650543212891,0.9762073516845703
0.8565479278564453,0.9798385620117187
0.8565479278564453,0.9798385620117187
0.8538259506225586,0.9801000595092773
0.8538259506225586,0.9801000595092773
0.8553022384643555,0.9811523437499999
0.8553022384643555,0.9811523437499999
0.8572763442993164,0.9858690261840820
0.8572763442993164,0.9858690261840820
0.8569730758666992,0.9857769012451172
0.8569730758666992,0.9857769012451172
0.8614511489868164,0.9926713943481444
0.8614511489868164,0.9926713943481444
0.8596950531005859,0.9970939636230468
0.8596950531005859,0.9970939636230468
0.8646789550781250,1.0030546188354492
0.8646789550781250,1.0030546188354492
0.8679771423339844,1.0134841918945312
0.8679771423339844,1.0134841918945312
0.8694665908813476,1.0184194564819335
0.8694665908813476,1.0184194564819335
0.8746633529663086,1.0284559249877929
0.8746633529663086,1.0284559249877929
0.8748601913452149,1.0338495254516602
0.8748601913452149,1.0338495254516602
0.8787088394165039,1.0382040023803711
0.8787088394165039,1.0382040023803711
0.8804391860961914,1.0447385787963868
0.8804391860961914,1.0447385787963868
0.8791013717651367,1.0444232940673828
0.8791013717651367,1.0444232940673828
0.8839267730712891,1.0491405487060546
0.8839267730712891,1.0491405487060546
0.8811687469482422,1.0496377944946289
0.8811687469482422,1.0496377944946289
0.8834266662597656,1.0499885559082032
0.8834266662597656,1.0499885559082032
0.8833414077758789,1.0538486480712890
0.8833414077758789,1.0538486480712890
0.8827320098876953,1.0515060424804688
0.8827320098876953,1.0515060424804688
0.8866098403930663,1.0555870056152343
0.8866098403930663,1.0555870056152343
0.8835794448852539,1.0563411712646484
0.8835794448852539,1.0563411712646484
0.8854042053222656,1.0566907882690428
0.8854042053222656,1.0566907882690428
0.8873594284057617,1.0609966278076171
0.8873594284057617,1.0609966278076171
0.8856966018676757,1.0586425781250000
0.8856966018676757,1.0586425781250000
0.8893249511718749,1.0623470306396483
0.8893249511718749,1.0623470306396483
0.8855014801025390,1.0628694534301757
0.8855014801025390,1.0628694534301757
0.8892356872558593,1.0640104293823243
0.8892356872558593,1.0640104293823243
0.8913351058959961,1.0694246292114258
0.8913351058959961,1.0694246292114258
0.8901500701904297,1.0679758071899415
0.8901500701904297,1.0679758071899415
0.8935123443603515,1.0721168518066406
0.8935123443603515,1.0721168518066406
0.8911811828613281,1.0724355697631835
0.8911811828613281,1.0724355697631835
0.8937057495117188,1.0726158142089843
0.8937057495117188,1.0726158142089843
0.8945726394653321,1.0763448715209960
0.8945726394653321,1.0763448715209960
0.8919084548950195,1.0737636566162110
0.8940690994262696,1.0770503997802734
0.8930007934570312,1.0741544723510741
0.8930007934570312,1.0748519897460938
0.8963504791259765,1.0786222457885741
0.8963504791259765,1.0786222457885741
0.8926740646362304,1.0754751205444335
0.8940444946289062,1.0754751205444335
0.8954578399658203,1.0760158538818358
0.8954578399658203,1.0760158538818358
0.8933612823486328,1.0752725601196289
0.8933612823486328,1.0752725601196289
0.8904579162597656,1.0648590087890624
0.8904579162597656,1.0648590087890624
0.8868902206420898,1.0526985168457030
0.8868902206420898,1.0526985168457030
0.8752372741699218,1.0288398742675782
0.8752372741699218,1.0288398742675782
0.8709623336791992,1.0109367370605469
0.8709623336791992,1.0109367370605469
0.8628742218017578,0.9986927032470703
0.8628742218017578,0.9986927032470703
0.8584362030029297,0.9860664367675781
0.8584362030029297,0.9860664367675781
0.8579229354858399,0.9849454879760742
0.8579229354858399,0.9849454879760742
0.8536588668823242,0.9792921066284179
0.8536588668823242,0.9792921066284179
0.8556552886962890,0.9784984588623047
0.8556552886962890,0.9784984588623047
0.8538671493530273,0.9793430328369140
0.8538671493530273,0.9793430328369140
0.8534700393676757,0.9757553100585937
0.8534700393676757,0.9757553100585937
0.8561210632324219,0.9803426742553710
0.8561210632324219,0.9803426742553710
0.8530666351318359,0.9787101745605469
0.8530666351318359,0.9787101745605469
0.8565633773803710,0.9808273315429688
0.8565633773803710,0.9808273315429688
0.8559591293334960,0.9842330932617187
0.8559591293334960,0.9842330932617187
0.8571710586547852,0.9833930969238280
0.8571710586547852,0.9833930969238280
0.8605247497558594,0.9904111862182616
0.8605247497558594,0.9904111862182616
0.8589672088623047,0.9924631118774414
0.8589672088623047,0.9924631118774414
0.8639705657958984,0.9985542297363281
0.8639705657958984,0.9985542297363281
0.8657907485961914,1.0069805145263671
0.8657907485961914,1.0069805145263671
0.8680355072021484,1.0112863540649413
0.8680355072021484,1.0112863540649413
0.8738079071044922,1.0239961624145508
0.8738079071044922,1.0239961624145508
0.8737855911254883,1.0307012557983397
0.8737855911254883,1.0307012557983397
0.8806411743164062,1.0389358520507812
0.8806411743164062,1.0389358520507812
0.8811155319213867,1.0461307525634764
0.8811155319213867,1.0461307525634764
0.8822650909423828,1.0459596633911132
0.8822650909423828,1.0459596633911132
0.8853818893432617,1.0527711868286131
0.8853818893432617,1.0527711868286131
0.8833580017089844,1.0526309967041014
0.8833580017089844,1.0526309967041014
0.8864587783813477,1.0543836593627929
0.8864587783813477,1.0543836593627929
0.8855815887451172,1.0569923400878907
0.8855815887451172,1.0569923400878907
0.8853607177734375,1.0545249938964842
0.8853607177734375,1.0545249938964842
0.8886274337768555,1.0599821090698243
0.8886274337768555,1.0599821090698243
0.8854619979858398,1.0590162277221680
0.8854619979858398,1.0590162277221680
0.8887527465820312,1.0608055114746093
0.8887527465820312,1.0608055114746093
0.8880254745483398,1.0638278961181640
0.8880254745483398,1.0638278961181640
0.8884489059448242,1.0613742828369139
0.8884489059448242,1.0613742828369139
0.8912475585937499,1.0664434432983398
0.8912475585937499,1.0664434432983398
0.8882509231567383,1.0652235031127930
0.8882509231567383,1.0652235031127930
0.8916189193725585,1.0666328430175780
0.8916189193725585,1.0666328430175780
0.8912830352783203,1.0693925857543944
0.8912830352783203,1.0693925857543944
0.8906581878662109,1.0660966873168944
0.8906581878662109,1.0660966873168944
0.8931758880615234,1.0706943511962890
0.8931758880615234,1.0706943511962890
0.8899635314941406,1.0695379257202149
0.8899635314941406,1.0695379257202149
0.8935123443603515,1.0703716278076172
0.8935123443603515,1.0703716278076172
0.8919605255126953,1.0728572845458983
0.8919605255126953,1.0728572845458983
0.8917127609252929,1.0696111679077147
0.8917127609252929,1.0696111679077147
0.8945680618286133,1.0750013351440428
0.8945680618286133,1.0750013351440428
0.8922718048095702,1.0742723464965820
0.8938419342041015,1.0742723464965820
0.8954183578491210,1.0754276275634764
0.8954183578491210,1.0754276275634764
0.8943368911743164,1.0778039932250976
0.8943368911743164,1.0778039932250976
0.8939826965332031,1.0744691848754881
0.8939826965332031,1.0744691848754881
0.8964918136596679,1.0776323318481444
0.8964918136596679,1.0776323318481444
0.8920721054077149,1.0736114501953125
0.8920721054077149,1.0736114501953125
0.8927450180053711,1.0667226791381836
0.8927450180053711,1.0667226791381836
0.8852869033813476,1.0518115997314452
0.8852869033813476,1.0518115997314452
0.8775838851928711,1.0281177520751952
0.8710973739624023,1.0281177520751952
0.8719545364379883,1.0133754730224609
0.8719545364379883,1.0133754730224609
0.8624010086059570,0.9974418640136719
0.8624010086059570,0.9974418640136719
0.8611078262329102,0.9889823913574218
0.8611078262329102,0.9889823913574218
0.8577753067016601,0.9854232788085937
0.8591583251953124,0.9854232788085937
0.8552124023437500,0.9784727096557617
0.8552124023437500,0.9784727096557617
0.8567407608032226,0.9801286697387694
0.8567407608032226,0.9801286697387694
0.8525047302246094,0.9769723892211913
0.8525047302246094,0.9769723892211913
0.8555139541625977,0.9766159057617188
0.8555139541625977,0.9766159057617188
0.8538574218750000,0.9782970428466796
0.8538574218750000,0.9782970428466796
0.8535358428955078,0.9750354766845702
0.8535358428955078,0.9750354766845702
0.8561244964599609,0.9794483184814453
0.8561244964599609,0.9794483184814453
0.8536291122436523,0.9790500640869140
0.8536291122436523,0.9790500640869140
0.8571269989013671,0.9814321517944335
0.8571269989013671,0.9814321517944335
0.8568140029907226,0.9855777740478515
0.8568140029907226,0.9855777740478515
0.8572763442993164,0.9848476409912109
0.8572763442993164,0.9848476409912109
0.8616691589355469,0.9919521331787109
0.8616691589355469,0.9919521331787109
0.8593969345092773,0.9946031570434570
0.8593969345092773,0.9946031570434570
0.8642103195190429,0.9997135162353515
0.8642103195190429,0.9997135162353515
0.8653324127197265,1.0076076507568359
0.8653324127197265,1.0076076507568359
0.8672487258911132,1.0103645324707031
0.8672487258911132,1.0103645324707031
0.8720558166503906,1.0203060150146483
0.8720558166503906,1.0203060150146483
0.8710212707519531,1.0247428894042969
0.8710212707519531,1.0247428894042969
0.8758672714233399,1.0300970077514648
0.8758672714233399,1.0300970077514648
0.8772657394409179,1.0369543075561523
0.8772657394409179,1.0369543075561523
0.8776165008544922,1.0373662948608398
0.8776165008544922,1.0373662948608398
0.8819234848022460,1.0443008422851563
0.8819234848022460,1.0443008422851563
0.8795036315917969,1.0456918716430663
0.8795036315917969,1.0456918716430663
0.8840166091918945,1.0490364074707030
0.8840166091918945,1.0490364074707030
0.8845893859863281,1.0548385620117187
0.8845893859863281,1.0548385620117187
0.8851284027099610,1.0541536331176757
0.8851284027099610,1.0541536331176757
0.8891000747680664,1.0603019714355468
0.8891000747680664,1.0603019714355468
0.8871208190917969,1.0610298156738280
0.8871208190917969,1.0610298156738280
0.8903354644775391,1.0632287979125976
0.8903354644775391,1.0632287979125976
0.8903434753417968,1.0672342300415039
0.8903434753417968,1.0672342300415039
0.8898822784423828,1.0654026031494139
0.8898822784423828,1.0654026031494139
0.8938825607299804,1.0700717926025389
0.8938825607299804,1.0700717926025389
0.8898811340332031,1.0690715789794922
0.8898811340332031,1.0690715789794922
0.8926683425903320,1.0694858551025390
0.8926683425903320,1.0694858551025390
0.8918752670288086,1.0725311279296874
0.8918752670288086,1.0725311279296874
0.8914730072021484,1.0691242218017578
0.8914730072021484,1.0691242218017578
0.8936405181884766,1.0723897933959960
0.8936405181884766,1.0723897933959960
0.8895389556884765,1.0705541610717773
0.8895389556884765,1.0705541610717773
0.8920635223388672,1.0704002380371094
0.8920635223388672,1.0704002380371094
0.8916429519653321,1.0729883193969727
0.8916429519653321,1.0729883193969727
0.8901048660278320,1.0696363449096680
0.8885936737060547,1.0696363449096680
0.8929916381835937,1.0730266571044922
0.8929916381835937,1.0730266571044922
0.8894153594970703,1.0718381881713868
0.8894153594970703,1.0718381881713868
0.8926425933837890,1.0723657608032227
0.8926425933837890,1.0723657608032227
0.8918907165527343,1.0744743347167969
0.8918907165527343,1.0744743347167969
0.8905076980590820,1.0696907043457031
0.8905076980590820,1.0696907043457031
0.8918781280517578,1.0674190521240234
0.8918781280517578,1.0674190521240234
0.8841510772705078,1.0521051406860351
0.8841510772705078,1.0521051406860351
0.8790927886962890,1.0329105377197265
0.8790927886962890,1.0329105377197265
0.8711425781250000,1.0176332473754883
0.8711425781250000,1.0176332473754883
0.8647390365600586,1.0014604568481444
0.8647390365600586,1.0014604568481444
0.8646537780761718,0.9962179183959960
0.8646537780761718,0.9962179183959960
0.8584281921386718,0.9894985198974608
0.8584281921386718,0.9894985198974608
0.8593608856201171,0.9861082077026366
0.8593608856201171,0.9861082077026366
0.8584550857543946,0.9868978500366210
0.8584550857543946,0.9868978500366210
0.8577518463134766,0.9832780838012695
0.8577518463134766,0.9832780838012695
0.8603033065795899,0.9866329193115234
0.8603033065795899,0.9866329193115234
0.8574325561523437,0.9863050460815429
0.8574325561523437,0.9863050460815429
0.8601264953613281,0.9872446060180664
0.8601264953613281,0.9872446060180664
0.8607856750488281,0.9911252975463867
0.8607856750488281,0.9911252975463867
0.8601882934570312,0.9900112152099609
0.8601882934570312,0.9900112152099609
0.8639934539794921,0.9953401565551757
0.8639934539794921,0.9953401565551757
0.8617733001708984,0.9970779418945312
0.8617733001708984,0.9970779418945312
0.8657432556152344,1.0005403518676756
0.8657432556152344,1.0005403518676756
0.8667057037353515,1.0072769165039062
0.8667057037353515,1.0072769165039062
0.8672481536865234,1.0095417022705078
0.8672481536865234,1.0095417022705078
0.8726463317871094,1.0195919036865233
0.8726463317871094,1.0195919036865233
0.8729633331298828,1.0271203994750977
0.8729633331298828,1.0271203994750977
0.8784381866455078,1.0369153976440428
0.8784381866455078,1.0369153976440428
0.8818788528442383,1.0485271453857421
0.8818788528442383,1.0485271453857421
0.8830604553222656,1.0513555526733398
0.8830604553222656,1.0513555526733398
0.8882177352905273,1.0578672409057617
0.8882177352905273,1.0578672409057617
0.8859163284301758,1.0596015930175782
0.8859163284301758,1.0596015930175782
0.8887796401977539,1.0610916137695312
0.8887796401977539,1.0610916137695312
0.8891510009765625,1.0648904800415038
0.8891510009765625,1.0648904800415038
0.8886348724365234,1.0625879287719726
0.8886348724365234,1.0625879287719726
0.8918598175048827,1.0666934967041015
0.8918598175048827,1.0666934967041015
0.8889335632324219,1.0661384582519531
0.8889335632324219,1.0661384582519531
0.8912921905517578,1.0664451599121094
0.8912921905517578,1.0664451599121094
0.8914346694946289,1.0693582534790038
0.8914346694946289,1.0693582534790038
0.8899377822875977,1.0661779403686522
0.8899377822875977,1.0661779403686522
0.8931970596313477,1.0700351715087890
0.8931970596313477,1.0700351715087890
0.8900161743164062,1.0696414947509765
0.8900161743164062,1.0696414947509765
0.8929458618164062,1.0703012466430664
0.8929458618164062,1.0703012466430664
0.8927158355712891,1.0737110137939452
0.8939701080322265,1.0740743637084960
0.8917745590209961,1.0711069107055664
0.8908699035644531,1.0711069107055664
0.8951431274414062,1.0750122070312500
0.8951431274414062,1.0750122070312500
0.8924709320068359,1.0746717453002930
0.8924709320068359,1.0746717453002930
0.8944673538208008,1.0750499725341796
0.8944673538208008,1.0750499725341796
0.8947557449340821,1.0783155441284180
0.8947557449340821,1.0783155441284180
0.8932228088378906,1.0754848480224608
0.8923433303833007,1.0754848480224608
0.8971361160278321,1.0792705535888671
0.8971361160278321,1.0792705535888671
0.8938081741333007,1.0790365219116211
0.8938081741333007,1.0790365219116211
0.8960071563720703,1.0792299270629881
0.8960071563720703,1.0792299270629881
0.8961421966552734,1.0821567535400389
0.8961421966552734,1.0821567535400389
0.8952844619750976,1.0794754028320312
0.8952844619750976,1.0794754028320312
0.8981546401977539,1.0827890396118163
0.8981546401977539,1.0827890396118163
0.8950550079345703,1.0814277648925781
0.8950550079345703,1.0814277648925781
0.8962188720703125,1.0794965744018554
0.8962188720703125,1.0794965744018554
0.8953662872314453,1.0773130416870116
0.8953662872314453,1.0773130416870116
0.8889490127563476,1.0603059768676757
0.8889490127563476,1.0603059768676757
0.8844148635864257,1.0426895141601562
0.8844148635864257,1.0426895141601562
0.8726211547851562,1.0208896636962890
0.8726211547851562,1.0208896636962890
0.8677986145019531,1.0041137695312499
0.8677986145019531,1.0041137695312499
0.8627334594726562,0.9962951660156250
0.8627334594726562,0.9962951660156250
0.8581941604614257,0.9867250442504882
0.8581941604614257,0.9867250442504882
0.8593620300292969,0.9862323760986328
0.8593620300292969,0.9862323760986328
0.8556026458740235,0.9831132888793945
0.8556026458740235,0.9831132888793945
0.8567636489868163,0.9820615768432617
0.8567636489868163,0.9820615768432617
0.8569816589355469,0.9843538284301757
0.8569816589355469,0.9843538284301757
0.8553045272827148,0.9809955596923827
0.8553045272827148,0.9809955596923827
0.8588962554931641,0.9845735549926757
0.8588962554931641,0.9845735549926757
0.8554349899291992,0.9842943191528319
0.8554349899291992,0.9842943191528319
0.8577793121337890,0.9847475051879883
0.8577793121337890,0.9847475051879883
0.8585557937622070,0.9891769409179687
0.8585557937622070,0.9891769409179687
0.8580247879028320,0.9878093719482421
0.8580247879028320,0.9878093719482421
0.8620382308959961,0.9936401367187500
0.8620382308959961,0.9936401367187500
0.8596515655517578,0.9957304000854492
0.8596515655517578,0.9957304000854492
0.8631065368652343,0.9990039825439453
0.8631065368652343,0.9990039825439453
0.8658222198486328,1.0071475982666016
0.8658222198486328,1.0071475982666016
0.8659589767456054,1.0102775573730469
0.8659589767456054,1.0102775573730469
0.8726400375366211,1.0216930389404297
0.8726400375366211,1.0216930389404297
0.8728523254394531,1.0296014785766601
0.8728523254394531,1.0296014785766601
0.8788810729980469,1.0374961853027342
0.8788810729980469,1.0374961853027342
0.8819360733032227,1.0470560073852540
0.8819360733032227,1.0470560073852540
0.8822725296020507,1.0489093780517578
0.8822725296020507,1.0489093780517578
0.8875173568725586,1.0563085556030274
0.8875173568725586,1.0563085556030274
0.8858488082885742,1.0587856292724609
0.8858488082885742,1.0587856292724609
0.8885255813598633,1.0606824874877929
0.8885255813598633,1.0606824874877929
0.8899200439453124,1.0655673980712890
0.8899200439453124,1.0655673980712890
0.8882629394531250,1.0637701034545899
0.8882629394531250,1.0637701034545899
0.8924915313720703,1.0679082870483398
0.8924915313720703,1.0679082870483398
0.8888763427734375,1.0675975799560546
0.8888763427734375,1.0675975799560546
0.8909173965454101,1.0672393798828124
0.8909173965454101,1.0672393798828124
0.8914209365844726,1.0703653335571288
0.8914209365844726,1.0703653335571288
0.8896619796752929,1.0670951843261718
0.8896619796752929,1.0670951843261718
0.8927186965942383,1.0704603195190430
0.8927186965942383,1.0704603195190430
0.8892345428466797,1.0699899673461915
0.8892345428466797,1.0699899673461915
0.8910867691040039,1.0695848464965820
0.8910867691040039,1.0695848464965820
0.8924148559570312,1.0732194900512695
0.8924148559570312,1.0732194900512695
0.8900585174560547,1.0704448699951172
0.8900585174560547,1.0704448699951172
0.8936874389648437,1.0740039825439454
0.8936874389648437,1.0740039825439454
0.8907726287841796,1.0739141464233397
0.8940645217895508,1.0739141464233397
0.8932886123657227,1.0738260269165039
0.8932886123657227,1.0738260269165039
0.8939300537109375,1.0777084350585937
0.8939300537109375,1.0777084350585937
0.8923427581787109,1.0753486633300782
0.8923427581787109,1.0753486633300782
0.8956809997558594,1.0788293838500975
0.8956809997558594,1.0788293838500975
0.8933029174804688,1.0790634155273438
0.8933029174804688,1.0790634155273438
0.8952255249023438,1.0791275024414062
0.8952255249023438,1.0791275024414062
0.8962966918945312,1.0822151184082032
0.8962966918945312,1.0822151184082032
0.8939952850341797,1.0778984069824218
0.8939952850341797,1.0778984069824218
0.8963378906250000,1.0760736465454102
0.8963378906250000,1.0760736465454102
0.8887584686279296,1.0634559631347655
0.8887584686279296,1.0634559631347655
0.8840618133544922,1.0446395874023438
0.8840618133544922,1.0446395874023438
0.8774969100952148,1.0289920806884765
0.8774969100952148,1.0289920806884765
0.8696926116943359,1.0113670349121093
0.8696926116943359,1.0113670349121093
0.8682300567626953,1.0040193557739256
0.8682300567626953,1.0040193557739256
0.8619981765747070,0.9971740722656249
0.8619981765747070,0.9971740722656249
0.8620038986206054,0.9921146392822265
0.8620038986206054,0.9921146392822265
0.8618980407714844,0.9925746917724609
0.8618980407714844,0.9925746917724609
0.8583446502685547,0.9878866195678710
0.8583446502685547,0.9878866195678710
0.8613149642944335,0.9893714904785156
0.8613149642944335,0.9893714904785156
0.8576831817626953,0.9893177032470702
0.8576831817626953,0.9893177032470702
0.8602638244628906,0.9890859603881835
0.8602638244628906,0.9890859603881835
0.8611289978027343,0.9933214187622070
0.8611289978027343,0.9933214187622070
0.8593563079833985,0.9915687561035156
0.8593563079833985,0.9915687561035156
0.8635379791259765,0.9963060379028320
0.8635379791259765,0.9963060379028320
0.8615135192871094,0.9989427566528319
0.8615135192871094,0.9989427566528319
0.8643413543701172,1.0011503219604492
0.8643413543701172,1.0011503219604492
0.8667829513549804,1.0079223632812500
0.8667829513549804,1.0079223632812500
0.8662450790405273,1.0098695755004883
0.8662450790405273,1.0098695755004883
0.8727167129516601,1.0183015823364256
0.8727167129516601,1.0183015823364256
0.8712055206298828,1.0243011474609374
0.8712055206298828,1.0243011474609374
0.8758346557617187,1.0298950195312500
0.8758346557617187,1.0298950195312500
0.8795202255249023,1.0403457641601561
0.8795202255249023,1.0403457641601561
