REDsignal,IRsignal
0.3808221817016602,0.5936456680297851
0.3839406967163086,0.5936456680297851
0.3871444702148437,0.5978078842163086
0.3871444702148437,0.5978078842163086
0.3799129486083984,0.5965667724609375
0.3897239685058594,0.5965667724609375
0.3839263916015625,0.5939666748046875
0.3839263916015625,0.5939666748046875
0.3850851058959961,0.5999462127685546
0.3857723236083984,0.5999462127685546
0.3812364578247070,0.5944456100463867
0.3812364578247070,0.5944456100463867
0.3873756408691406,0.5985660552978516
0.3800634384155273,0.5985660552978516
0.3793327331542969,0.5970050811767578
0.3891134262084961,0.5970050811767578
0.3849580764770508,0.5946384429931640
0.3800531387329101,0.5946384429931640
0.3853214263916016,0.6007015228271484
0.3853214263916016,0.6007015228271484
0.3813755035400391,0.5954166412353515
0.3813755035400391,0.5954166412353515
0.3867582321166992,0.5991405487060547
0.3795061111450195,0.5991405487060547
0.3803861618041992,0.5975767135620117
0.3903579711914062,0.5975767135620117
0.3853214263916016,0.5953336715698242
0.3853214263916016,0.5953336715698242
0.3855142593383789,0.6014081954956054
0.3855142593383789,0.6014081954956054
0.3806344985961914,0.5956455230712890
0.3806344985961914,0.5956455230712890
0.3876199722290039,0.5992303848266601
0.3876199722290039,0.5992303848266601
0.3803546905517578,0.5975646972656250
0.3901399612426757,0.5975646972656250
0.3850908279418945,0.5951231002807617
0.3798265457153320,0.5951231002807617
0.3842834472656250,0.6001928329467773
0.3847120285034180,0.6001928329467773
0.3809474945068359,0.5939632415771484
0.3837232589721680,0.5939632415771484
0.3870494842529297,0.5974662780761718
0.3870494842529297,0.5974662780761718
0.3795513153076172,0.5954006195068359
0.3891529083251953,0.5954006195068359
0.3832494735717774,0.5923805236816406
0.3832494735717774,0.5923805236816406
0.3841054916381836,0.5976133346557617
0.3846805572509766,0.5976133346557617
0.3799982070922852,0.5916246414184571
0.3805046081542969,0.6012577056884766
0.3859760284423828,0.5951059341430663
0.3785717010498047,0.5951059341430663
0.3778856277465820,0.5930208206176758
0.3778856277465820,0.5930208206176758
0.3833370208740234,0.5900115966796875
0.3782049179077148,0.5900115966796875
0.3833850860595703,0.5957050323486328
0.3833850860595703,0.5957050323486328
0.3794076919555664,0.5899429321289062
0.3818750381469727,0.5899429321289062
0.3846616744995117,0.5933504104614258
0.3846616744995117,0.5933504104614258
0.3781734466552734,0.5914833068847656
0.3781734466552734,0.5914833068847656
0.3829347610473633,0.5890331268310547
0.3829347610473633,0.5890331268310547
0.3829507827758789,0.5949611663818359
0.3829507827758789,0.5949611663818359
0.3781425476074219,0.5888751983642578
0.3807621002197266,0.5888751983642578
0.3851474761962890,0.5923324584960937
0.3851474761962890,0.5923324584960937
0.3780750274658203,0.5910146713256835
0.3780750274658203,0.5910146713256835
0.3827705383300781,0.5886938095092773
0.3774192810058594,0.5886938095092773
0.3819923400878906,0.5945148468017578
0.3825988769531250,0.5945148468017578
0.3790426254272461,0.5887750625610352
0.3790426254272461,0.5887750625610352
0.3852699279785156,0.5928646087646484
0.3852699279785156,0.5928646087646484
0.3781602859497070,0.5917316436767578
0.3878568649291992,0.5917316436767578
0.3821548461914062,0.5891973495483398
0.3768304824829101,0.5891973495483398
0.3829565048217773,0.5949691772460938
0.3838903427124024,0.5949691772460938
0.3793087005615234,0.5897455215454102
0.3793087005615234,0.5897455215454102
0.3855016708374023,0.5936525344848632
0.3855016708374023,0.5936525344848632
0.3775325775146484,0.5922512054443360
0.3775325775146484,0.5922512054443360
0.3831178665161133,0.5898061752319336
0.3780504226684570,0.5898061752319336
0.3832546234130859,0.5958480834960938
0.3839143753051757,0.5958480834960938
0.3794717788696289,0.5905460357666016
0.3819385528564453,0.5905460357666016
0.3848413467407226,0.5942693710327148
0.3848413467407226,0.5942693710327148
0.3785505294799805,0.5926294326782227
0.3884954452514648,0.5926294326782227
0.3835504531860351,0.5905689239501953
0.3780578613281250,0.5905689239501953
0.3833621978759765,0.5965610504150390
0.3833621978759765,0.5965610504150390
0.3788206100463867,0.5909196853637695
0.3813388824462891,0.5909196853637695
0.3858833312988281,0.5948129653930664
0.3788160324096679,0.5948129653930664
0.3787519454956055,0.5934808731079101
0.3787519454956055,0.5934808731079101
0.3837055206298828,0.5914237976074218
0.3783536911010742,0.5914237976074218
0.3827985763549804,0.5972145080566406
0.3827985763549804,0.5972145080566406
0.3797527313232422,0.5912853240966797
0.3797527313232422,0.5912853240966797
0.3862524032592773,0.5956129074096680
0.3862524032592773,0.5956129074096680
0.3790935516357422,0.5941532135009765
0.3887414932250977,0.5941532135009765
0.3830595016479492,0.5918300628662109
0.3777248382568359,0.5918300628662109
0.3836917877197266,0.5977306365966797
0.3847452163696289,0.5977306365966797
0.3800651550292969,0.5923170089721680
0.3800651550292969,0.5923170089721680
0.3863531112670898,0.5964849472045898
0.3791604995727539,0.5964849472045898
0.3784566879272461,0.5948066711425781
0.3881607055664062,0.5948066711425781
0.3841054916381836,0.5924600601196289
0.3788869857788086,0.5924600601196289
0.3840991973876953,0.5985597610473633
0.3847846984863281,0.5985597610473633
0.3803564071655273,0.5930740356445312
0.3826211929321289,0.5930740356445312
0.3858140945434570,0.5969844818115234
0.3784996032714844,0.5969844818115234
0.3794385910034180,0.5952037811279297
0.3794385910034180,0.5952037811279297
0.3843801498413086,0.5932170867919921
0.3789144515991211,0.5932170867919921
0.3841415405273437,0.5993951797485352
0.3850330352783203,0.5993951797485352
0.3796251296997070,0.5934682846069336
0.3818635940551758,0.5934682846069336
0.3867862701416016,0.5974227905273437
0.3796686172485351,0.5974227905273437
0.3797544479370117,0.5960340499877930
0.3893371582031250,0.5960340499877930
0.3845958709716797,0.5939838409423828
0.3791301727294922,0.5939838409423828
0.3834651947021484,0.5998769760131836
0.3843921661376953,0.5998769760131836
0.3806694030761719,0.5940559387207031
0.3806694030761719,0.5940559387207031
0.3869853973388672,0.5983211517333984
0.3798196792602539,0.5983211517333984
0.3799118041992187,0.5969341278076171
0.3896078109741211,0.5969341278076171
0.3840820312500000,0.5946184158325195
0.3785396575927734,0.5946184158325195
0.3845335006713867,0.6004520416259765
0.3857070922851563,0.6004520416259765
0.3811923980712891,0.5949308395385742
0.3833570480346680,0.5949308395385742
0.3873430252075195,0.5993013381958008
0.3801246643066406,0.5993013381958008
0.3793407440185547,0.5974290847778320
0.3890138626098633,0.5974290847778320
0.3851457595825195,0.5950578689575196
0.3796909332275391,0.5950578689575196
0.3847332000732422,0.6010105133056640
0.3855915069580078,0.6010105133056640
0.3810653686523438,0.5951957702636719
0.3810653686523438,0.5951957702636719
0.3864269256591797,0.5988458633422852
0.3791461944580078,0.5988458633422852
0.3799472808837890,0.5964752197265625
0.3799472808837890,0.5964752197265625
0.3847246170043945,0.5937852859497070
0.3789585113525391,0.5937852859497070
0.3840791702270508,0.5992990493774414
0.3848716735839844,0.5992990493774414
0.3795444488525391,0.5929613113403320
0.3815792083740234,0.5929613113403320
0.3863857269287109,0.5963521957397461
0.3792154312133789,0.5963521957397461
0.3790672302246094,0.5943054199218750
0.3885658264160156,0.5943054199218750
0.3839052200317383,0.5918626785278320
0.3781105041503906,0.5918626785278320
0.3824409484863281,0.5970628738403320
0.3832946777343750,0.5970628738403320
0.3795021057128906,0.5906902313232422
0.3817657470703125,0.5906902313232422
0.3858346939086914,0.5947374343872071
0.3783702850341797,0.5947374343872071
0.3784355163574218,0.5925756454467773
0.3784355163574218,0.5925756454467773
0.3824930191040039,0.5899629592895508
0.3767251968383789,0.5899629592895508
0.3826566696166992,0.5954818725585938
0.3838027954101562,0.5954818725585938
0.3790655136108398,0.5896121978759765
0.3811597824096680,0.5896121978759765
0.3852979660034180,0.5938791275024414
0.3779491424560547,0.5938791275024414
0.3771892547607422,0.5914672851562500
0.3867771148681641,0.5914672851562500
0.3829198837280273,0.5890743255615234
0.3773952484130859,0.5890743255615234
0.3826051712036133,0.5951642990112305
0.3834646224975586,0.5951642990112305
0.3789430618286133,0.5894325256347656
0.3809921264648438,0.5894325256347656
0.3844219207763672,0.5936370849609375
0.3844219207763672,0.5936370849609375
0.3780624389648438,0.5914930343627930
0.3878288269042969,0.5914930343627930
0.3830755233764648,0.5896585464477538
0.3774158477783203,0.5896585464477538
0.3825490951538086,0.5959253311157227
0.3836093902587890,0.5959253311157227
0.3782718658447266,0.5899703979492187
0.3802556991577148,0.5899703979492187
0.3854747772216797,0.5941102981567382
0.3784343719482422,0.5941102981567382
0.3783485412597656,0.5926546096801758
0.3783485412597656,0.5926546096801758
0.3834268569946289,0.5906015396118164
0.3776035308837891,0.5906015396118164
0.3830492019653320,0.5965009689331054
0.3830492019653320,0.5965009689331054
0.3794637680053711,0.5906473159790039
0.3814996719360351,0.5906473159790039
0.3857173919677734,0.5950807571411133
0.3784549713134766,0.5950807571411133
0.3785556793212890,0.5935295104980468
0.3880943298339843,0.5935295104980468
0.3827510833740234,0.5911159515380859
0.3770353317260742,0.5911159515380859
0.3829633712768555,0.5968849182128906
0.3843000411987305,0.5968849182128906
0.3797378540039062,0.5914672851562500
0.3815597534179687,0.5914672851562500
0.3858839035034179,0.5958045959472656
0.3786775588989258,0.5958045959472656
0.3780109405517578,0.5938207626342773
0.3875564575195312,0.5938207626342773
0.3839017868041992,0.5915370941162109
0.3781288146972656,0.5915370941162109
0.3832300186157226,0.5976974487304687
0.3844488143920898,0.5976974487304687
0.3798700332641601,0.5922517776489258
0.3798700332641601,0.5922517776489258
0.3853082656860352,0.5965152740478515
0.3853082656860352,0.5965152740478515
0.3790964126586914,0.5943517684936523
0.3889348983764648,0.5943517684936523
0.3843652725219727,0.5925573348999024
0.3784349441528320,0.5925573348999024
0.3835613250732422,0.5984676361083984
0.3847692489624023,0.5984676361083984
0.3793704986572266,0.5927444458007812
0.3812129974365234,0.5927444458007812
0.3864469528198242,0.5971109390258789
0.3794603347778320,0.5971109390258789
0.3794065475463867,0.5953216552734375
0.3890579223632812,0.5953216552734375
0.3846845626831055,0.5936096191406249
0.3787919998168945,0.5936096191406249
0.3831430435180664,0.5994243621826172
0.3844184875488281,0.5994243621826172
0.3806161880493164,0.5936124801635742
0.3806161880493164,0.5936124801635742
0.3870563507080078,0.5984516143798828
0.3798660278320312,0.5984516143798828
0.3799512863159180,0.5964769363403321
0.3895334243774414,0.5964769363403321
0.3843103408813476,0.5944358825683593
0.3784297943115234,0.5944358825683593
0.3843069076538086,0.6002815246582031
0.3858730316162109,0.6002815246582031
0.3810968399047852,0.5948604583740235
0.3829341888427734,0.5948604583740235
0.3874414443969726,0.5996252059936523
0.3802923202514648,0.5996252059936523
0.3795490264892578,0.5973100662231445
0.3891826629638672,0.5973100662231445
0.3856029510498047,0.5951946258544921
0.3797624588012695,0.5951946258544921
0.3848470687866211,0.6013109207153320
0.3860687255859375,0.6013109207153320
0.3814144134521484,0.5957965850830078
0.3831401824951172,0.5957965850830078
0.3869081497192383,0.6002655029296875
0.3798288345336914,0.6002655029296875
0.3805881500244140,0.5979858398437500
0.3904088973999023,0.5979858398437500
0.3858484268188476,0.5961639404296875
0.3798357009887695,0.5961639404296875
0.3850347518920899,0.6023923873901367
0.3864017486572265,0.6023923873901367
0.3809509277343750,0.5964385986328125
0.3826051712036133,0.5964385986328125
0.3879856109619140,0.6008817672729492
0.3810659408569336,0.6008817672729492
0.3810464859008789,0.5988985061645508
0.3905748367309570,0.5988985061645508
0.3862421035766602,0.5969341278076171
0.3801727294921875,0.5969341278076171
0.3844556808471680,0.6027105331420898
0.3858118057250977,0.6027105331420898
0.3819202423095703,0.5966909408569335
0.3838279724121094,0.5966909408569335
0.3882442474365234,0.6013469696044922
0.3810190200805664,0.6013469696044922
0.3810264587402344,0.5989723205566406
0.3904386520385742,0.5989723205566406
0.3852178573608399,0.5963790893554687
0.3791141510009766,0.5963790893554687
0.3849180221557617,0.6015649795532226
0.3863170623779297,0.6015649795532226
0.3816341400146484,0.5955121994018554
0.3830509185791016,0.5955121994018554
0.3875822067260742,0.5995450973510742
0.3802253723144531,0.5995450973510742
0.3793521881103515,0.5966846466064453
0.3889188766479492,0.5966846466064453
0.3852424621582031,0.5939317703247070
0.3792675018310547,0.5939317703247070
0.3841741561889648,0.5995096206665039
0.3854942321777344,0.5995096206665039
0.3807289123535156,0.5935243606567383
0.3822504043579101,0.5935243606567383
0.3858736038208008,0.5973747253417968
0.3787302017211914,0.5973747253417968
0.3794620513916016,0.5944805145263672
0.3892198562622070,0.5944805145263672
0.3846965789794922,0.5923307418823242
0.3785385131835937,0.5923307418823242
0.3836380004882812,0.5979337692260742
0.3849323272705078,0.5979337692260742
0.3794752120971679,0.6000291824340820
0.3794752120971679,0.6000291824340820
0.3794752120971679,0.5966320037841797
0.3819602966308593,0.5907777786254883
0.3788640975952148,0.5907777786254883
0.3854370117187500,0.5984722137451172
0.3854370117187500,0.5984722137451172
0.3793464660644531,0.5899944305419922
0.3793464660644531,0.5899944305419922
0.3854701995849609,0.5933149337768554
0.3797870635986328,0.5994747161865234
0.3797870635986328,0.5962434768676758
0.3817068099975586,0.5923215866088867
0.3817068099975586,0.5923215866088867
0.3854032516479492,0.5969141006469726
0.3854032516479492,0.5969141006469726
0.3791198730468750,0.5901477813720702
0.3791198730468750,0.5901477813720702
0.3857894897460937,0.5938133239746094
0.3857894897460937,0.5938133239746094
0.3798139572143555,0.5983915328979492
0.3798139572143555,0.5983915328979492
0.3819454193115234,0.5911251068115234
0.3819454193115234,0.5911251068115234
0.3856195449829101,0.5975086212158203
0.3856195449829101,0.5975086212158203
0.3799312591552734,0.5908510208129882
0.3799312591552734,0.5908510208129882
0.3859554290771484,0.5962863922119140
0.3859554290771484,0.5962863922119140
0.3801046371459961,0.5974491119384765
0.3801046371459961,0.5974491119384765
0.3819974899291992,0.5919376373291015
0.3819974899291992,0.5919376373291015
0.3861700057983398,0.5982839584350585
0.3861700057983398,0.5982839584350585
0.3801155090332031,0.5932817459106445
0.3801155090332031,0.5932817459106445
0.3863519668579101,0.5952461242675781
0.3863519668579101,0.5952461242675781
0.3804433822631836,0.5981580734252929
0.3804433822631836,0.5981580734252929
0.3828197479248047,0.5926534652709960
0.3828197479248047,0.5926534652709960
0.3864870071411133,0.6007226943969727
0.3864870071411133,0.6007226943969727
0.3804090499877930,0.5922735214233398
0.3804090499877930,0.5922735214233398
0.3864246368408203,0.5960746765136719
0.3864246368408203,0.5960746765136719
0.3809600830078125,0.5989940643310546
0.3809600830078125,0.5989940643310546
0.3830165863037109,0.5952135086059570
0.3830165863037109,0.5952135086059570
0.3867267608642578,0.5999170303344726
0.3867267608642578,0.5999170303344726
0.3806739807128906,0.5931964874267578
0.3806739807128906,0.5931964874267578
0.3872194290161133,0.5968648910522460
0.3872194290161133,0.5968648910522460
0.3811328887939453,0.6015329360961914
0.3811328887939453,0.6015329360961914
0.3833856582641602,0.5944004058837891
0.3833856582641602,0.5944004058837891
0.3868795394897461,0.6007730484008789
0.3868795394897461,0.6007730484008789
0.3812719345092773,0.5939460754394531
0.3812719345092773,0.5939460754394531
0.3874557495117187,0.5994815826416016
0.3874557495117187,0.5994815826416016
0.3814498901367188,0.6006820678710937
0.3814498901367188,0.6006820678710937
0.3836214065551758,0.5951597213745117
0.3836214065551758,0.5951597213745117
0.3874408721923828,0.6015512466430664
0.3874408721923828,0.6015512466430664
0.3813343048095703,0.5964466094970703
0.3813343048095703,0.5964466094970703
0.3876405715942383,0.5985797882080078
0.3876405715942383,0.5985797882080078
0.3813800811767578,0.6012897491455078
0.3813800811767578,0.6012897491455078
0.3841781616210938,0.5958806991577148
0.3841781616210938,0.5958806991577148
0.3876068115234375,0.6040626525878906
0.3876068115234375,0.6040626525878906
0.3816879272460937,0.5955671310424805
0.3816879272460937,0.5955671310424805
0.3880062103271484,0.5993648529052734
0.3880062103271484,0.5993648529052734
0.3820713043212891,0.6021589279174805
0.3820713043212891,0.6021589279174805
0.3842868804931641,0.5985008239746094
0.3842868804931641,0.5985008239746094
0.3879392623901367,0.6031253814697265
0.3879392623901367,0.6031253814697265
0.3817079544067383,0.5963293075561523
0.3817079544067383,0.5963293075561523
0.3883804321289062,0.6000886917114258
0.3883804321289062,0.6000886917114258
0.3821273803710937,0.6045330047607421
0.3821273803710937,0.6045330047607421
0.3845478057861328,0.5974233627319335
0.3845478057861328,0.5974233627319335
0.3880033493041992,0.6039133071899414
0.3880033493041992,0.6039133071899414
0.3824140548706055,0.5969244003295898
0.3824140548706055,0.5969244003295898
0.3884239196777344,0.6023506164550781
0.3884239196777344,0.6023506164550781
0.3822933197021484,0.6033182144165039
0.3822933197021484,0.6033182144165039
0.3843320846557617,0.5977209091186523
0.3843320846557617,0.5977209091186523
0.3882219314575195,0.6037496566772461
0.3882219314575195,0.6037496566772461
0.3820655822753906,0.5981128692626952
0.3820655822753906,0.5981128692626952
0.3881000518798828,0.5998981475830077
0.3881000518798828,0.5998981475830077
0.3817508697509766,0.6019620895385742
0.3817508697509766,0.6019620895385742
0.3842016220092773,0.5959962844848633
0.3842016220092773,0.5959962844848633
0.3873567581176758,0.6033348083496094
0.3873567581176758,0.6033348083496094
0.3811861038208008,0.5940301895141601
0.3811861038208008,0.5940301895141601
0.3869962692260742,0.5973255157470703
0.3869962692260742,0.5973255157470703
0.3811082839965820,0.5994255065917968
0.3811082839965820,0.5994255065917968
0.3831367492675781,0.5952117919921874
0.3831367492675781,0.5952117919921874
0.3864297866821289,0.5992927551269531
0.3864297866821289,0.5992927551269531
0.3802259445190430,0.5917682647705078
0.3802259445190430,0.5917682647705078
0.3866689682006836,0.5952672958374023
0.3866689682006836,0.5952672958374023
0.3801824569702149,0.5991651535034179
0.3801824569702149,0.5991651535034179
0.3825439453125000,0.5917488098144531
0.3825439453125000,0.5917488098144531
0.3856327056884766,0.5979234695434570
0.3856327056884766,0.5979234695434570
0.3800823211669922,0.5905334472656250
0.3800823211669922,0.5905334472656250
0.3862421035766602,0.5959407806396484
0.3862421035766602,0.5959407806396484
0.3799518585205078,0.5966674804687500
0.3799518585205078,0.5966674804687500
0.3822458267211914,0.5910381317138672
0.3822458267211914,0.5910381317138672
0.3858318328857422,0.5973352432250977
0.3858318328857422,0.5973352432250977
0.3797824859619141,0.5919090270996094
0.3797824859619141,0.5919090270996094
0.3860607147216797,0.5941417694091796
0.3860607147216797,0.5941417694091796
0.3796268463134765,0.5966989517211914
0.3796268463134765,0.5966989517211914
0.3825307846069336,0.5913894653320312
0.3825307846069336,0.5913894653320312
0.3859205245971680,0.5994718551635742
0.3859205245971680,0.5994718551635742
0.3800451278686524,0.5909688949584960
0.3800451278686524,0.5909688949584960
0.3863656997680664,0.5947998046874999
0.3863656997680664,0.5947998046874999
0.3803340911865234,0.5975778579711913
0.3803340911865234,0.5975778579711913
0.3827745437622070,0.5939889907836914
0.3827745437622070,0.5939889907836914
0.3862037658691406,0.5987560272216796
0.3862037658691406,0.5987560272216796
0.3799964904785156,0.5917791366577149
0.3866992950439453,0.5917791366577149
0.3869316101074219,0.5956998825073242
0.3789957046508789,0.5956998825073242
0.3805389404296875,0.5999485015869140
0.3805389404296875,0.5999485015869140
0.3831275939941406,0.5931255340576171
0.3831275939941406,0.5931255340576171
0.3865196228027344,0.5993957519531250
0.3865196228027344,0.5993957519531250
0.3807317733764649,0.5923673629760742
0.3807317733764649,0.5923673629760742
0.3869636535644531,0.5980012893676757
0.3869636535644531,0.5980012893676757
0.3806476593017578,0.5988229751586914
0.3806476593017578,0.5988229751586914
0.3829381942749023,0.5936496734619140
0.3829381942749023,0.5936496734619140
0.3868515014648438,0.6001098632812499
0.3868515014648438,0.6001098632812499
0.3807168960571289,0.5947082519531249
0.3807168960571289,0.5947082519531249
0.3871679306030273,0.5970359802246094
0.3871679306030273,0.5970359802246094
0.3808622360229492,0.5994913101196289
0.3808622360229492,0.5994913101196289
0.3835870742797852,0.5942647933959960
0.3835870742797852,0.5942647933959960
0.3869293212890625,0.6023609161376953
0.3869293212890625,0.6023609161376953
0.3809858322143554,0.5936250686645508
0.3809858322143554,0.5936250686645508
0.3871788024902343,0.5977231979370117
0.3871788024902343,0.5977231979370117
0.3813783645629883,0.6001739501953125
0.3813783645629883,0.6001739501953125
0.3836791992187500,0.5967041015625000
0.3836791992187500,0.5967041015625000
0.3871793746948242,0.6015031814575195
0.3842645645141601,0.6015031814575195
0.3812324523925781,0.5944456100463867
0.3812324523925781,0.5944456100463867
0.3877836227416992,0.5984716415405273
0.3877836227416992,0.5984716415405273
0.3814172744750977,0.6026304244995117
0.3814172744750977,0.6026304244995117
0.3839796066284180,0.5957015991210938
0.3839796066284180,0.5957015991210938
0.3871078491210938,0.6020587921142578
0.3871078491210938,0.6020587921142578
0.3815626144409179,0.5949256896972656
0.3815626144409179,0.5949256896972656
0.3877567291259765,0.6006826400756836
0.3877567291259765,0.6006826400756836
0.3815849304199219,0.6013898849487305
0.3815849304199219,0.6013898849487305
0.3840076446533203,0.5961175918579101
0.3840076446533203,0.5961175918579101
0.3877046585083008,0.6026006698608398
0.3877046585083008,0.6026006698608398
0.3816415786743164,0.5972728729248047
0.3816415786743164,0.5972728729248047
0.3878963470458984,0.5996154785156250
0.3878963470458984,0.5996154785156250
0.3814172744750977,0.6019844055175781
0.3814172744750977,0.6019844055175781
0.3844419479370117,0.5967006683349609
0.3844419479370117,0.5967006683349609
0.3876411437988281,0.6047664642333984
0.3876411437988281,0.6047664642333984
0.3817468643188476,0.5959997177124023
0.3817468643188476,0.5959997177124023
0.3880680084228516,0.6001052856445312
0.3880680084228516,0.6001052856445312
0.3821079254150391,0.6025955200195312
0.3821079254150391,0.6025955200195312
0.3846096038818359,0.5991685867309570
0.3846096038818359,0.5991685867309570
0.3878946304321289,0.6037382125854492
0.3878946304321289,0.6037382125854492
0.3817285537719726,0.5963344573974609
0.3817285537719726,0.5963344573974609
0.3884387969970703,0.6002254486083984
0.3884387969970703,0.6002254486083984
0.3818195343017578,0.6037696838378906
0.3899871826171875,0.6037696838378906
0.3842731475830078,0.5965410232543945
0.3842731475830078,0.5965410232543945
0.3873498916625976,0.6022630691528320
0.3873498916625976,0.6022630691528320
0.3814945220947266,0.5944702148437500
0.3814945220947266,0.5944702148437500
0.3874694824218750,0.5997482299804687
0.3874694824218750,0.5997482299804687
0.3891408920288086,0.5997196197509765
0.3891408920288086,0.5997196197509765
0.3830909729003906,0.5940113067626953
0.3830909729003906,0.5940113067626953
0.3866952896118164,0.5998260498046875
0.3866952896118164,0.5998260498046875
0.3805744171142578,0.5938762664794922
0.3805744171142578,0.5938762664794922
0.3866930007934570,0.5959796905517578
0.3866930007934570,0.5959796905517578
0.3801858901977539,0.5978273391723633
0.3801858901977539,0.5978273391723633
0.3830972671508789,0.5923702239990234
0.3830972671508789,0.5923702239990234
0.3860853195190430,0.6000806808471679
0.3860853195190430,0.6000806808471679
0.3801738739013672,0.5910432815551757
0.3801738739013672,0.5910432815551757
0.3860818862915039,0.5948701858520508
0.3860818862915039,0.5948701858520508
0.3802293777465820,0.5968631744384766
0.3802293777465820,0.5968631744384766
0.3826297760009765,0.5932863235473632
0.3826297760009765,0.5932863235473632
0.3857872009277344,0.5978147506713867
0.3857872009277344,0.5978147506713867
0.3799077987670899,0.5904573440551758
0.3799077987670899,0.5904573440551758
0.3865007400512695,0.5945737838745117
0.3865007400512695,0.5945737838745117
0.3868944168090820,0.5972345352172851
0.3868944168090820,0.5972345352172851
0.3793418884277344,0.5938156127929687
0.3884662628173828,0.5938156127929687
0.3852527618408203,0.5926723480224609
0.3790065765380859,0.5926723480224609
0.3837049484252930,0.5982530593872070
0.3860544204711914,0.5982530593872070
0.3812273025512695,0.5928262710571289
0.3819997787475586,0.5928262710571289
0.3863988876342773,0.5980482101440430
0.3796520233154297,0.5980482101440430
0.3805429458618164,0.5944175720214844
0.3898178100585937,0.5944175720214844
0.3856510162353515,0.5937938690185547
0.3790809631347656,0.5937938690185547
0.3840339660644531,0.5991394042968750
0.3862426757812500,0.5991394042968750
0.3805292129516601,0.5929927825927734
0.3812936782836914,0.5929927825927734
0.3872726440429687,0.5982376098632812
0.3807306289672852,0.5982376098632812
0.3807323455810547,0.5950378417968750
0.3897840499877930,0.5950378417968750
0.3858226776123047,0.5942699432373046
0.3793636322021484,0.5942699432373046
0.3834005355834961,0.5993700027465820
0.3856475830078125,0.5993700027465820
0.3815528869628906,0.5931489944458007
0.3824277877807617,0.5931489944458007
0.3875112533569336,0.5985260009765625
0.3805418014526367,0.5985260009765625
0.3807140350341797,0.5949771881103515
0.3894950866699219,0.5949771881103515
0.3844814300537109,0.5935111999511719
0.3778146743774414,0.5935111999511719
0.3831665039062500,0.5981214523315429
0.3855749130249023,0.5981214523315429
0.3804674148559570,0.5924835205078125
0.3811431884765625,0.5924835205078125
0.3862684249877930,0.5980945587158203
0.3793355941772461,0.5980945587158203
0.3784784317016601,0.5942785263061523
0.3874305725097656,0.5942785263061523
0.3843852996826172,0.5929618835449219
0.3779691696166992,0.5929618835449219
0.3824666976928711,0.5983772277832031
0.3847286224365234,0.5983772277832031
0.3798299789428711,0.5925813674926758
0.3803363800048828,0.5925813674926758
0.3845661163330078,0.5976716995239257
0.3777603149414062,0.5976716995239257
0.3788406372070313,0.5937189102172852
0.3879890441894531,0.5937189102172852
0.3837015151977539,0.5930088043212890
0.3837015151977539,0.5930088043212890
0.3819643020629883,0.5981781005859375
0.3844299316406250,0.5981781005859375
0.3785287857055664,0.5917619705200196
0.3790163040161132,0.5917619705200196
0.3852338790893555,0.5966629028320313
0.3786666870117187,0.5966629028320313
0.3787891387939453,0.5933120727539062
0.3876794815063476,0.5933120727539062
0.3835630416870117,0.5926397323608398
0.3770793914794922,0.5926397323608398
0.3809967041015625,0.5975194931030273
0.3834274291992187,0.5975194931030273
0.3794820785522461,0.5912378311157226
0.3803741455078125,0.5912378311157226
0.3854106903076172,0.5970949172973633
0.3787158966064453,0.5970949172973633
0.3788051605224609,0.5938711166381836
0.3878608703613281,0.5938711166381836
0.3828695297241211,0.5928777694702149
0.3763492584228516,0.5928777694702149
0.3821411132812500,0.5976396560668945
0.3848962783813477,0.5976396560668945
0.3799913406372070,0.5922523498535156
0.3805423736572265,0.5922523498535156
0.3857740402221679,0.5978874206542969
0.3790821075439453,0.5978874206542969
0.3783708572387695,0.5941881179809571
0.3873985290527344,0.5941881179809571
0.3843441009521484,0.5933538436889648
0.3780578613281250,0.5933538436889648
0.3827058792114258,0.5988533020019531
0.3854146957397461,0.5988533020019531
0.3805789947509766,0.5935592651367188
0.3811197280883789,0.5935592651367188
0.3854930877685547,0.5988435745239258
0.3789184570312500,0.5988435745239258
0.3801240921020508,0.5949748992919922
0.3893108367919922,0.5949748992919922
0.3852830886840820,0.5950332641601562
0.3787439346313476,0.5950332641601562
0.3836322784423828,0.6004102706909179
0.3862472534179687,0.6004102706909179
0.3804084777832031,0.5945863723754883
0.3811037063598633,0.5945863723754883
0.3873207092285156,0.5997808456420898
0.3873207092285156,0.5997808456420898
0.3809068679809570,0.5962554931640625
0.3898149490356445,0.5962554931640625
0.3857471466064453,0.5959951400756835
0.3792131423950195,0.5959951400756835
0.3830921173095703,0.6003141403198242
0.3857070922851563,0.6003141403198242
0.3815958023071289,0.5935987472534180
0.3823305130004883,0.5935987472534180
0.3874637603759766,0.5991313934326171
0.3806854248046875,0.5991313934326171
0.3808399200439453,0.5949851989746093
0.3896478652954101,0.5949851989746093
0.3846044540405273,0.5939220428466797
0.3780447006225586,0.5939220428466797
0.3836666107177734,0.5982038497924804
0.3864429473876953,0.5982038497924804
0.3813514709472656,0.5922260284423828
0.3816747665405273,0.5922260284423828
0.3868955612182617,0.5976882934570312
0.3802082061767578,0.5976882934570312
0.3793149948120117,0.5929309844970703
0.3881669998168945,0.5929309844970703
0.3848579406738281,0.5916212081909179
0.3783954620361328,0.5916212081909179
0.3829502105712890,0.5961988449096679
0.3854455947875977,0.5961988449096679
0.3804800033569336,0.5898828506469727
0.3806722640991211,0.5898828506469727
0.3850673675537109,0.5948741912841796
0.3784406661987305,0.5948741912841796
0.3795581817626953,0.5902124404907226
0.3886201858520508,0.5902124404907226
0.3843492507934570,0.5901672363281250
0.3778913497924805,0.5901672363281250
0.3827053070068359,0.5953777313232421
0.3854232788085937,0.5953777313232421
0.3795930862426758,0.5891384124755860
0.3798763275146484,0.5891384124755860
0.3862272262573242,0.5944107055664062
0.3798849105834961,0.5944107055664062
0.3799449920654297,0.5908121109008789
0.3887346267700195,0.5908121109008789
0.3846685409545899,0.5907892227172852
0.3781036376953125,0.5907892227172852
0.3819602966308593,0.5955539703369140
0.3848768234252929,0.5955539703369140
0.3807420730590820,0.5895452499389648
0.3813674926757812,0.5895452499389648
0.3865379333496093,0.5954910278320312
0.3800405502319336,0.5954910278320312
0.3801824569702149,0.5919273376464843
0.3890522003173828,0.5919273376464843
0.3840482711791992,0.5913431167602539
0.3775205612182617,0.5913431167602539
0.3831544876098633,0.5959785461425781
0.3861820220947266,0.5959785461425781
0.3811758041381836,0.5904802322387696
0.3814510345458984,0.5904802322387696
0.3868148803710937,0.5962858200073242
0.3803146362304687,0.5962858200073242
0.3796382904052734,0.5921138763427735
0.3883638381958008,0.5921138763427735
0.3852687835693359,0.5918249130249024
0.3789665222167969,0.5918249130249024
0.3835618972778320,0.5970771789550781
0.3862632751464843,0.5970771789550781
0.3813617706298828,0.5916915893554687
0.3818183898925781,0.5916915893554687
0.3863307952880859,0.5970617294311523
0.3796371459960937,0.5970617294311523
0.3808971405029297,0.5927186965942383
0.3899620056152344,0.5927186965942383
0.3857053756713867,0.5929962158203125
0.3790924072265625,0.5929962158203125
0.3838714599609375,0.5980430603027344
0.3865917205810547,0.5980430603027344
0.3807340621948242,0.5922134399414062
0.3811981201171875,0.5922134399414062
0.3876148223876953,0.5977964401245117
0.3812404632568359,0.5977964401245117
0.3814109802246093,0.5944061279296875
0.3903276443481445,0.5944061279296875
0.3862323760986328,0.5949577331542969
0.3797773361206054,0.5949577331542969
0.3837450027465820,0.5996343612670898
0.3865470886230469,0.5996343612670898
0.3824935913085937,0.5934734344482422
0.3832088470458984,0.5934734344482422
0.3885595321655274,0.5997642517089844
0.3818378448486328,0.5997642517089844
0.3822790145874023,0.5959653854370117
0.3909965515136719,0.5959653854370117
0.3859617233276367,0.5959968566894531
0.3795181274414062,0.5959968566894531
0.3851617813110351,0.6006488800048828
0.3882894515991211,0.6006488800048828
0.3830520629882813,0.5951219558715820
0.3835155487060547,0.5951219558715820
0.3890115737915039,0.6012903213500976
0.3823030471801758,0.6012903213500976
0.3817611694335937,0.5969507217407226
0.3905118942260742,0.5969507217407226
0.3872119903564453,0.5966417312622070
0.3809537887573242,0.5966417312622070
0.3857145309448242,0.6019334793090820
0.3883958816528320,0.6019334793090820
0.3833982467651367,0.5961759567260742
0.3838022232055664,0.5961759567260742
0.3882854461669922,0.6016931533813477
0.3816192626953125,0.6016931533813477
0.3829101562500000,0.5972373962402343
0.3919063568115234,0.5972373962402343
0.3875209808349609,0.5977472305297852
0.3809852600097656,0.5977472305297852
0.3858552932739258,0.6029136657714843
0.3886241912841797,0.6029136657714843
0.3827625274658203,0.5966932296752929
0.3831876754760742,0.5966932296752929
0.3894641876220703,0.6020221710205078
0.3830451965332031,0.6020221710205078
0.3833765029907226,0.5982038497924804
0.3919612884521484,0.5982038497924804
0.3877573013305664,0.5983194351196289
0.3811723709106445,0.5983194351196289
0.3849100112915039,0.6029479980468749
0.3877338409423828,0.6029479980468749
0.3835613250732422,0.5966526031494140
0.3842027664184570,0.5966526031494140
0.3894916534423828,0.6026573181152344
0.3828935623168945,0.6026573181152344
0.3832660675048828,0.5987245559692382
0.3919137954711914,0.5987245559692382
0.3866621017456054,0.5984384536743164
0.3801458358764648,0.5984384536743164
0.3858341217041015,0.6027059555053711
0.3888662338256836,0.6027059555053711
0.3836992263793945,0.5968866348266602
0.3840248107910156,0.5968866348266602
0.3893714904785156,0.6024805068969726
0.3826440811157226,0.6024805068969726
0.3820901870727539,0.5977838516235351
0.3906188964843750,0.5977838516235351
0.3872486114501953,0.5970314025878906
0.3807769775390625,0.5970314025878906
0.3852149963378906,0.6015060424804687
0.3880073547363281,0.6015060424804687
0.3827344894409180,0.5949022293090820
0.3830268859863281,0.5949022293090820
0.3873584747314453,0.5997762680053711
0.3806917190551758,0.5997762680053711
0.3819322586059570,0.5945022583007812
0.3907287597656250,0.5945022583007812
0.3861808776855469,0.5944026947021485
0.3794900894165039,0.5944026947021485
0.3841913223266601,0.5985511779785156
0.3868423461914062,0.5985511779785156
0.3807374954223633,0.5917905807495117
0.3812118530273437,0.5917905807495117
0.3872194290161133,0.5966154098510742
0.3806699752807617,0.5966154098510742
0.3809692382812500,0.5920658111572266
0.3895700454711914,0.5920658111572266
0.3851228713989258,0.5920228958129883
0.3785156250000000,0.5920228958129883
0.3823905944824219,0.5959367752075195
0.3850341796875000,0.5959367752075195
0.3807392120361328,0.5889673233032227
0.3814819335937500,0.5889673233032227
0.3865596771240234,0.5949628829956054
0.3798196792602539,0.5949628829956054
0.3803552627563476,0.5904264450073242
0.3889514923095703,0.5904264450073242
0.3836505889892578,0.5902015686035156
0.3771331787109375,0.5902015686035156
0.3827962875366211,0.5943426132202149
0.3856904983520508,0.5943426132202149
0.3803907394409179,0.5884735107421875
0.3809389114379882,0.5884735107421875
0.3862398147583008,0.5942911148071289
0.3795118331909180,0.5942911148071289
0.3792337417602539,0.5896104812622071
0.3878070831298828,0.5896104812622071
0.3842542648315430,0.5893936157226562
0.3779783248901367,0.5893936157226562
0.3829307556152344,0.5945468902587890
0.3855789184570312,0.5945468902587890
0.3804365158081054,0.5886560440063476
0.3810344696044922,0.5886560440063476
0.3855588912963867,0.5944021224975585
0.3789144515991211,0.5944021224975585
0.3804136276245117,0.5897684097290039
0.3892055511474609,0.5897684097290039
0.3845289230346680,0.5904962539672851
0.3781700134277344,0.5904962539672851
0.3830560684204101,0.5956014633178711
0.3857648849487305,0.5956014633178711
0.3798294067382812,0.5937978744506835
0.3798294067382812,0.5937978744506835
0.3829021453857422,0.5895732879638672
0.3801773071289062,0.5895732879638672
0.3858180999755859,0.5978942871093750
0.3858180999755859,0.5978942871093750
0.3799461364746093,0.5887561798095703
0.3799461364746093,0.5887561798095703
0.3861351013183594,0.5936445236206055
0.3861351013183594,0.5936445236206055
0.3804233551025391,0.5945383071899414
0.3804233551025391,0.5945383071899414
0.3831230163574219,0.5921693801879883
0.3831230163574219,0.5921693801879883
0.3860630035400390,0.5968975067138672
0.3860630035400390,0.5968975067138672
0.3802619934082031,0.5894142150878906
0.3802619934082031,0.5894142150878906
0.3869636535644531,0.5944175720214844
0.3869636535644531,0.5944175720214844
0.3806579589843750,0.5972745895385742
0.3806579589843750,0.5972745895385742
0.3833496093750000,0.5912229537963867
0.3833496093750000,0.5912229537963867
0.3863056182861328,0.5978010177612304
0.3863056182861328,0.5978010177612304
0.3809492111206055,0.5904550552368164
0.3869533538818359,0.5904550552368164
0.3872760772705078,0.5972814559936523
0.3872760772705078,0.5972814559936523
0.3811717987060547,0.5963933944702148
0.3811717987060547,0.5963933944702148
0.3837678909301758,0.5922483444213867
0.3837678909301758,0.5922483444213867
0.3871587753295898,0.5988023757934570
0.3871587753295898,0.5988023757934570
0.3811460494995117,0.5932565689086914
0.3811460494995117,0.5932565689086914
0.3875724792480469,0.5963768005371094
0.3875724792480469,0.5963768005371094
0.3812278747558593,0.5973575592041015
0.3812278747558593,0.5973575592041015
0.3844785690307617,0.5933423995971679
0.3844785690307617,0.5933423995971679
0.3875221252441406,0.6017652511596679
0.3875221252441406,0.6017652511596679
0.3879392623901367,0.5927747726440430
0.3879392623901367,0.5927747726440430
0.3881589889526367,0.5977895736694335
0.3881589889526367,0.5977895736694335
0.3823980331420898,0.5987199783325196
0.3823980331420898,0.5987199783325196
0.3851119995117188,0.5965890884399414
0.3851119995117188,0.5965890884399414
0.3882831573486328,0.6015123367309571
0.3882831573486328,0.6015123367309571
0.3822240829467773,0.5944347381591797
0.3884639739990234,0.5944347381591797
0.3893875122070312,0.5995502471923828
0.3893875122070312,0.5995502471923828
0.3831636428833008,0.6023248672485352
0.3831636428833008,0.6023248672485352
0.3860137939453125,0.5964105606079101
0.3860137939453125,0.5964105606079101
0.3890962600708008,0.6030361175537109
0.3890962600708008,0.6030361175537109
0.3833919525146484,0.5956289291381835
0.3833919525146484,0.5956289291381835
0.3896884918212891,0.6025526046752929
0.3896884918212891,0.6025526046752929
0.3835847854614258,0.6012084960937499
0.3835847854614258,0.6012084960937499
0.3859874725341797,0.5971378326416016
0.3859874725341797,0.5971378326416016
0.3896272659301758,0.6035024642944335
0.3896272659301758,0.6035024642944335
0.3834445953369141,0.5980516433715820
0.3834445953369141,0.5980516433715820
0.3899414062500000,0.6010814666748047
0.3899414062500000,0.6010814666748047
0.3837181091308594,0.6015781402587891
0.3837181091308594,0.6015781402587891
0.3866146087646484,0.5974153518676758
0.3866146087646484,0.5974153518676758
0.3895013809204101,0.6055097579956055
0.3895013809204101,0.6055097579956055
0.3834577560424804,0.5957542419433594
0.3834577560424804,0.5957542419433594
0.3893325805664062,0.6001596450805664
0.3893325805664062,0.6001596450805664
0.3833839416503906,0.6000726699829101
0.3833839416503906,0.6000726699829101
0.3858301162719727,0.5970760345458984
0.3858301162719727,0.5970760345458984
0.3885154724121094,0.6011014938354492
0.3885154724121094,0.6011014938354492
0.3823888778686523,0.5928485870361327
0.3823888778686523,0.5928485870361327
0.3887306213378906,0.5971361160278320
0.3887306213378906,0.5971361160278320
0.3820873260498047,0.5986907958984374
0.3820873260498047,0.5986907958984374
0.3846965789794922,0.5921419143676757
0.3846965789794922,0.5921419143676757
0.3870981216430664,0.5979406356811523
0.3870981216430664,0.5979406356811523
0.3815694808959961,0.5897901535034179
0.3815694808959961,0.5897901535034179
0.3875799179077148,0.5961645126342773
0.3875799179077148,0.5961645126342773
0.3811746597290039,0.5940799713134766
0.3811746597290039,0.5940799713134766
0.3837924957275390,0.5896390914916992
0.3837924957275390,0.5896390914916992
0.3867273330688477,0.5955287933349609
0.3867273330688477,0.5955287933349609
0.3805841445922851,0.5894874572753906
0.3805841445922851,0.5894874572753906
0.3868280410766601,0.5923604965209961
0.3868280410766601,0.5923604965209961
0.3801578521728515,0.5922294616699219
0.3801578521728515,0.5922294616699219
0.3833324432373047,0.5881032943725586
0.3833324432373047,0.5881032943725586
0.3860795974731445,0.5962720870971679
0.3860795974731445,0.5962720870971679
0.3801424026489258,0.5868787765502930
0.3861385345458984,0.5868787765502930
0.3864933013916015,0.5917242050170898
0.3864933013916015,0.5917242050170898
0.3804800033569336,0.5920766830444336
0.3804800033569336,0.5920766830444336
0.3831619262695312,0.5899732589721679
0.3831619262695312,0.5899732589721679
0.3862071990966797,0.5947420120239257
0.3862071990966797,0.5947420120239257
0.3800645828247070,0.5874578475952148
0.3800645828247070,0.5874578475952148
0.3869905471801758,0.5924772262573242
0.3869905471801758,0.5924772262573242
0.3806493759155273,0.5947860717773438
0.3806493759155273,0.5947860717773438
0.3835733413696289,0.5891389846801758
0.3835733413696289,0.5891389846801758
0.3866180419921875,0.5959527969360351
0.3866180419921875,0.5959527969360351
0.3811059951782226,0.5887355804443359
0.3811059951782226,0.5887355804443359
0.3873756408691406,0.5957181930541992
0.3873756408691406,0.5957181930541992
0.3812547683715820,0.5941434860229492
0.3812547683715820,0.5941434860229492
0.3837026596069336,0.5902044296264648
0.3837026596069336,0.5902044296264648
0.3871147155761719,0.5965684890747071
0.3871147155761719,0.5965684890747071
0.3809171676635742,0.5907983779907227
0.3809171676635742,0.5907983779907227
0.3872314453125000,0.5940216064453124
0.3872314453125000,0.5940216064453124
0.3810808181762695,0.5943929672241210
0.3810808181762695,0.5943929672241210
0.3841335296630859,0.5906724929809570
0.3841335296630859,0.5906724929809570
0.3871570587158203,0.5990713119506835
0.3871570587158203,0.5990713119506835
0.3811792373657226,0.5899520874023437
0.3811792373657226,0.5899520874023437
0.3873395919799805,0.5950366973876953
0.3873395919799805,0.5950366973876953
0.3816610336303711,0.5952884674072265
0.3816610336303711,0.5952884674072265
0.3842096328735352,0.5932909011840820
0.3842096328735352,0.5932909011840820
0.3873853683471680,0.5980361938476563
0.3873853683471680,0.5980361938476563
0.3814132690429687,0.5908121109008789
0.3814132690429687,0.5908121109008789
0.3880147933959961,0.5957651138305664
0.3880147933959961,0.5957651138305664
0.3816656112670898,0.5977981567382812
0.3816656112670898,0.5977981567382812
0.3843921661376953,0.5922557830810546
0.3843921661376953,0.5922557830810546
0.3872543334960937,0.5988727569580078
0.3872543334960937,0.5988727569580078
0.3818727493286133,0.5915439605712890
0.3818727493286133,0.5915439605712890
0.3881801605224609,0.5986936569213867
0.3881801605224609,0.5986936569213867
0.3820827484130859,0.5970102310180664
0.3820827484130859,0.5970102310180664
0.3848075866699219,0.5933109283447265
0.3848075866699219,0.5933109283447265
0.3881538391113281,0.5997219085693359
0.3881538391113281,0.5997219085693359
0.3821033477783203,0.5942670822143554
0.3821033477783203,0.5942670822143554
0.3883861541748047,0.5974245071411133
0.3883861541748047,0.5974245071411133
0.3819013595581054,0.5974714279174804
0.3819013595581054,0.5974714279174804
0.3849557876586914,0.5934116363525390
0.3849557876586914,0.5934116363525390
0.3878534317016601,0.6017618179321289
0.3878534317016601,0.6017618179321289
0.3819580078125000,0.5924531936645507
0.3819580078125000,0.5924531936645507
0.3883094787597656,0.5978256225585937
0.3883094787597656,0.5978256225585937
0.3822257995605469,0.5974096298217774
0.3822257995605469,0.5974096298217774
0.3852115631103515,0.5959178924560546
0.3852115631103515,0.5959178924560546
0.3877332687377930,0.6004823684692383
0.3877332687377930,0.6004823684692383
0.3819740295410156,0.5931066513061524
0.3819740295410156,0.5931066513061524
0.3889005661010742,0.5986799240112305
0.3889005661010742,0.5986799240112305
0.3822584152221680,0.6002397537231445
0.3822584152221680,0.6002397537231445
0.3855508804321289,0.5950075149536133
0.3855508804321289,0.5950075149536133
0.3881841659545898,0.6016330718994141
0.3881841659545898,0.6016330718994141
0.3828557968139648,0.5941257476806641
0.3828557968139648,0.5941257476806641
0.3890047073364258,0.6013418197631836
0.3890047073364258,0.6013418197631836
0.3823945999145508,0.5987159729003906
0.3823945999145508,0.5987159729003906
0.3852481842041016,0.5948450088500976
0.3820014953613281,0.5948450088500976
0.3881109237670898,0.6007427215576172
0.3881109237670898,0.6007427215576172
0.3820089340209961,0.5945091247558594
0.3820089340209961,0.5945091247558594
0.3882854461669922,0.5975280761718750
0.3882854461669922,0.5975280761718750
0.3814859390258789,0.5963396072387696
0.3814859390258789,0.5963396072387696
0.3847005844116211,0.5925109863281249
0.3847005844116211,0.5925109863281249
0.3869876861572266,0.6000703811645508
0.3869876861572266,0.6000703811645508
0.3811735153198242,0.5905117034912110
0.3811735153198242,0.5905117034912110
0.3871662139892578,0.5956289291381835
0.3871662139892578,0.5956289291381835
0.3810899734497070,0.5946882247924804
0.3810899734497070,0.5946882247924804
0.3841043472290039,0.5929035186767578
0.3841043472290039,0.5929035186767578
0.3867645263671875,0.5971899032592773
0.3867645263671875,0.5971899032592773
0.3809240341186523,0.5894016265869141
0.3809240341186523,0.5894016265869141
0.3874792098999023,0.5946327209472656
0.3874792098999023,0.5946327209472656
0.3808107376098633,0.5957136154174805
0.3808107376098633,0.5957136154174805
0.3839097976684570,0.5904081344604492
0.3839097976684570,0.5904081344604492
0.3862483978271484,0.5965724945068359
0.3862483978271484,0.5965724945068359
0.3809652328491211,0.5889707565307617
0.3809652328491211,0.5889707565307617
0.3871467590332031,0.5961364746093750
0.3871467590332031,0.5961364746093750
0.3806802749633789,0.5936227798461914
0.3806802749633789,0.5936227798461914
0.3839023590087891,0.5902667999267578
0.3839023590087891,0.5902667999267578
0.3867942810058594,0.5967710494995117
0.3867942810058594,0.5967710494995117
0.3810379028320313,0.5911617279052734
0.3810379028320313,0.5911617279052734
0.3874694824218750,0.5949726104736328
0.3874694824218750,0.5949726104736328
0.3806882858276367,0.5942848205566406
0.3806882858276367,0.5942848205566406
0.3844985961914062,0.5911611557006836
0.3844985961914062,0.5911611557006836
0.3869785308837890,0.5994140625000000
0.3869785308837890,0.5994140625000000
0.3813606262207031,0.5901964187622070
0.3813606262207031,0.5901964187622070
0.3878379821777344,0.5959362030029297
0.3878379821777344,0.5959362030029297
0.3815374374389648,0.5952793121337890
0.3815374374389648,0.5952793121337890
0.3847377777099609,0.5939489364624023
0.3847377777099609,0.5939489364624023
0.3873144149780273,0.5984842300415039
0.3873144149780273,0.5984842300415039
0.3814258575439453,0.5911170959472656
0.3814258575439453,0.5911170959472656
0.3882568359375000,0.5966577529907227
0.3882568359375000,0.5966577529907227
0.3823997497558594,0.5986421585083007
0.3848682403564453,0.5986421585083007
0.3818206787109375,0.5925802230834961
0.3901102066040039,0.5925802230834961
0.3870723724365234,0.5941297531127929
0.3803564071655273,0.5941297531127929
0.3849208831787109,0.5986227035522461
0.3885749816894531,0.5986227035522461
0.3831150054931641,0.5926820755004882
0.3828683853149414,0.5926820755004882
0.3879861831665039,0.5988292694091797
0.3879861831665039,0.5988292694091797
0.3828105926513672,0.5928977966308594
0.3913455963134765,0.5928977966308594
0.3874019622802734,0.5953308105468750
0.3803632736206055,0.5953308105468750
0.3850284576416015,0.5995948791503906
0.3887071609497070,0.5995948791503906
0.3823860168457031,0.5930351257324219
0.3820981979370117,0.5930351257324219
0.3889509201049804,0.5989442825317383
0.3830406188964844,0.5989442825317383
0.3830909729003906,0.5939157485961913
0.3914159774780273,0.5939157485961913
0.3875764846801757,0.5960157394409179
0.3806791305541992,0.5960157394409179
0.3843235015869140,0.5996561050415039
0.3880365371704101,0.5996561050415039
0.3833301544189453,0.5932102203369141
0.3832597732543945,0.5932102203369141
0.3890853881835937,0.6000034332275390
0.3830142974853515,0.6000034332275390
0.3831401824951172,0.5947013854980469
0.3915029525756836,0.5947013854980469
0.3868200302124024,0.5962818145751952
0.3798196792602539,0.5962818145751952
0.3852499008178711,0.5997470855712891
0.3892513275146484,0.5997470855712891
0.3836654663085937,0.5942333221435546
0.3832323074340820,0.5942333221435546
0.3893228530883789,0.6006774902343750
0.3832500457763672,0.6006774902343750
0.3825668334960937,0.5948959350585937
0.3908821105957031,0.5948959350585937
0.3879421234130859,0.5965616226196289
0.3879421234130859,0.5965616226196289
0.3856647491455078,0.6009939193725585
0.3893228530883789,0.6009939193725585
0.3839023590087891,0.5952569961547851
0.3835796356201172,0.5952569961547851
0.3887763977050781,0.6011901855468750
0.3827001571655274,0.6011901855468750
0.3837770462036132,0.5952404022216796
0.3922668457031250,0.5952404022216796
0.3884204864501953,0.5979234695434570
0.3813709259033203,0.5979234695434570
0.3860200881958007,0.6019214630126953
0.3897743225097656,0.6019214630126953
0.3833816528320312,0.5957611083984374
0.3830755233764648,0.5957611083984374
0.3899196624755859,0.6018333435058594
0.3841295242309570,0.6018333435058594
0.3840768814086914,0.5964282989501953
0.3924013137817383,0.5964282989501953
0.3887403488159180,0.5990158081054687
0.3817211151123047,0.5990158081054687
0.3854101181030273,0.6024364471435547
0.3891506195068359,0.6024364471435547
0.3844121932983398,0.5956918716430664
0.3842931747436523,0.5956918716430664
0.3902853012084961,0.6023757934570312
0.3839527130126953,0.6023757934570312
0.3841032028198242,0.5962978363037109
0.3923423767089844,0.5962978363037109
0.3875644683837891,0.5979864120483398
0.3804611206054687,0.5979864120483398
0.3857414245605469,0.6006534576416015
0.3895946502685547,0.6006534576416015
0.3836952209472656,0.5944816589355468
0.3832517623901367,0.5944816589355468
0.3892776489257813,0.6003667831420898
0.3830680847167969,0.6003667831420898
0.3822252273559570,0.5937337875366211
0.3903842926025390,0.5937337875366211
0.3873842239379883,0.5945589065551757
0.3804353713989257,0.5945589065551757
0.3848201751708984,0.5983469009399414
0.3884176254272461,0.5983469009399414
0.3827762603759766,0.5919227600097656
0.3822149276733398,0.5919227600097656
0.3874454498291016,0.5975572586059570
0.3812828063964844,0.5975572586059570
0.3820352554321289,0.5907485961914062
0.3904787063598633,0.5907485961914062
0.3864658355712891,0.5928714752197265
0.3794288635253906,0.5928714752197265
0.3838960647583008,0.5966091156005859
0.3876050949096679,0.5966091156005859
0.3810453414916992,0.5896516799926758
0.3806270599365234,0.5896516799926758
0.3874219894409179,0.5949863433837891
0.3814704895019531,0.5949863433837891
0.3814659118652344,0.5892597198486328
0.3895717620849609,0.5892597198486328
0.3857763290405273,0.5912006378173827
0.3786243438720703,0.5912006378173827
0.3822132110595703,0.5944999694824219
0.3860641479492187,0.5944999694824219
0.3812221527099609,0.5877977371215820
0.3809995651245117,0.5877977371215820
0.3869951248168945,0.5944713592529297
0.3809034347534180,0.5944713592529297
0.3809984207153320,0.5889884948730468
0.3893205642700195,0.5889884948730468
0.3846954345703125,0.5906919479370117
0.3776756286621094,0.5906919479370117
0.3829662322998047,0.5940479278564453
0.3870151519775391,0.5940479278564453
0.3814573287963867,0.5885267257690430
0.3809583663940430,0.5885267257690430
0.3871576309204102,0.5951122283935547
0.3811237335205078,0.5951122283935547
0.3803718566894531,0.5892425537109375
0.3887306213378906,0.5892425537109375
0.3858455657958984,0.5911783218383789
0.3789625167846680,0.5911783218383789
0.3832712173461914,0.5954504013061523
0.3871387481689453,0.5954504013061523
0.3817628860473632,0.5898187637329101
0.3811649322509765,0.5898187637329101
0.3864950180053711,0.5958303451538086
0.3805715560913086,0.5958303451538086
0.3813394546508789,0.5894639968872070
0.3898406982421875,0.5894639968872070
0.3861734390258789,0.5924365997314452
0.3790214538574219,0.5924365997314452
0.3834938049316406,0.5962394714355469
0.3817857742309570,0.5961381912231445
0.3817142486572265,0.5907560348510742
0.3899768829345703,0.5907560348510742
0.3864377975463867,0.5935111999511719
0.3793401718139648,0.5935111999511719
0.3829891204833984,0.5967521667480469
0.3869522094726562,0.5967521667480469
0.3821548461914062,0.5903263092041016
0.3817159652709961,0.5903263092041016
0.3879266738891601,0.5971961975097656
0.3818778991699219,0.5971961975097656
0.3818698883056640,0.5914690017700195
0.3900953292846679,0.5914690017700195
0.3858037948608398,0.5937726974487304
0.3787296295166016,0.5937726974487304
0.3839939117431641,0.5970348358154297
0.3881223678588867,0.5970348358154297
0.3823837280273437,0.5916114807128906
0.3818630218505859,0.5916114807128906
0.3881217956542969,0.5985322952270508
0.3822853088378906,0.5985322952270508
0.3813743591308594,0.5923044204711914
0.3897417068481445,0.5923044204711914
0.3870277404785156,0.5944278717041015
0.3800245285034179,0.5944278717041015
0.3845672607421875,0.5987594604492187
0.3883626937866211,0.5987594604492187
0.3828300476074218,0.5929470062255859
0.3822538375854492,0.5929470062255859
0.3876577377319336,0.5993093490600586
0.3816610336303711,0.5993093490600586
0.3826017379760742,0.5928297042846680
0.3911573410034180,0.5928297042846680
0.3872817993164062,0.5957450866699219
0.3801378250122070,0.5957450866699219
0.3847120285034180,0.5998832702636718
0.3886865615844726,0.5998832702636718
0.3821084976196289,0.5935884475708008
0.3816232681274414,0.5935884475708008
0.3887060165405273,0.5994438171386719
0.3829170227050781,0.5994438171386719
0.3829021453857422,0.5942161560058593
0.3911470413208007,0.5942161560058593
0.3876119613647461,0.5966783523559570
0.3803775787353516,0.5966783523559570
0.3841718673706054,0.6003965377807617
0.3881475448608399,0.6003965377807617
0.3832963943481445,0.5937698364257812
0.3828323364257812,0.5937698364257812
0.3890184402465820,0.6008085250854492
0.3829639434814453,0.6008085250854492
0.3830177307128906,0.5950424194335937
0.3912923812866211,0.5950424194335937
0.3869012832641601,0.5972282409667968
0.3797761917114258,0.5972282409667968
0.3850158691406250,0.6003381729125976
0.3892066955566406,0.6003381729125976
0.3834897994995117,0.5948759078979492
0.3827848434448242,0.5948759078979492
0.3891941070556640,0.6015821456909179
0.3832151412963867,0.6015821456909179
0.3824317932128906,0.5954006195068359
0.3908311843872070,0.5954006195068359
0.3880130767822266,0.5974216461181641
0.3809852600097656,0.5974216461181641
0.3853488922119140,0.6015832901000976
0.3892856597900390,0.6015832901000976
0.3837352752685547,0.5958057403564453
0.3829668045043945,0.5958057403564453
0.3884479522705078,0.6016422271728515
0.3824340820312500,0.6016422271728515
0.3831413269042969,0.5948587417602539
0.3916225433349609,0.5948587417602539
0.3880462646484375,0.5976917266845703
0.3806911468505859,0.5976917266845703
0.3851440429687500,0.6010654449462890
0.3890413284301757,0.6010654449462890
0.3824409484863281,0.5944192886352538
0.3816701889038086,0.5944192886352538
0.3886814117431641,0.5995771408081054
0.3828088760375977,0.5995771408081054
0.3825130462646484,0.5933938980102539
0.3907052993774414,0.5933938980102539
0.3870306015014648,0.5954658508300781
0.3797790527343750,0.5954658508300781
0.3832111358642578,0.5982879638671875
0.3872955322265625,0.5982879638671875
0.3823053359985352,0.5911594390869140
0.3816083908081054,0.5911594390869140
0.3880016326904297,0.5975292205810546
0.3817611694335937,0.5975292205810546
0.3816696166992187,0.5909111022949218
0.3897708892822265,0.5909111022949218
0.3853940963745117,0.5928068161010742
0.3781082153320313,0.5928068161010742
0.3832191467285156,0.5953479766845703
0.3874837875366211,0.5953479766845703
0.3815797805786132,0.5895807266235351
0.3807935714721680,0.5895807266235351
0.3871353149414062,0.5958698272705077
0.3811117172241211,0.5958698272705077
0.3803392410278320,0.5892780303955077
0.3884777069091797,0.5892780303955077
0.3858701705932617,0.5909133911132812
0.3786621093750000,0.5909133911132812
0.3830291748046875,0.5947837829589844
0.3868944168090820,0.5947837829589844
0.3812084197998047,0.5885450363159179
0.3802946090698242,0.5885450363159179
0.3858707427978516,0.5945560455322265
0.3799781799316406,0.5945560455322265
0.3807397842407226,0.5878927230834960
0.3891368865966797,0.5878927230834960
0.3856630325317383,0.5908149719238281
0.3783765792846679,0.5908149719238281
0.3827939987182617,0.5947174072265625
0.3869258880615234,0.5947174072265625
0.3803895950317382,0.5883733749389648
0.3795862197875977,0.5883733749389648
0.3868520736694336,0.5942739486694336
0.3812267303466797,0.5942739486694336
0.3810287475585937,0.5886302947998047
0.3893600463867187,0.5886302947998047
0.3859720230102539,0.5914495468139648
0.3787096023559570,0.5914495468139648
0.3822818756103515,0.5949422836303710
0.3865533828735351,0.5949422836303710
0.3815523147583008,0.5884317398071289
0.3809268951416016,0.5884317398071289
0.3873161315917968,0.5957674026489258
0.3814344406127930,0.5957674026489258
0.3813634872436523,0.5899515151977539
0.3897268295288086,0.5899515151977539
0.3855474472045898,0.5923324584960937
0.3781814575195312,0.5923324584960937
0.3834989547729492,0.5954864501953124
0.3879529953002930,0.5954864501953124
0.3821685791015625,0.5901220321655273
0.3812976837158203,0.5901220321655273
0.3877922058105469,0.5969409942626953
0.3821084976196289,0.5969409942626953
0.3811569213867188,0.5908126831054688
0.3895362854003906,0.5908126831054688
0.3869573593139649,0.5929738998413085
0.3798465728759766,0.5929738998413085
0.3841701507568359,0.5972682952880859
0.3883924484252930,0.5972682952880859
0.3827276229858398,0.5918231964111328
0.3818298339843750,0.5918231964111328
0.3876016616821289,0.5980905532836914
0.3818893432617188,0.5980905532836914
0.3824712753295899,0.5914312362670898
0.3910114288330078,0.5914312362670898
0.3876863479614258,0.5947299957275390
0.3803844451904297,0.5947299957275390
0.3848241806030273,0.5985403060913086
0.3890115737915039,0.5985403060913086
0.3813217163085937,0.5963802337646484
0.3813217163085937,0.5963802337646484
0.3819322586059570,0.5936227798461914
0.3829524993896484,0.5936227798461914
0.3879198074340820,0.6016502380371094
0.3879198074340820,0.6016502380371094
0.3825370788574219,0.5925813674926758
0.3825370788574219,0.5925813674926758
0.3888570785522461,0.5984790802001952
0.3888570785522461,0.5984790802001952
0.3820095062255859,0.5970016479492187
0.3820095062255859,0.5970016479492187
0.3857866287231445,0.5960077285766602
0.3857866287231445,0.5960077285766602
0.3881509780883789,0.6005647659301757
0.3881509780883789,0.6005647659301757
0.3824666976928711,0.5933395385742187
0.3824666976928711,0.5933395385742187
0.3892908096313477,0.5990312576293945
0.3892908096313477,0.5990312576293945
0.3821182250976562,0.5994037628173828
0.3821182250976562,0.5994037628173828
0.3860200881958007,0.5947649002075195
0.3860200881958007,0.5947649002075195
0.3882654190063476,0.6010929107666015
0.3882654190063476,0.6010929107666015
0.3830509185791016,0.5936553955078124
0.3830509185791016,0.5936553955078124
0.3892238616943359,0.6012245178222656
0.3892238616943359,0.6012245178222656
0.3821903228759765,0.5980155944824218
0.3821903228759765,0.5980155944824218
0.3857139587402343,0.5951551437377930
0.3857139587402343,0.5951551437377930
0.3886356353759766,0.6013778686523438
0.3886356353759766,0.6013778686523438
0.3829313278198242,0.5958017349243164
0.3829313278198242,0.5958017349243164
0.3893594741821289,0.5997156143188477
0.3893594741821289,0.5997156143188477
0.3822309494018555,0.5981975555419922
0.3822309494018555,0.5981975555419922
0.3862569808959961,0.5953977584838867
0.3862569808959961,0.5953977584838867
0.3885103225708008,0.6034046173095703
0.3885103225708008,0.6034046173095703
0.3829559326171875,0.5941812515258789
0.3829559326171875,0.5941812515258789
0.3889944076538086,0.6000823974609375
0.3811248779296875,0.6000823974609375
0.3823677062988281,0.5985872268676757
0.3823677062988281,0.5985872268676757
0.3863725662231445,0.5977678298950195
0.3863725662231445,0.5977678298950195
0.3886322021484375,0.6021720886230468
0.3886322021484375,0.6021720886230468
0.3832397460937500,0.5946905136108398
0.3832397460937500,0.5946905136108398
0.3896347045898437,0.6005395889282227
0.3896347045898437,0.6005395889282227
0.3825004577636719,0.6007141113281250
0.3825004577636719,0.6007141113281250
0.3862478256225586,0.5960277557373047
0.3862478256225586,0.5960277557373047
0.3882951736450195,0.6018596649169922
0.3882951736450195,0.6018596649169922
0.3831481933593750,0.5939369201660156
0.3831481933593750,0.5939369201660156
0.3891649246215820,0.6010871887207031
0.3891649246215820,0.6010871887207031
0.3819534301757813,0.5975217819213867
0.3819534301757813,0.5975217819213867
0.3858095169067383,0.5943511962890625
0.3858095169067383,0.5943511962890625
0.3883609771728516,0.6003158569335937
0.3883609771728516,0.6003158569335937
0.3827081680297851,0.5944913864135742
0.3827081680297851,0.5944913864135742
0.3889492034912109,0.5980133056640625
0.3889492034912109,0.5980133056640625
0.3814590454101562,0.5961341857910156
0.3814590454101562,0.5961341857910156
0.3856258392333984,0.5928628921508788
0.3856258392333984,0.5928628921508788
0.3877000808715820,0.6003559112548827
0.3877000808715820,0.6003559112548827
0.3821325302124023,0.5908664703369141
0.3821325302124023,0.5908664703369141
0.3883255004882812,0.5963871002197265
0.3883255004882812,0.5963871002197265
0.3814447402954101,0.5946813583374023
0.3814447402954101,0.5946813583374023
0.3851760864257812,0.5934247970581055
0.3851760864257812,0.5934247970581055
0.3874568939208984,0.5978124618530273
0.3874568939208984,0.5978124618530273
0.3816667556762695,0.5901821136474609
0.3816667556762695,0.5901821136474609
0.3885211944580078,0.5958457946777344
0.3885211944580078,0.5958457946777344
0.3811878204345703,0.5960220336914063
0.3811878204345703,0.5960220336914063
0.3851795196533203,0.5915697097778320
0.3851795196533203,0.5915697097778320
0.3874803543090820,0.5977403640747070
0.3874803543090820,0.5977403640747070
0.3822504043579101,0.5904029846191406
0.3822504043579101,0.5904029846191406
0.3884376525878906,0.5980316162109375
0.3884376525878906,0.5980316162109375
0.3813497543334961,0.5947860717773438
0.3813497543334961,0.5947860717773438
0.3850107192993164,0.5920331954956054
0.3850107192993164,0.5920331954956054
0.3879117965698242,0.5984069824218750
0.3879117965698242,0.5984069824218750
0.3824071884155273,0.5930036544799805
0.3824071884155273,0.5930036544799805
0.3889074325561523,0.5971841812133789
0.3889074325561523,0.5971841812133789
0.3818326950073242,0.5958549499511718
0.3818326950073242,0.5958549499511718
0.3859554290771484,0.5932909011840820
0.3859554290771484,0.5932909011840820
0.3882659912109375,0.6013235092163086
0.3882659912109375,0.6013235092163086
0.3828495025634766,0.5921390533447265
0.3828495025634766,0.5921390533447265
0.3888839721679687,0.5978731155395508
0.3888839721679687,0.5978731155395508
0.3821073532104492,0.5962972640991211
0.3821073532104492,0.5962972640991211
0.3858741760253906,0.5951826095581054
0.3858741760253906,0.5951826095581054
0.3882013320922851,0.5995605468749999
0.3882013320922851,0.5995605468749999
0.3826412200927734,0.5920417785644531
0.3826412200927734,0.5920417785644531
0.3891254425048828,0.5977329254150391
0.3891254425048828,0.5977329254150391
0.3816627502441406,0.5980670928955077
0.3816627502441406,0.5980670928955077
0.3857231140136719,0.5936244964599610
0.3857231140136719,0.5936244964599610
0.3877367019653320,0.5998020172119141
0.3877367019653320,0.5998020172119141
0.3827968597412109,0.5924560546875000
0.3827968597412109,0.5924560546875000
0.3890762329101562,0.6002025604248047
0.3890762329101562,0.6002025604248047
0.3819288253784179,0.5969799041748046
0.3819288253784179,0.5969799041748046
0.3860149383544922,0.5943969726562500
0.3860149383544922,0.5943969726562500
0.3886035919189453,0.6008199691772461
0.3886035919189453,0.6008199691772461
0.3832569122314453,0.5954578399658202
0.3832569122314453,0.5954578399658202
0.3897502899169922,0.5998918533325195
0.3897502899169922,0.5998918533325195
0.3824930191040039,0.5986324310302734
0.3824930191040039,0.5986324310302734
0.3871244430541992,0.5961679458618164
0.3871244430541992,0.5961679458618164
0.3892982482910156,0.6042257308959961
0.3892982482910156,0.6042257308959961
0.3840843200683594,0.5954097747802735
0.3840843200683594,0.5954097747802735
0.3904375076293945,0.6011146545410156
0.3904375076293945,0.6011146545410156
0.3835613250732422,0.5997304916381836
0.3835613250732422,0.5997304916381836
0.3874374389648437,0.5989007949829102
0.3874374389648437,0.5989007949829102
0.3896730422973633,0.6032695770263672
0.3896730422973633,0.6032695770263672
0.3841054916381836,0.5960311889648438
0.3841054916381836,0.5960311889648438
0.3908386230468750,0.6016880035400390
0.3908386230468750,0.6016880035400390
0.3835355758666992,0.6020118713378906
0.3835355758666992,0.6020118713378906
0.3874511718750000,0.5973901748657227
0.3874511718750000,0.5973901748657227
0.3897033691406250,0.6035837173461914
0.3897033691406250,0.6035837173461914
0.3845746994018555,0.5960924148559570
0.3845746994018555,0.5960924148559570
0.3907115936279297,0.6035854339599609
0.3907115936279297,0.6035854339599609
0.3835000991821289,0.6001441955566406
0.3835000991821289,0.6001441955566406
0.3871244430541992,0.5972574234008788
0.3871244430541992,0.5972574234008788
0.3898052215576172,0.6034543991088867
0.3898052215576172,0.6034543991088867
0.3842205047607422,0.5977855682373047
0.3842205047607422,0.5977855682373047
0.3905874252319336,0.6017709732055664
0.3905874252319336,0.6017709732055664
0.3833570480346680,0.5999771118164062
0.3929975509643555,0.5999771118164062
0.3873916625976562,0.5971332550048828
0.3873916625976562,0.5971332550048828
0.3895677566528320,0.6046966552734375
0.3895677566528320,0.6046966552734375
0.3840511322021484,0.5954286575317382
0.3840511322021484,0.5954286575317382
0.3899682998657226,0.6007204055786133
0.3899682998657226,0.6007204055786133
0.3830921173095703,0.5987766265869140
0.3830921173095703,0.5987766265869140
0.3867708206176758,0.5972837448120117
0.3867708206176758,0.5972837448120117
0.3889755249023437,0.6013435363769531
0.3889755249023437,0.6013435363769531
0.3833621978759765,0.5933195114135742
0.3833621978759765,0.5933195114135742
0.3896730422973633,0.5984996795654297
0.3896730422973633,0.5984996795654297
0.3821279525756836,0.5982925415039062
0.3821279525756836,0.5982925415039062
0.3858398437500000,0.5932199478149414
0.3858398437500000,0.5932199478149414
0.3877138137817382,0.5989294052124023
0.3877138137817382,0.5989294052124023
0.3825548171997070,0.5910415649414062
0.3825548171997070,0.5910415649414062
0.3884983062744141,0.5979932785034180
0.3884983062744141,0.5979932785034180
0.3810550689697266,0.5942184448242187
0.3810550689697266,0.5942184448242187
0.3847703933715820,0.5910072326660156
0.3847703933715820,0.5910072326660156
0.3870969772338867,0.5966526031494140
0.3870969772338867,0.5966526031494140
0.3814619064331055,0.5906885147094726
0.3814619064331055,0.5906885147094726
0.3875862121582031,0.5945377349853516
0.3875862121582031,0.5945377349853516
0.3799776077270507,0.5927764892578125
0.3799776077270507,0.5927764892578125
0.3844253540039063,0.5898027420043945
0.3844253540039063,0.5898027420043945
0.3864973068237305,0.5976957321166992
0.3864973068237305,0.5976957321166992
0.3810499191284180,0.5886640548706055
0.3810499191284180,0.5886640548706055
0.3873939514160156,0.5945886611938477
0.3873939514160156,0.5945886611938477
0.3804645538330078,0.5930797576904296
0.3804645538330078,0.5930797576904296
0.3845403671264648,0.5924783706665039
0.3809389114379882,0.5924783706665039
0.3870769500732422,0.5972299575805664
0.3870769500732422,0.5972299575805664
0.3815568923950195,0.5901563644409179
0.3815568923950195,0.5901563644409179
0.3884759902954101,0.5962652206420899
0.3884759902954101,0.5962652206420899
0.3813320159912109,0.5968517303466797
0.3813320159912109,0.5968517303466797
0.3855005264282226,0.5926305770874023
0.3855005264282226,0.5926305770874023
0.3879123687744140,0.5989637374877930
0.3879123687744140,0.5989637374877930
0.3828426361083984,0.5918220520019531
0.3828426361083984,0.5918220520019531
0.3891529083251953,0.5995273590087891
0.3891529083251953,0.5995273590087891
0.3819562911987305,0.5963235855102539
0.3819562911987305,0.5963235855102539
0.3858169555664062,0.5938602447509765
0.3858169555664062,0.5938602447509765
0.3885332107543945,0.6000703811645508
0.3885332107543945,0.6000703811645508
0.3830154418945312,0.5945297241210937
0.3830154418945312,0.5945297241210937
0.3894212722778320,0.5986438751220703
0.3894212722778320,0.5986438751220703
0.3822538375854492,0.5969633102416992
0.3822538375854492,0.5969633102416992
0.3864051818847656,0.5942739486694336
0.3864051818847656,0.5942739486694336
0.3886098861694336,0.6021617889404297
0.3886098861694336,0.6021617889404297
0.3831001281738281,0.5930070877075195
0.3831001281738281,0.5930070877075195
0.3891986846923828,0.5988613128662109
0.3891986846923828,0.5988613128662109
0.3824020385742187,0.5973678588867187
0.3824020385742187,0.5973678588867187
0.3863410949707031,0.5963676452636718
0.3863410949707031,0.5963676452636718
0.3886350631713867,0.6008834838867188
0.3886350631713867,0.6008834838867188
0.3832569122314453,0.5936445236206055
0.3832569122314453,0.5936445236206055
0.3898544311523438,0.5994518280029296
0.3898544311523438,0.5994518280029296
0.3825708389282226,0.5998958587646485
0.3899728775024414,0.6003273010253906
0.3865631103515625,0.5955333709716797
0.3829925537109375,0.5955333709716797
0.3886796951293945,0.6016771316528320
0.3886796951293945,0.6016771316528320
0.3837295532226562,0.5944799423217774
0.3837295532226562,0.5944799423217774
0.3899030685424805,0.6019512176513672
0.3899030685424805,0.6019512176513672
0.3827465057373047,0.5987234115600586
0.3827465057373047,0.5987234115600586
0.3866540908813477,0.5958440780639648
0.3866540908813477,0.5958440780639648
0.3891260147094727,0.6019924163818359
0.3891260147094727,0.6019924163818359
0.3835081100463867,0.5962686538696289
0.3835081100463867,0.5962686538696289
0.3898075103759766,0.6002111434936523
0.3898075103759766,0.6002111434936523
0.3823425292968750,0.5987314224243164
0.3919441223144531,0.5987314224243164
0.3865911483764649,0.5957141876220703
0.3865911483764649,0.5957141876220703
0.3887666702270507,0.6035802841186523
0.3887666702270507,0.6035802841186523
0.3832271575927734,0.5945320129394531
0.3832271575927734,0.5945320129394531
0.3895242691040039,0.6002214431762695
0.3895242691040039,0.6002214431762695
0.3824930191040039,0.5985877990722656
0.3824930191040039,0.5985877990722656
0.3863405227661132,0.5975841522216797
0.3863405227661132,0.5975841522216797
0.3886144638061523,0.6020748138427734
0.3886144638061523,0.6020748138427734
0.3829044342041015,0.5946624755859374
0.3829044342041015,0.5946624755859374
0.3896844863891601,0.6005378723144531
0.3896844863891601,0.6005378723144531
0.3824026107788086,0.6007438659667969
0.3824026107788086,0.6007438659667969
0.3863525390625000,0.5961776733398437
0.3863525390625000,0.5961776733398437
0.3885726928710938,0.6023008346557617
0.3885726928710938,0.6023008346557617
0.3834011077880859,0.5946973800659180
0.3834011077880859,0.5946973800659180
0.3895231246948242,0.6020730972290039
0.3895231246948242,0.6020730972290039
0.3822778701782226,0.5985265731811523
0.3822778701782226,0.5985265731811523
0.3859605789184570,0.5955848693847656
0.3823127746582031,0.5955848693847656
0.3887626647949219,0.6013933181762695
0.3887626647949219,0.6013933181762695
0.3831121444702149,0.5955442428588867
0.3831121444702149,0.5955442428588867
0.3893943786621094,0.5993156433105469
0.3893943786621094,0.5993156433105469
0.3822389602661133,0.5974102020263672
0.3822389602661133,0.5974102020263672
0.3862735748291016,0.5942899703979492
0.3862735748291016,0.5942899703979492
0.3883861541748047,0.6018579483032226
0.3883861541748047,0.6018579483032226
0.3829736709594727,0.5925704956054687
0.3829736709594727,0.5925704956054687
0.3889148712158203,0.5980218887329102
0.3889148712158203,0.5980218887329102
0.3822366714477539,0.5962303161621093
0.3822366714477539,0.5962303161621093
0.3859193801879883,0.5949359893798828
0.3859193801879883,0.5949359893798828
0.3882368087768555,0.5991874694824219
0.3882368087768555,0.5991874694824219
0.3825645446777344,0.5915456771850586
0.3825645446777344,0.5915456771850586
0.3890407562255859,0.5969564437866210
0.3890407562255859,0.5969564437866210
0.3816621780395508,0.5970142364501952
0.3816621780395508,0.5970142364501952
0.3855148315429687,0.5921951293945312
0.3855148315429687,0.5921951293945312
0.3874505996704101,0.5981369018554688
0.3874505996704101,0.5981369018554688
0.3823911666870117,0.5904676437377929
0.3823911666870117,0.5904676437377929
0.3885223388671875,0.5979578018188476
0.3885223388671875,0.5979578018188476
0.3814699172973633,0.5947700500488281
0.3814699172973633,0.5947700500488281
0.3853706359863281,0.5918397903442383
0.3853706359863281,0.5918397903442383
0.3878288269042969,0.5979412078857421
0.3878288269042969,0.5979412078857421
0.3821949005126953,0.5924531936645507
0.3821949005126953,0.5924531936645507
0.3885652542114258,0.5965490341186523
0.3885652542114258,0.5965490341186523
0.3812702178955078,0.5951385498046875
0.3812702178955078,0.5951385498046875
0.3856361389160156,0.5923994064331054
0.3856361389160156,0.5923994064331054
0.3878477096557617,0.6004846572875976
0.3878477096557617,0.6004846572875976
0.3825044631958008,0.5913843154907227
0.3825044631958008,0.5913843154907227
0.3888055801391602,0.5972723007202149
0.3888055801391602,0.5972723007202149
0.3819139480590820,0.5957805633544921
0.3819139480590820,0.5957805633544921
0.3857408523559570,0.5948066711425781
0.3857408523559570,0.5948066711425781
0.3879484176635742,0.5990798950195312
0.3879484176635742,0.5990798950195312
0.3821914672851562,0.5917013168334960
0.3821914672851562,0.5917013168334960
0.3889566421508789,0.5974027633666992
0.3889566421508789,0.5974027633666992
0.3816175460815430,0.5976104736328125
0.3816175460815430,0.5976104736328125
0.3854507446289062,0.5929109573364257
0.3854507446289062,0.5929109573364257
0.3876829147338867,0.5989385604858398
0.3876829147338867,0.5989385604858398
0.3822984695434570,0.5913803100585937
0.3822984695434570,0.5913803100585937
0.3882659912109375,0.5987428665161133
0.3803930282592773,0.5987428665161133
0.3810098648071289,0.5950904846191406
0.3810098648071289,0.5950904846191406
0.3844945907592773,0.5923959732055664
0.3844945907592773,0.5923959732055664
0.3873756408691406,0.5985620498657226
0.3873756408691406,0.5985620498657226
0.3819099426269531,0.5929109573364257
0.3819099426269531,0.5929109573364257
0.3882579803466797,0.5969455718994140
0.3882579803466797,0.5969455718994140
0.3809835433959961,0.5953891754150390
0.3906372070312500,0.5953891754150390
0.3851131439208984,0.5927175521850586
0.3851131439208984,0.5927175521850586
0.3873407363891602,0.6008262634277344
0.3873407363891602,0.6008262634277344
0.3820192337036133,0.5918186187744140
0.3820192337036133,0.5918186187744140
0.3881721496582031,0.5977272033691406
0.3881721496582031,0.5977272033691406
0.3815614700317383,0.5962148666381836
0.3815614700317383,0.5962148666381836
0.3853197097778320,0.5953210830688477
0.3853197097778320,0.5953210830688477
0.3877241134643555,0.5998340606689453
0.3877241134643555,0.5998340606689453
0.3822492599487304,0.5925138473510742
0.3822492599487304,0.5925138473510742
0.3887718200683594,0.5982702255249023
0.3808284759521484,0.5982702255249023
0.3817411422729492,0.5986553192138672
0.3817411422729492,0.5986553192138672
0.3856904983520508,0.5942934036254882
0.3856904983520508,0.5942934036254882
0.3878997802734375,0.6007776260375977
0.3878997802734375,0.6007776260375977
0.3830606460571289,0.5936519622802734
0.3830606460571289,0.5936519622802734
0.3894001007080078,0.6014156341552734
0.3894001007080078,0.6014156341552734
0.3825576782226562,0.5983972549438477
0.3825576782226562,0.5983972549438477
0.3863845825195312,0.5957714080810547
0.3863845825195312,0.5957714080810547
0.3891300201416015,0.6022510528564453
0.3891300201416015,0.6022510528564453
0.3837272644042969,0.5969970703124999
0.3837272644042969,0.5969970703124999
0.3901834487915039,0.6011369705200195
0.3901834487915039,0.6011369705200195
0.3828414916992187,0.5997499465942383
0.3828414916992187,0.5997499465942383
0.3870964050292969,0.5969095230102539
0.3870964050292969,0.5969095230102539
0.3893663406372070,0.6047870635986328
0.3893663406372070,0.6047870635986328
0.3837438583374023,0.5954721450805663
0.3837438583374023,0.5954721450805663
0.3897817611694336,0.6006666183471679
0.3897817611694336,0.6006666183471679
0.3825542449951172,0.5989562988281250
0.3825542449951172,0.5989562988281250
0.3862403869628906,0.5976963043212891
0.3862403869628906,0.5976963043212891
0.3886367797851563,0.6019592285156250
0.3886367797851563,0.6019592285156250
0.3827962875366211,0.5944061279296875
0.3827962875366211,0.5944061279296875
0.3893417358398437,0.5996183395385742
0.3893417358398437,0.5996183395385742
0.3819814682006836,0.5992876052856445
0.3819814682006836,0.5992876052856445
0.3856035232543945,0.5942338943481446
0.3856035232543945,0.5942338943481446
0.3877115249633789,0.5997825622558594
0.3877115249633789,0.5997825622558594
0.3822441101074219,0.5919628143310547
0.3822441101074219,0.5919628143310547
0.3883152008056641,0.5990518569946289
0.3883152008056641,0.5990518569946289
0.3811717987060547,0.5956094741821288
0.3811717987060547,0.5956094741821288
0.3849689483642578,0.5928291320800781
0.3849689483642578,0.5928291320800781
0.3878568649291992,0.5990118026733399
0.3878568649291992,0.5990118026733399
0.3825193405151367,0.5935844421386719
0.3825193405151367,0.5935844421386719
0.3889823913574219,0.5978004455566406
0.3889823913574219,0.5978004455566406
0.3820816040039062,0.5963121414184570
0.3820816040039062,0.5963121414184570
0.3860475540161133,0.5932479858398437
0.3860475540161133,0.5932479858398437
0.3882711410522461,0.6011707305908203
0.3882711410522461,0.6011707305908203
0.3827808380126953,0.5920675277709960
0.3827808380126953,0.5920675277709960
0.3888170242309570,0.5976625442504883
0.3888170242309570,0.5976625442504883
0.3821868896484375,0.5959178924560546
0.3821868896484375,0.5959178924560546
0.3855937957763672,0.5945840835571289
0.3855937957763672,0.5945840835571289
0.3877962112426758,0.5986341476440430
0.3877962112426758,0.5986341476440430
0.3819311141967773,0.5908086776733398
0.3819311141967773,0.5908086776733398
0.3882299423217773,0.5960735321044922
0.3882299423217773,0.5960735321044922
0.3809120178222656,0.5962200164794922
0.3809120178222656,0.5962200164794922
0.3845432281494141,0.5912818908691406
0.3845432281494141,0.5912818908691406
0.3866352081298828,0.5975978851318359
0.3866352081298828,0.5975978851318359
0.3815460205078125,0.5901861190795898
0.3815460205078125,0.5901861190795898
0.3877361297607422,0.5978879928588867
0.3877361297607422,0.5978879928588867
0.3808719635009766,0.5947706222534179
0.3808719635009766,0.5947706222534179
0.3847835540771484,0.5920692443847656
0.3847835540771484,0.5920692443847656
0.3875278472900390,0.5985260009765625
0.3875278472900390,0.5985260009765625
0.3820163726806641,0.5933893203735351
0.3820163726806641,0.5933893203735351
0.3886859893798828,0.5977638244628906
0.3886859893798828,0.5977638244628906
0.3816129684448242,0.5968917846679688
0.3816129684448242,0.5968917846679688
0.3860801696777343,0.5943082809448242
0.3860801696777343,0.5943082809448242
0.3885778427124023,0.6026241302490234
0.3885778427124023,0.6026241302490234
0.3832340240478516,0.5938888549804687
0.3832340240478516,0.5938888549804687
0.3896581649780274,0.5996807098388671
0.3896581649780274,0.5996807098388671
0.3830108642578125,0.5984905242919921
0.3830108642578125,0.5984905242919921
0.3867502212524414,0.5975080490112304
0.3867502212524414,0.5975080490112304
0.3891054153442383,0.6021314620971679
0.3891054153442383,0.6021314620971679
0.3833719253540039,0.5947500228881836
0.3833719253540039,0.5947500228881836
0.3900701522827149,0.6004331588745117
0.3900701522827149,0.6004331588745117
0.3829874038696289,0.6008457183837891
0.3829874038696289,0.6008457183837891
0.3867204666137695,0.5961570739746094
0.3867204666137695,0.5961570739746094
0.3891534805297852,0.6023391723632813
0.3891534805297852,0.6023391723632813
0.3835784912109375,0.5948993682861328
0.3835784912109375,0.5948993682861328
0.3898738861083984,0.6024799346923828
0.3898738861083984,0.6024799346923828
0.3828535079956055,0.5992189407348633
0.3828535079956055,0.5992189407348633
0.3863262176513672,0.5962789535522460
0.3863262176513672,0.5962789535522460
0.3891054153442383,0.6023500442504882
0.3891054153442383,0.6023500442504882
0.3833782196044922,0.5968448638916015
0.3833782196044922,0.5968448638916015
0.3897691726684570,0.6008394241333007
0.3897691726684570,0.6008394241333007
0.3901142120361328,0.6014184951782227
0.3901142120361328,0.6014184951782227
0.3901142120361328,0.6013183593750000
0.3842039108276367,0.5960529327392577
0.3924379348754883,0.5960529327392577
0.3890665054321289,0.5988304138183593
0.3817903518676758,0.5988304138183593
0.3855188369750976,0.6024129867553710
0.3896392822265625,0.6024129867553710
0.3846628189086914,0.5956975936889648
0.3841157913208008,0.5956975936889648
0.3904237747192383,0.6029920578002930
0.3845930099487305,0.6029920578002930
0.3844207763671875,0.5973026275634765
0.3926937103271484,0.5973026275634765
0.3885549545288086,0.5993614196777344
0.3812049865722656,0.5993614196777344
0.3864006042480468,0.6021629333496094
0.3907230377197266,0.6021629333496094
0.3848144531250000,0.5967727661132812
0.3841037750244141,0.5967727661132812
0.3904758453369140,0.6032964706420898
0.3845678329467773,0.6032964706420898
0.3835384368896484,0.5969232559204102
0.3918468475341797,0.5969232559204102
0.3890951156616211,0.5986982345581054
0.3818996429443359,0.5986982345581054
0.3863399505615234,0.6030967712402343
0.3905364990234375,0.6030967712402343
0.3847051620483398,0.5974107742309570
0.3840442657470703,0.5974107742309570
0.3895402908325195,0.6034973144531249
0.3837221145629883,0.6034973144531249
0.3842090606689453,0.5965530395507812
0.3928207397460937,0.5965530395507812
0.3892192840576172,0.5998849868774414
0.3820043563842773,0.5998849868774414
0.3864143371582031,0.6035545349121093
0.3907030105590820,0.6035545349121093
0.3840682983398437,0.5973690032958984
0.3834056854248047,0.5973690032958984
0.3903945922851562,0.6028169631958008
0.3846525192260742,0.6028169631958008
0.3842393875122070,0.5972059249877929
0.3927154541015625,0.5972059249877929
0.3891168594360351,0.5996503829956055
0.3817823410034180,0.5996503829956055
0.3853872299194336,0.6025680541992188
0.3894950866699219,0.6025680541992188
0.3843481063842774,0.5950933456420898
0.3838817596435547,0.5950933456420898
0.3899637222290039,0.6019815444946289
0.3840454101562500,0.6019815444946289
0.3838130950927734,0.5955030441284179
0.3920837402343750,0.5955030441284179
0.3877779006958008,0.5974943161010742
0.3805240631103515,0.5974943161010742
0.3855594635009765,0.5999147415161132
0.3899288177490234,0.5999147415161132
0.3837987899780274,0.5943397521972656
0.3832477569580078,0.5943397521972656
0.3894264221191406,0.6007850646972656
0.3835790634155273,0.6007850646972656
0.3823785781860352,0.5939346313476562
0.3907670974731445,0.5939346313476562
0.3879226684570312,0.5951683044433593
0.3807718276977539,0.5951683044433593
0.3851428985595703,0.5993328094482422
0.3892461776733399,0.5993328094482422
0.3833215713500976,0.5930385589599609
0.3826251983642578,0.5930385589599609
0.3880805969238281,0.5991239547729492
0.3822246551513672,0.5991239547729492
0.3827064514160156,0.5919897079467773
0.3911670684814453,0.5919897079467773
0.3875038146972656,0.5950292587280274
0.3802471160888672,0.5950292587280274
0.3847394943237304,0.5989391326904296
0.3888914108276367,0.5989391326904296
0.3823488235473633,0.5924125671386719
0.3817480087280273,0.5924125671386719
0.3887872695922852,0.5982084274291992
0.3830194473266602,0.5982084274291992
0.3828752517700195,0.5929944992065429
0.3911865234375000,0.5929944992065429
0.3877756118774414,0.5955436706542968
0.3804147720336914,0.5955436706542968
0.3842399597167969,0.5991216659545898
0.3882951736450195,0.5991216659545898
0.3834302902221680,0.5923753738403320
0.3828638076782226,0.5923753738403320
0.3891712188720703,0.5996320724487304
0.3831550598144531,0.5996320724487304
0.3831613540649414,0.5938476562500000
0.3912763595581055,0.5938476562500000
0.3872062683105469,0.5958967208862305
0.3797739028930664,0.5958967208862305
0.3851428985595703,0.5985872268676757
0.3891923904418945,0.5985872268676757
0.3837535858154297,0.5932886123657226
0.3827407836914062,0.5932886123657226
0.3892988204956054,0.5996841430664063
0.3831504821777343,0.5996841430664063
0.3823831558227539,0.5933761596679688
0.3903430938720703,0.5933761596679688
0.3879192352294922,0.5949560165405273
0.3805755615234375,0.5949560165405273
0.3851806640625000,0.5992017745971679
0.3889909744262695,0.5992017745971679
0.3836145401000977,0.5934637069702148
0.3826612472534179,0.5934637069702148
0.3886299133300781,0.5997825622558594
0.3823991775512695,0.5997825622558594
0.3832403182983398,0.5929201126098632
0.3914325714111328,0.5929201126098632
0.3882951736450195,0.5961742401123047
0.3807157516479492,0.5961742401123047
0.3855176925659179,0.6000497817993163
0.3893875122070312,0.6000497817993163
0.3831396102905273,0.5938791275024414
0.3823282241821289,0.5938791275024414
0.3896163940429687,0.5996852874755859
0.3837152481079101,0.5996852874755859
0.3836374282836914,0.5945692062377930
0.3917060852050781,0.5945692062377930
0.3885532379150390,0.5974090576171874
0.3809766769409180,0.5974090576171874
0.3850370407104492,0.6007753372192383
0.3888502120971680,0.6007753372192383
0.3841049194335938,0.5939529418945312
0.3834646224975586,0.5939529418945312
0.3898515701293945,0.6012788772583008
0.3837192535400391,0.6012788772583008
0.3836597442626953,0.5953794479370117
0.3917490005493164,0.5953794479370117
0.3876909255981445,0.5977191925048828
0.3802848815917969,0.5977191925048828
0.3857219696044922,0.6006889343261719
0.3897142410278320,0.6006889343261719
0.3839956283569336,0.5954555511474610
0.3833187103271484,0.5954555511474610
0.3897560119628906,0.6023797988891602
0.3836866378784179,0.6023797988891602
0.3827476501464844,0.5958726882934570
0.3909919738769531,0.5958726882934570
0.3884227752685547,0.5974187850952148
0.3812484741210938,0.5974187850952148
0.3857757568359375,0.6020307540893555
0.3896621704101562,0.6020307540893555
0.3840797424316406,0.5959768295288086
0.3834394454956054,0.5959768295288086
0.3888822555541992,0.6023174285888672
0.3829502105712890,0.6023174285888672
0.3834451675415039,0.5954303741455078
0.3918582916259766,0.5954303741455078
0.3882402420043945,0.5984865188598633
0.3810688018798828,0.5984865188598633
0.3855680465698242,0.6026035308837890
0.3897096633911133,0.6026035308837890
0.3831069946289062,0.5959859848022461
0.3828237533569336,0.5959859848022461
0.3897502899169922,0.6019374847412109
0.3841581344604492,0.6019374847412109
0.3837324142456054,0.5967195510864257
0.3920946121215820,0.5967195510864257
0.3886339187622070,0.5993974685668945
0.3816272735595703,0.5993974685668945
0.3852190017700195,0.6030200958251953
0.3894681930541992,0.6030200958251953
0.3843246459960937,0.5960208892822265
0.3840557098388672,0.5960208892822265
0.3901559829711914,0.6034000396728515
0.3844877243041992,0.6034000396728515
0.3839389801025391,0.5979612350463867
0.3923938751220703,0.5979612350463867
0.3881378173828125,0.5998947143554687
0.3811054229736328,0.5998947143554687
0.3861494064331055,0.6025611877441406
0.3905645370483398,0.6025611877441406
0.3846582412719726,0.5972053527832031
0.3840511322021484,0.5972053527832031
0.3901639938354492,0.6037221908569336
0.3844242095947266,0.6037221908569336
0.3831441879272461,0.5973735809326172
0.3915910720825195,0.5973735809326172
0.3887220382690429,0.5986541748046875
0.3817520141601562,0.5986541748046875
0.3858570098876953,0.6025817871093749
0.3900484085083007,0.6025817871093749
0.3841615676879883,0.5964345932006836
0.3836437225341797,0.5964345932006836
0.3888313293457031,0.6020399093627929
0.3830348968505859,0.6020399093627929
0.3832071304321289,0.5947362899780273
0.3915395736694336,0.5947362899780273
0.3880376815795898,0.5973146438598632
0.3808261871337891,0.5973146438598632
0.3850959777832031,0.6004943847656250
0.3891271591186523,0.6004943847656250
0.3824987411499023,0.5937635421752929
0.3819311141967773,0.5937635421752929
0.3887020111083984,0.5989402770996094
0.3830200195312500,0.5989402770996094
0.3824357986450195,0.5934293746948242
0.3906864166259765,0.5934293746948242
0.3870964050292969,0.5956815719604492
0.3799781799316406,0.5956815719604492
0.3836414337158203,0.5987440109252929
0.3876474380493164,0.5987440109252929
0.3827075958251953,0.5913848876953125
0.3822652816772461,0.5913848876953125
0.3883930206298828,0.5984773635864258
0.3825262069702148,0.5984773635864258
0.3820621490478516,0.5923112869262696
0.3901811599731445,0.5923112869262696
0.3861299514770508,0.5943506240844726
0.3788434982299805,0.5943506240844726
0.3841238021850586,0.5968471527099609
0.3882162094116211,0.5968471527099609
0.3822349548339843,0.5908939361572265
0.3810779571533203,0.5908939361572265
0.3878551483154297,0.5982759475708007
0.3828500747680664,0.5982759475708007
0.3806871414184570,0.5912967681884765
0.3880411148071289,0.5912967681884765
0.3869682312011719,0.5934213638305664
0.3799547195434570,0.5934213638305664
0.3837850570678711,0.5975343704223632
0.3882270812988281,0.5975343704223632
0.3828495025634766,0.5914575576782226
0.3813074111938476,0.5914575576782226
0.3876502990722656,0.5986129760742187
0.3826841354370117,0.5986129760742187
0.3819826126098633,0.5913082122802734
0.3894138336181641,0.5913082122802734
0.3875415802001953,0.5951534271240234
0.3803787231445312,0.5951534271240234
0.3843246459960937,0.5989259719848633
0.3886539459228516,0.5989259719848633
0.3826675415039062,0.5923370361328125
0.3812204360961914,0.5923370361328125
0.3887117385864258,0.5983531951904296
0.3838222503662109,0.5983531951904296
0.3822967529296875,0.5926643371582031
0.3895889282226562,0.5926643371582031
0.3877161026000976,0.5957593917846680
0.3805475234985352,0.5957593917846680
0.3838016510009766,0.5991050720214843
0.3883684158325195,0.5991050720214843
0.3834840774536133,0.5917402267456054
0.3820083618164062,0.5917402267456054
0.3891048431396484,0.5998941421508789
0.3840723037719727,0.5998941421508789
0.3824037551879882,0.5936090469360351
0.3898756027221680,0.5936090469360351
0.3873321533203125,0.5962417602539062
0.3801040649414062,0.5962417602539062
0.3846565246582031,0.5989088058471680
0.3896461486816406,0.5989088058471680
0.3838319778442383,0.5933938980102539
0.3821874618530273,0.5933938980102539
0.3893302917480468,0.6008399963378906
0.3844202041625976,0.6008399963378906
0.3818962097167969,0.5941417694091796
0.3893869400024414,0.5941417694091796
0.3883615493774414,0.5963069915771484
0.3812513351440430,0.5963069915771484
0.3850204467773438,0.6007495880126953
0.3821010589599609,0.6004623413085938
0.3888633728027344,0.6015850067138672
0.3839492797851562,0.6015850067138672
0.3827579498291016,0.5941383361816406
0.3905256271362305,0.5941383361816406
0.3887054443359375,0.5979944229125976
0.3814001083374023,0.5979944229125976
0.3825119018554687,0.6009132385253906
0.3834451675415039,0.5943626403808594
0.3834451675415039,0.5950899124145508
0.3868452072143554,0.5940410614013671
0.3868452072143554,0.5965147018432617
0.3888233184814453,0.5974130630493164
0.3888233184814453,0.5990964889526367
0.3900707244873047,0.6022190093994141
0.3900707244873047,0.6001281738281250
0.3843429565429687,0.5947666168212891
0.3828969955444336,0.5947666168212891
0.3900695800781250,0.6029211044311523
0.3850914001464844,0.6029211044311523
0.3831081390380859,0.5963275909423827
0.3907894134521484,0.5963275909423827
0.3880937576293945,0.5990615844726562
0.3810207366943359,0.5990615844726562
0.3855165481567382,0.6017955780029297
0.3905113220214844,0.6017955780029297
0.3843252182006836,0.5960809707641601
0.3829765319824219,0.5960809707641601
0.3869956970214843,0.5974239349365235
0.3869956970214843,0.5974239349365235
0.3888851165771484,0.6041770935058594
0.3888851165771484,0.6041770935058594
0.3835138320922851,0.5959384918212890
0.3835138320922851,0.5959384918212890
0.3905033111572265,0.6043413162231445
0.3905033111572265,0.6043413162231445
0.3831081390380859,0.6012044906616211
0.3831081390380859,0.6012044906616211
0.3871822357177734,0.5983182907104492
0.3871822357177734,0.5983182907104492
0.3895099639892578,0.6050468444824219
0.3895099639892578,0.6050468444824219
0.3837890625000000,0.5986169815063477
0.3837890625000000,0.5986169815063477
0.3909976959228516,0.6035894393920899
0.3909976959228516,0.6035894393920899
0.3835304260253906,0.6020439147949218
0.3835304260253906,0.6020439147949218
0.3878843307495117,0.5990736007690429
0.3878843307495117,0.5990736007690429
0.3895563125610351,0.6073825836181640
0.3895563125610351,0.6073825836181640
0.3839572906494140,0.5971269607543945
0.3839572906494140,0.5971269607543945
0.3906148910522461,0.6034017562866211
0.3906148910522461,0.6034017562866211
0.3834503173828125,0.6014877319335937
0.3834503173828125,0.6014877319335937
0.3872531890869140,0.5995759963989258
0.3872531890869140,0.5995759963989258
0.3889589309692383,0.6041524887084960
0.3889589309692383,0.6041524887084960
0.3830268859863281,0.5950504302978515
0.3830268859863281,0.5950504302978515
0.3901205062866211,0.6008096694946289
0.3901205062866211,0.6008096694946289
0.3823184967041016,0.6006345748901367
0.3823184967041016,0.6006345748901367
0.3862169265747070,0.5952363967895508
0.3862169265747070,0.5952363967895508
0.3876165390014648,0.6013710021972656
0.3876165390014648,0.6013710021972656
0.3823207855224609,0.5925069808959961
0.3823207855224609,0.5925069808959961
0.3890705108642578,0.6002935409545899
0.3890705108642578,0.6002935409545899
0.3815048217773437,0.5968202590942383
0.3815048217773437,0.5968202590942383
0.3854736328125000,0.5933675765991211
0.3854736328125000,0.5933675765991211
0.3874397277832031,0.5997087478637695
0.3874397277832031,0.5997087478637695
0.3816101074218750,0.5928800582885742
0.3816101074218750,0.5928800582885742
0.3886453628540039,0.5973941802978515
0.3886453628540039,0.5973941802978515
0.3809011459350586,0.5958303451538086
0.3809011459350586,0.5958303451538086
0.3852899551391601,0.5923255920410156
0.3852899551391601,0.5923255920410156
0.3869607925415039,0.6007970809936524
0.3869607925415039,0.6007970809936524
0.3814676284790039,0.5905574798583985
0.3814676284790039,0.5905574798583985
0.3884376525878906,0.5967407226562500
0.3884376525878906,0.5967407226562500
0.3812221527099609,0.5954830169677734
0.3812221527099609,0.5954830169677734
0.3851709365844727,0.5940925598144531
0.3851709365844727,0.5940925598144531
0.3870540618896484,0.5991880416870117
0.3870540618896484,0.5991880416870117
0.3812278747558593,0.5908939361572265
0.3812278747558593,0.5908939361572265
0.3887998580932617,0.5973958969116211
0.3887998580932617,0.5973958969116211
0.3811986923217773,0.5979909896850586
0.3811986923217773,0.5979909896850586
0.3854598999023438,0.5932434082031249
0.3854598999023438,0.5932434082031249
0.3873785018920898,0.6000514984130859
0.3873785018920898,0.6000514984130859
0.3819757461547851,0.5917367935180664
0.3819757461547851,0.5917367935180664
0.3889720916748047,0.6000114440917969
0.3889720916748047,0.6000114440917969
0.3816352844238281,0.5971263885498047
0.3816352844238281,0.5971263885498047
0.3854507446289062,0.5938385009765624
0.3854507446289062,0.5938385009765624
0.3877378463745117,0.6005985260009765
0.3877378463745117,0.6005985260009765
0.3820804595947265,0.5939672470092773
0.3820804595947265,0.5939672470092773
0.3890716552734375,0.5987485885620117
0.3890716552734375,0.5987485885620117
0.3817359924316406,0.5976385116577149
0.3817359924316406,0.5976385116577149
0.3859371185302734,0.5943025588989258
0.3859371185302734,0.5943025588989258
0.3872114181518554,0.6029045104980468
0.3872114181518554,0.6029045104980468
0.3821886062622070,0.5928194046020507
0.3866409301757812,0.5928194046020507
0.3890773773193359,0.5993820190429687
0.3890773773193359,0.5993820190429687
0.3821393966674805,0.5981042861938476
0.3821393966674805,0.5981042861938476
0.3859806060791016,0.5966325759887695
0.3859806060791016,0.5966325759887695
0.3879959106445313,0.6017944335937500
0.3879959106445313,0.6017944335937500
0.3823814392089844,0.5933601379394531
0.3823814392089844,0.5933601379394531
0.3897508621215820,0.5997739791870117
0.3897508621215820,0.5997739791870117
0.3822252273559570,0.6005413055419921
0.3822252273559570,0.6005413055419921
0.3862987518310547,0.5955528259277344
0.3862987518310547,0.5955528259277344
0.3878997802734375,0.6023403167724609
0.3878997802734375,0.6023403167724609
0.3828111648559570,0.5939964294433594
0.3828111648559570,0.5939964294433594
0.3897228240966797,0.6022378921508789
0.3897228240966797,0.6022378921508789
0.3824323654174804,0.5995576858520507
0.3824323654174804,0.5995576858520507
0.3863639831542969,0.5962537765502930
0.3863639831542969,0.5962537765502930
0.3886184692382812,0.6030601501464844
0.3886184692382812,0.6030601501464844
0.3828987121582031,0.5966011047363281
0.3828987121582031,0.5966011047363281
0.3899431228637695,0.6011524200439453
0.3899431228637695,0.6011524200439453
0.3824209213256836,0.6001407623291015
0.3824209213256836,0.6001407623291015
0.3867553710937500,0.5968116760253906
0.3825931549072266,0.5968116760253906
0.3886264801025390,0.6053009033203125
0.3886264801025390,0.6053009033203125
0.3830772399902344,0.5953279495239258
0.3830772399902344,0.5953279495239258
0.3899013519287109,0.6015935897827148
0.3899013519287109,0.6015935897827148
0.3830291748046875,0.6007347106933594
0.3830291748046875,0.6007347106933594
0.3868852615356445,0.5992841720581055
0.3868852615356445,0.5992841720581055
0.3888221740722656,0.6040952682495117
0.3888221740722656,0.6040952682495117
0.3831258773803711,0.5961513519287109
0.3878952026367187,0.5961513519287109
0.3903333663940430,0.6022819519042969
0.3903333663940430,0.6022819519042969
0.3834217071533203,0.6034080505371093
0.3834217071533203,0.6034080505371093
0.3869619369506836,0.5985877990722656
0.3869619369506836,0.5985877990722656
0.3895025253295898,0.6049289703369141
0.3895025253295898,0.6049289703369141
0.3838548660278320,0.5972648620605469
0.3838548660278320,0.5972648620605469
0.3903923034667969,0.6044883728027344
0.3903923034667969,0.6044883728027344
0.3838932037353516,0.6028255462646485
0.3838932037353516,0.6028255462646485
0.3867702484130859,0.5988555908203125
0.3867702484130859,0.5988555908203125
0.3897697448730469,0.6052259445190430
0.3897697448730469,0.6052259445190430
0.3838491439819336,0.5988533020019531
0.3838491439819336,0.5988533020019531
0.3902898788452148,0.6021909713745117
0.3822366714477539,0.6021909713745117
0.3834926605224609,0.6017457962036132
0.3834926605224609,0.6017457962036132
0.3867233276367187,0.5972385406494141
0.3867233276367187,0.5972385406494141
0.3889858245849609,0.6048557281494140
0.3889858245849609,0.6048557281494140
0.3829135894775391,0.5949296951293945
0.3829135894775391,0.5949296951293945
0.3890504837036133,0.5997837066650390
0.3890504837036133,0.5997837066650390
0.3827190399169922,0.5991548538208008
0.3827190399169922,0.5991548538208008
0.3855823516845703,0.5966365814208984
0.3855823516845703,0.5966365814208984
0.3882150650024414,0.6010196685791015
0.3882150650024414,0.6010196685791015
0.3821496963500977,0.5928165435791015
0.3821496963500977,0.5928165435791015
0.3887094497680664,0.5978507995605469
0.3887094497680664,0.5978507995605469
0.3819974899291992,0.5994066238403321
0.3819974899291992,0.5994066238403321
0.3849815368652343,0.5935100555419922
0.3849815368652343,0.5935100555419922
0.3874008178710938,0.5997613906860352
0.3874008178710938,0.5997613906860352
0.3819179534912109,0.5917367935180664
0.3819179534912109,0.5917367935180664
0.3882825851440430,0.5985740661621094
0.3882825851440430,0.5985740661621094
0.3817983627319336,0.5971893310546875
0.3817983627319336,0.5971893310546875
0.3848299026489257,0.5930356979370117
0.3848299026489257,0.5930356979370117
0.3877647399902344,0.5994998931884765
0.3877647399902344,0.5994998931884765
0.3819065093994141,0.5936479568481445
0.3819065093994141,0.5936479568481445
0.3884199142456055,0.5973718643188476
0.3884199142456055,0.5973718643188476
0.3817914962768554,0.5977952957153320
0.3817914962768554,0.5977952957153320
0.3852985382080078,0.5937492370605468
0.3852985382080078,0.5937492370605468
0.3879467010498047,0.6020170211791992
0.3879467010498047,0.6020170211791992
0.3822349548339843,0.5927278518676757
0.3822349548339843,0.5927278518676757
0.3887506484985351,0.5981100082397460
0.3887506484985351,0.5981100082397460
0.3823911666870117,0.5984910964965821
0.3823911666870117,0.5984910964965821
0.3854513168334961,0.5960992813110352
0.3854513168334961,0.5960992813110352
0.3882036209106445,0.6010087966918946
0.3882036209106445,0.6010087966918946
0.3821067810058594,0.5932611465454102
0.3821067810058594,0.5932611465454102
0.3891174316406250,0.5984630584716797
0.3891174316406250,0.5984630584716797
0.3825250625610351,0.6008234024047852
0.3825250625610351,0.6008234024047852
0.3856281280517578,0.5951036453247071
0.3856281280517578,0.5951036453247071
0.3884307861328125,0.6016565322875976
0.3884307861328125,0.6016565322875976
0.3827459335327149,0.5938253402709961
0.3827459335327149,0.5938253402709961
0.3892656326293945,0.6008937835693359
0.3892656326293945,0.6008937835693359
0.3826784133911132,0.5997608184814452
0.3826784133911132,0.5997608184814452
0.3855257034301758,0.5956392288208008
0.3855257034301758,0.5956392288208008
0.3887437820434570,0.6020919799804687
0.3887437820434570,0.6020919799804687
0.3827259063720703,0.5961467742919921
0.3827259063720703,0.5961467742919921
0.3893978118896484,0.5996538162231445
0.3893978118896484,0.5996538162231445
0.3828855514526367,0.6002706527709961
0.3828855514526367,0.6002706527709961
0.3860727310180664,0.5960809707641601
0.3860727310180664,0.5960809707641601
0.3887603759765625,0.6043230056762695
0.3887603759765625,0.6043230056762695
0.3829204559326172,0.5949932098388672
0.3829204559326172,0.5949932098388672
0.3892530441284179,0.6001602172851562
0.3892530441284179,0.6001602172851562
0.3831590652465820,0.6009401321411133
0.3831590652465820,0.6009401321411133
0.3862003326416015,0.5984327316284179
0.3862003326416015,0.5984327316284179
0.3890813827514648,0.6033977508544922
0.3890813827514648,0.6033977508544922
0.3831813812255859,0.5956678390502930
0.3831813812255859,0.5956678390502930
0.3898984909057617,0.6008422851562499
0.3818613052368164,0.6008422851562499
0.3833255767822266,0.6032833099365235
0.3833255767822266,0.6032833099365235
0.3863548278808593,0.5973569869995117
0.3863548278808593,0.5973569869995117
0.3889165878295898,0.6038040161132813
0.3889165878295898,0.6038040161132813
0.3834457397460938,0.5960409164428710
0.3834457397460938,0.5960409164428710
0.3898492813110351,0.6028060913085938
0.3898492813110351,0.6028060913085938
0.3833467483520508,0.6020215988159180
0.3833467483520508,0.6020215988159180
0.3863233566284179,0.5975584030151367
0.3863233566284179,0.5975584030151367
0.3893268585205078,0.6039859771728515
0.3893268585205078,0.6039859771728515
0.3833885192871094,0.5981037139892578
0.3833885192871094,0.5981037139892578
0.3899522781372070,0.6015678405761719
0.3899522781372070,0.6015678405761719
0.3903774261474609,0.6028541564941406
0.3840700149536133,0.6028541564941406
0.3927738189697266,0.5994747161865234
0.3927738189697266,0.5994747161865234
0.3888404846191406,0.6001310348510742
0.3821983337402344,0.6001310348510742
0.3862066268920898,0.6044603347778320
0.3892032623291016,0.6044603347778320
0.3847074508666992,0.5973278045654297
0.3851726531982422,0.5973278045654297
0.3907098770141602,0.6043487548828125
0.3840774536132812,0.6043487548828125
0.3841667175292969,0.6000440597534179
0.3928115844726562,0.6000440597534179
0.3881990432739258,0.5999147415161132
0.3815156936645508,0.5999147415161132
0.3869819641113281,0.6036901473999023
0.3900604248046875,0.6036901473999023
0.3847148895263672,0.5983423233032227
0.3850032806396484,0.5983423233032227
0.3905559539794922,0.6043344497680664
0.3838502883911133,0.6043344497680664
0.3832820892333984,0.5990867614746094
0.3919418334960937,0.5990867614746094
0.3884284973144531,0.5977415084838867
0.3818555831909179,0.5977415084838867
0.3866374969482422,0.6030160903930664
0.3893526077270508,0.6030160903930664
0.3840494155883789,0.5962600708007812
0.3842222213745117,0.5962600708007812
0.3889886856079102,0.6015008926391602
0.3822813034057617,0.6015008926391602
0.3830051422119141,0.5955202102661132
0.3917438507080078,0.5955202102661132
0.3875026702880859,0.5960597991943359
0.3808078765869141,0.5960597991943359
0.3855709075927734,0.6008731842041015
0.3883581161499023,0.6008731842041015
0.3824340820312500,0.5937566757202148
0.3826887130737305,0.5937566757202148
0.3888050079345703,0.5982965469360352
0.3822481155395508,0.5982965469360352
0.3822847366333008,0.5946292877197266
0.3909599304199219,0.5946292877197266
0.3868932723999023,0.5944198608398438
0.3802734375000000,0.5944198608398438
0.3843498229980469,0.5989511489868163
0.3872011184692383,0.5989511489868163
0.3827590942382812,0.5917436599731445
0.3832843780517578,0.5917436599731445
0.3886568069458008,0.5984258651733398
0.3819952011108398,0.5984258651733398
0.3821182250976562,0.5946847915649414
0.3909404754638672,0.5946847915649414
0.3862403869628906,0.5941520690917969
0.3796743392944336,0.5941520690917969
0.3852756500244141,0.5981054306030273
0.3882013320922851,0.5981054306030273
0.3829908370971680,0.5929979324340821
0.3833656311035156,0.5929979324340821
0.3888902664184570,0.5991485595703124
0.3823425292968750,0.5991485595703124
0.3817211151123047,0.5949949264526367
0.3905324935913086,0.5949949264526367
0.3873001098632812,0.5937841415405273
0.3807901382446289,0.5937841415405273
0.3854953765869141,0.5998540878295898
0.3884611129760742,0.5998540878295898
0.3833856582641602,0.5942573547363281
0.3838439941406250,0.5942573547363281
0.3886516571044922,0.5999015808105469
0.3820323944091797,0.5999015808105469
0.3828649520874023,0.5947425842285156
0.3918600082397461,0.5947425842285156
0.3878917694091797,0.5956861495971679
0.3813217163085937,0.5956861495971679
0.3862438201904297,0.6009538650512695
0.3889932632446289,0.6009538650512695
0.3832265853881836,0.5949714660644531
0.3837575912475586,0.5949714660644531
0.3899660110473633,0.5998895645141601
0.3834131240844726,0.5998895645141601
0.3834068298339844,0.5969987869262695
0.3924098968505859,0.5969987869262695
0.3884788513183594,0.5971773147583007
0.3819345474243164,0.5971773147583007
0.3861768722534180,0.6019311904907226
0.3889125823974609,0.6019311904907226
0.3845003128051758,0.5949251174926757
0.3850690841674805,0.5949251174926757
0.3905502319335937,0.6019557952880860
0.3838445663452149,0.6019557952880860
0.3838548660278320,0.5981237411499023
0.3927515029907226,0.5981237411499023
0.3881698608398437,0.5976499557495117
0.3815986633300781,0.5976499557495117
0.3870775222778320,0.6016834259033202
0.3899877548217773,0.6016834259033202
0.3847515106201172,0.5966857910156250
0.3852527618408203,0.5966857910156250
0.3906967163085938,0.6028856277465821
0.3840614318847656,0.6028856277465821
0.3834114074707031,0.5986604690551758
0.3922742843627929,0.5986604690551758
0.3891054153442383,0.5971961975097656
0.3825994491577148,0.5971961975097656
0.3874362945556640,0.6033714294433593
0.3901342391967773,0.6033714294433593
0.3849197387695312,0.5974588394165039
0.3855068206787109,0.5974588394165039
0.3902898788452148,0.6031986236572265
0.3836488723754883,0.6031986236572265
0.3842840194702148,0.5983732223510742
0.3933740615844726,0.5983732223510742
0.3894533157348632,0.5990083694458007
0.3828535079956055,0.5990083694458007
0.3877698898315430,0.6045787811279296
0.3903991699218750,0.6045787811279296
0.3845392227172851,0.5981214523315429
0.3851972579956054,0.5981214523315429
0.3912820816040039,0.6030349731445312
0.3846645355224609,0.6030349731445312
0.3846021652221679,0.6001922607421875
0.3936138153076172,0.6001922607421875
0.3897663116455078,0.5997322082519531
0.3830949783325195,0.5997322082519531
0.3872760772705078,0.6048871994018554
0.3899929046630859,0.6048871994018554
0.3855056762695312,0.5977781295776367
0.3861539840698242,0.5977781295776367
0.3914663314819336,0.6045845031738281
0.3847921371459961,0.6045845031738281
0.3847166061401367,0.6011878967285156
0.3937448501586914,0.6011878967285156
0.3891557693481445,0.6001693725585937
0.3825393676757812,0.6001693725585937
0.3881155014038086,0.6042943954467773
0.3908346176147461,0.6042943954467773
0.3857105255126953,0.5993001937866210
0.3862140655517578,0.5993001937866210
0.3916328430175781,0.6051120758056641
0.3848585128784179,0.6051120758056641
0.3840167999267578,0.6013395309448242
0.3931308746337890,0.6013395309448242
0.3900461196899414,0.5995697021484375
0.3835544586181641,0.5995697021484375
0.3883026123046875,0.6059772491455078
0.3909444808959961,0.6059772491455078
0.3859090805053711,0.6004486083984375
0.3865036010742187,0.6004486083984375
0.3912820816040039,0.6057735443115234
0.3845598220825195,0.6057735443115234
0.3850839614868164,0.6012079238891601
0.3943702697753906,0.6012079238891601
0.3904970169067383,0.6014671325683594
0.3837581634521484,0.6014671325683594
0.3887660980224609,0.6069728851318359
0.3913627624511719,0.6069728851318359
0.3855211257934570,0.6008234024047852
0.3861471176147461,0.6008234024047852
0.3922004699707031,0.6053661346435547
0.3855714797973633,0.6053661346435547
0.3852693557739258,0.6026384353637695
0.3944927215576172,0.6026384353637695
0.3906955718994141,0.6018957138061524
0.3838697433471679,0.6018957138061524
0.3880107879638672,0.6063354492187499
0.3904277801513672,0.6063354492187499
0.3858758926391602,0.5985992431640624
0.3865476608276367,0.5985992431640624
0.3919000625610352,0.6048362731933593
0.3848899841308593,0.6048362731933593
0.3846914291381836,0.6007020950317382
0.3937986373901367,0.6007020950317382
0.3891466140747070,0.5992126464843750
0.3823007583618164,0.5992126464843750
0.3878259658813477,0.6030286788940430
0.3902881622314453,0.6030286788940430
0.3849821090698242,0.5974199295043945
0.3856693267822265,0.5974199295043945
0.3908924102783203,0.6029291152954102
0.3840557098388672,0.6029291152954102
0.3831069946289062,0.5985837936401367
0.3922685623168945,0.5985837936401367
0.3890441894531250,0.5959659576416015
0.3823305130004883,0.5959659576416015
0.3872480392456055,0.6021188735961914
0.3894304275512695,0.6021188735961914
0.3844099044799805,0.5957044601440430
0.3850467681884766,0.5957044601440430
0.3896055221557617,0.6008674621582031
0.3827756881713867,0.6008674621582031
0.3831630706787109,0.5959825515747070
0.3924676895141602,0.5959825515747070
0.3884519577026367,0.5956581115722656
0.3817073822021484,0.5956581115722656
0.3866872787475586,0.6012571334838867
0.3889938354492187,0.6012571334838867
0.3832752227783203,0.5945720672607422
0.3840024948120117,0.5945720672607422
0.3898927688598633,0.5987091064453125
0.3831556320190430,0.5987091064453125
0.3829250335693359,0.5963945388793945
0.3920888900756836,0.5963945388793945
0.3883237838745117,0.5952655792236328
0.3816015243530274,0.5952655792236328
0.3859256744384765,0.6006219863891601
0.3882150650024414,0.6006219863891601
0.3839338302612305,0.5935592651367188
0.3848127365112304,0.5935592651367188
0.3900346755981445,0.6002918243408203
0.3832162857055664,0.6002918243408203
0.3830675125122070,0.5973936080932617
0.3923824310302734,0.5973936080932617
0.3879621505737305,0.5959430694580078
0.3812192916870117,0.5959430694580078
0.3869321823120117,0.6005149841308594
0.3894521713256836,0.6005149841308594
0.3843212127685547,0.5957290649414062
0.3851131439208984,0.5957290649414062
0.3904930114746094,0.6013092041015625
0.3835933685302734,0.6013092041015625
0.3828134536743164,0.5981071472167968
0.3921838760375976,0.5981071472167968
0.3889726638793945,0.5959070205688476
0.3824781417846679,0.5959070205688476
0.3874317169189453,0.6025554656982421
0.3898212432861328,0.6025554656982421
0.3848173141479492,0.5970817565917969
0.3855548858642578,0.5970817565917969
0.3901496887207031,0.6021097183227538
0.3832300186157226,0.6021097183227538
0.3836202621459961,0.5977661132812500
0.3932567596435547,0.5977661132812500
0.3893297195434570,0.5976047515869141
0.3825725555419922,0.5976047515869141
0.3875667572021484,0.6033061981201172
0.3898756027221680,0.6033061981201172
0.3842250823974609,0.5973300933837891
0.3851074218750000,0.5973300933837891
0.3911064147949219,0.6016714096069335
0.3842891693115234,0.6016714096069335
0.3839246749877930,0.5995536804199219
0.3933528900146484,0.5995536804199219
0.3896541595458984,0.5988161087036132
0.3829536437988281,0.5988161087036132
0.3872051239013672,0.6040426254272461
0.3895442962646484,0.6040426254272461
0.3852487564086914,0.5970228195190429
0.3862232208251953,0.5970228195190429
0.3913959503173828,0.6034109115600585
0.3843750000000000,0.6034109115600585
0.3841964721679688,0.6004165649414063
0.3936086654663086,0.6004165649414063
0.3891168594360351,0.5990192413330078
0.3824684143066406,0.5990192413330078
0.3881263732910156,0.6036460876464843
0.3905828475952148,0.6036460876464843
0.3854410171508789,0.5988435745239258
0.3863119125366211,0.5988435745239258
0.3847623825073242,0.6047183990478515
0.3847623825073242,0.6047183990478515
0.3837615966796875,0.6012228012084960
0.3933345794677734,0.6012228012084960
0.3901811599731445,0.5989637374877930
0.3836626052856445,0.5989637374877930
0.3886379241943359,0.6057615280151367
0.3908552169799804,0.6057615280151367
0.3858610153198242,0.6000909805297852
0.3867450714111328,0.6000909805297852
0.3912385940551757,0.6053672790527344
0.3844511032104492,0.6053672790527344
0.3847555160522461,0.6011066436767578
0.3943983078002929,0.6011066436767578
0.3905364990234375,0.6008726119995117
0.3837667465209961,0.6008726119995117
0.3888753890991211,0.6069076538085937
0.3909358978271484,0.6069076538085937
0.3852058410644531,0.6003816604614257
0.3860784530639648,0.6003816604614257
0.3919675827026367,0.6042675018310547
0.3851457595825195,0.6042675018310547
0.3846353530883789,0.6022218704223633
0.3940658569335938,0.6022218704223633
0.3903728485107422,0.6008165359497070
0.3835327148437500,0.6008165359497070
0.3878179550170898,0.6060665130615234
0.3898962020874023,0.6060665130615234
0.3854593276977539,0.5986455917358399
0.3865196228027344,0.5986455917358399
0.3915441513061523,0.6046937942504883
0.3845163345336914,0.6046937942504883
0.3841049194335938,0.6019346237182617
0.3936183929443359,0.6019346237182617
0.3890132904052734,0.5998352050781249
0.3823019027709961,0.5998352050781249
0.3879793167114258,0.6041250228881836
0.3901857376098632,0.6041250228881836
0.3851812362670898,0.5991399765014648
0.3859983444213867,0.5991399765014648
0.3912277221679688,0.6041954040527343
0.3868337631225586,0.5963373184204102
0.3831756591796875,0.6007249832153320
0.3927251815795899,0.6007249832153320
0.3894378662109375,0.5978748321533203
0.3829467773437500,0.5978748321533203
0.3878402709960938,0.6043933868408203
0.3898715972900391,0.6043933868408203
0.3850593566894531,0.5987657546997071
0.3858221054077148,0.5987657546997071
0.3903482437133789,0.6031253814697265
0.3833152770996094,0.6031253814697265
0.3836637496948242,0.5986038208007812
0.3932916641235352,0.5986038208007812
0.3893342971801758,0.5978181838989257
0.3825336456298828,0.5978181838989257
0.3874603271484375,0.6030023574829101
0.3893898010253906,0.6030023574829101
0.3836420059204101,0.5963344573974609
0.3844539642333984,0.5963344573974609
0.3902378082275391,0.5996171951293945
0.3833101272583008,0.5996171951293945
0.3827018737792969,0.5971160888671875
0.3921552658081054,0.5971160888671875
0.3882631301879882,0.5955654144287109
0.3814476013183594,0.5955654144287109
0.3856344223022461,0.6002042770385742
0.3876308441162109,0.6002042770385742
0.3832998275756836,0.5924016952514648
0.3842439651489258,0.5924016952514648
0.3893262863159180,0.5981683731079102
0.3821903228759765,0.5981683731079102
0.3817296981811523,0.5946361541748046
0.3912420272827148,0.5946361541748046
0.3865081787109375,0.5925865173339844
0.3798419952392578,0.5925865173339844
0.3854038238525391,0.5967447280883789
0.3874980926513672,0.5967447280883789
0.3824798583984375,0.5915719985961914
0.3833324432373047,0.5915719985961914
0.3886608123779297,0.5967424392700195
0.3815603256225586,0.5967424392700195
0.3804645538330078,0.5932102203369141
0.3900409698486328,0.5932102203369141
0.3867616653442383,0.5903594970703124
0.3802671432495117,0.5903594970703124
0.3851537704467773,0.5972093582153321
0.3871267318725586,0.5972093582153321
0.3822801589965820,0.5913150787353515
0.3833667755126953,0.5913150787353515
0.3878597259521484,0.5963819503784179
0.3809440612792969,0.5963819503784179
0.3811912536621094,0.5923730850219726
0.3911384582519531,0.5923730850219726
0.3871192932128906,0.5921007156372070
0.3804983139038086,0.5921007156372070
0.3856178283691406,0.5983692169189453
0.3875415802001953,0.5983692169189453
0.3820484161376953,0.5920904159545898
0.3831041336059570,0.5920904159545898
0.3889200210571289,0.5960878372192383
0.3821016311645508,0.5960878372192383
0.3817394256591797,0.5945440292358398
0.3913593292236328,0.5945440292358398
0.3875461578369140,0.5932176589965820
0.3809005737304688,0.5932176589965820
0.3852636337280274,0.5990467071533203
0.3872308731079102,0.5990467071533203
0.3829513549804687,0.5919559478759765
0.3843160629272461,0.5919559478759765
0.3894338607788086,0.5983491897583008
0.3823699951171875,0.5983491897583008
0.3821033477783203,0.5959253311157227
0.3918136596679687,0.5959253311157227
0.3871295928955078,0.5941097259521484
0.3805463790893555,0.5941097259521484
0.3863182067871094,0.5987205505371094
0.3884124755859375,0.5987205505371094
0.3834657669067383,0.5939455032348633
0.3845174789428711,0.5939455032348633
0.3896181106567383,0.5989797592163085
0.3826183319091797,0.5989797592163085
0.3816089630126953,0.5962743759155273
0.3913896560668945,0.5962743759155273
0.3880971908569336,0.5934974670410156
0.3816387176513672,0.5934974670410156
0.3865665435791015,0.6006048202514648
0.3884490966796875,0.6006048202514648
0.3836248397827148,0.5950572967529296
0.3848310470581054,0.5950572967529296
0.3892536163330078,0.5996646881103516
0.3822544097900391,0.5996646881103516
0.3825874328613281,0.5957485198974609
0.3923910140991211,0.5957485198974609
0.3883695602416992,0.5953966140747070
0.3817874908447266,0.5953966140747070
0.3868257522583008,0.6013664245605469
0.3887260437011719,0.6013664245605469
0.3831624984741211,0.5953554153442383
0.3843635559082031,0.5953554153442383
0.3901473999023438,0.5990100860595703
0.3831476211547851,0.5990100860595703
0.3827327728271484,0.5975984573364258
0.3924287796020507,0.5975984573364258
0.3886356353759766,0.5963390350341796
0.3820358276367187,0.5963390350341796
0.3864446640014648,0.6019718170166015
0.3881938934326172,0.6019718170166015
0.3840351104736328,0.5948747634887696
0.3854484558105469,0.5948747634887696
0.3904500961303711,0.6009847640991210
0.3833490371704101,0.6009847640991210
0.3829662322998047,0.5984865188598633
0.3927091598510742,0.5984865188598633
0.3880439758300781,0.5967247009277343
0.3815254211425781,0.5967247009277343
0.3873081207275391,0.6013898849487305
0.3892015457153320,0.6013898849487305
0.3842674255371094,0.5966823577880859
0.3856292724609375,0.5966823577880859
0.3906412124633789,0.6019512176513672
