REDsignal,IRsignal
0.5854471206665038,0.5558818817138672
0.5854471206665038,0.5558818817138672
0.5885038375854492,0.5468444824218750
0.5885038375854492,0.5468444824218750
0.5949228286743163,0.5602014541625976
0.5949228286743163,0.5602014541625976
0.5840400695800781,0.5479991912841796
0.5840400695800781,0.5479991912841796
0.5962348937988281,0.5556575775146484
0.5962348937988281,0.5556575775146484
0.5857904434204101,0.5567613601684570
0.5857904434204101,0.5567613601684570
0.5893501281738281,0.5477079391479492
0.5893501281738281,0.5477079391479492
0.5954263687133788,0.5635963439941406
0.5954263687133788,0.5635963439941406
0.5852188110351563,0.5492998123168945
0.5852188110351563,0.5492998123168945
0.5978988647460938,0.5601716995239258
0.5978988647460938,0.5601716995239258
0.5889278411865234,0.5629915237426758
0.5889278411865234,0.5629915237426758
0.5928033828735352,0.5573650360107422
0.5928033828735352,0.5573650360107422
0.5998798370361328,0.5710922241210937
0.5998798370361328,0.5710922241210937
0.5901844024658203,0.5597911834716797
0.5901844024658203,0.5597911834716797
0.6039430618286132,0.5714595794677734
0.6039430618286132,0.5714595794677734
0.5946029663085938,0.5767576217651367
0.5946029663085938,0.5767576217651367
0.5987211227416992,0.5674221038818359
0.5928543090820312,0.5674221038818359
0.6055246353149414,0.5827377319335937
0.6055246353149414,0.5827377319335937
0.5960592269897461,0.5707242965698242
0.5960592269897461,0.5707242965698242
0.6089275360107421,0.5833786010742187
0.6089275360107421,0.5833786010742187
0.5993820190429687,0.5841756820678711
0.5993820190429687,0.5841756820678711
0.6030790328979492,0.5759147644042969
0.6030790328979492,0.5759147644042969
0.6099094390869141,0.5905191421508789
0.6099094390869141,0.5905191421508789
0.5995983123779297,0.5799282073974609
0.5995983123779297,0.5799282073974609
0.6123081207275390,0.5883522033691406
0.6123081207275390,0.5883522033691406
0.6025108337402344,0.5907972335815429
0.6140956878662109,0.5907972335815429
0.6064270019531249,0.5820951461791992
0.6001693725585937,0.5820951461791992
0.6127807617187500,0.5982072830200195
0.6127807617187500,0.5982072830200195
0.6023483276367188,0.5835599899291992
0.6023483276367188,0.5835599899291992
0.6148916244506836,0.5932474136352539
0.6011816024780273,0.5932474136352539
0.6052270889282226,0.5952873229980469
0.6052270889282226,0.5952873229980469
0.6082065582275390,0.5878910064697266
0.6082065582275390,0.5878910064697266
0.6146638870239257,0.6001064300537109
0.6146638870239257,0.6001064300537109
0.6037885665893554,0.5872203826904296
0.6037885665893554,0.5872203826904296
0.6168308258056641,0.5967607498168945
0.6168308258056641,0.5967607498168945
0.6068590164184570,0.6007867813110351
0.6068590164184570,0.6007867813110351
0.6100685119628906,0.5897174835205078
0.6100685119628906,0.5897174835205078
0.6165052413940429,0.6037456512451171
0.6165052413940429,0.6037456512451171
0.6062061309814453,0.5910032272338867
0.6062061309814453,0.5910032272338867
0.6185468673706055,0.6023952484130859
0.6185468673706055,0.6023952484130859
0.6088594436645508,0.6029285430908203
0.6088594436645508,0.6029285430908203
0.6117130279541015,0.5939048767089844
0.6117130279541015,0.5939048767089844
0.6187946319580078,0.6079542160034179
0.6187946319580078,0.6079542160034179
0.6080062866210937,0.5968545913696289
0.6080062866210937,0.5968545913696289
0.6200786590576172,0.6031431198120117
0.6200786590576172,0.6031431198120117
0.6089607238769531,0.6021429061889648
0.6089607238769531,0.6021429061889648
0.6088651657104492,0.5852285385131836
0.6088651657104492,0.5852285385131836
0.6089309692382813,0.5869966506958008
0.6089309692382813,0.5869966506958008
0.5890531539916992,0.5539581298828125
0.5890531539916992,0.5539581298828125
0.5929647445678711,0.5476959228515624
0.5929647445678711,0.5476959228515624
0.5781068801879883,0.5402761459350586
0.5781068801879883,0.5402761459350586
0.5777235031127930,0.5268316268920898
0.5777235031127930,0.5268316268920898
0.5825122833251953,0.5356492996215820
0.5825122833251953,0.5356492996215820
0.5708507537841797,0.5213893890380860
0.5708507537841797,0.5213893890380860
0.5832944869995117,0.5294700622558594
0.5832944869995117,0.5294700622558594
0.5730783462524414,0.5329290390014648
0.5730783462524414,0.5329290390014648
0.5757860183715821,0.5210844039916992
0.5757860183715821,0.5210844039916992
0.5817964553833007,0.5343692779541015
0.5779907226562500,0.5343692779541015
0.5713531494140625,0.5211227416992187
0.5713531494140625,0.5211227416992187
0.5831445693969727,0.5308542251586914
0.5831445693969727,0.5308542251586914
0.5731573104858398,0.5308330535888671
0.5731573104858398,0.5308330535888671
0.5757007598876953,0.5205991744995117
0.5757007598876953,0.5205991744995117
0.5822319030761719,0.5339504241943359
0.5822319030761719,0.5339504241943359
0.5711454391479492,0.5227769851684571
0.5711454391479492,0.5227769851684571
0.5834518432617187,0.5295518875122071
0.5834518432617187,0.5295518875122071
0.5735200881958008,0.5322830200195312
0.5735200881958008,0.5322830200195312
0.5770008087158203,0.5232467651367188
0.5770008087158203,0.5232467651367188
0.5840366363525390,0.5399843215942383
0.5840366363525390,0.5399843215942383
0.5740951538085938,0.5276727676391602
0.5854099273681640,0.5276727676391602
0.5875488281250000,0.5389017105102539
0.5875488281250000,0.5389017105102539
0.5796770095825196,0.5447616577148438
0.5796770095825196,0.5447616577148438
0.5841321945190430,0.5404151916503906
0.5841321945190430,0.5404151916503906
0.5925373077392578,0.5559671401977538
0.5925373077392578,0.5559671401977538
0.5829139709472656,0.5464061737060547
0.5829139709472656,0.5464061737060547
0.5969936370849609,0.5569341659545898
0.5969936370849609,0.5569341659545898
0.5878046035766601,0.5624925613403320
0.5878046035766601,0.5624925613403320
0.5908676147460937,0.5514255523681640
0.5908676147460937,0.5514255523681640
0.5975011825561524,0.5649690628051758
0.5975011825561524,0.5649690628051758
0.5865440368652344,0.5519165039062500
0.5865440368652344,0.5519165039062500
0.5984304428100585,0.5614465713500977
0.5984304428100585,0.5614465713500977
0.5886022567749023,0.5620445251464844
0.5886022567749023,0.5620445251464844
0.5909534454345703,0.5523067474365234
0.5909534454345703,0.5523067474365234
0.5983926773071289,0.5664373397827148
0.5983926773071289,0.5664373397827148
0.5874790191650391,0.5564483642578125
0.5874790191650391,0.5564483642578125
0.6003644943237304,0.5638561248779297
0.6003644943237304,0.5638561248779297
0.5913196563720703,0.5680704116821289
0.5913196563720703,0.5680704116821289
0.5949325561523438,0.5598718643188476
0.5949325561523438,0.5598718643188476
0.6024536132812500,0.5772354125976562
0.6024536132812500,0.5772354125976562
0.5925092697143555,0.5648992538452148
0.5925092697143555,0.5648992538452148
0.6055475234985351,0.5746953964233398
0.6055475234985351,0.5746953964233398
0.5972076416015625,0.5794023513793946
0.5972076416015625,0.5794023513793946
0.6003925323486328,0.5729558944702148
0.6003925323486328,0.5729558944702148
0.6079839706420899,0.5863380432128906
0.6079839706420899,0.5863380432128906
0.5975635528564452,0.5750850677490235
0.5975635528564452,0.5750850677490235
0.6108655929565430,0.5842323303222656
0.6108655929565430,0.5842323303222656
0.6015380859375000,0.5900545120239258
0.6015380859375000,0.5900545120239258
0.6046148300170898,0.5793439865112304
0.6046148300170898,0.5793439865112304
0.6116861343383789,0.5940353393554687
0.6116861343383789,0.5940353393554687
0.6015787124633789,0.5825654983520507
0.6015787124633789,0.5825654983520507
0.6141626358032226,0.5928680419921875
0.6141626358032226,0.5928680419921875
0.6048814773559570,0.5947757720947265
0.6048814773559570,0.5947757720947265
0.6076332092285156,0.5854482650756836
0.6076332092285156,0.5854482650756836
0.6150747299194336,0.5997694015502929
0.6150747299194336,0.5997694015502929
0.6040546417236328,0.5898599624633789
0.6040546417236328,0.5898599624633789
0.6166740417480469,0.5958990097045899
0.6166740417480469,0.5958990097045899
0.6069305419921874,0.5993808746337891
0.6069305419921874,0.5993808746337891
0.6099992752075195,0.5897804260253906
0.6099992752075195,0.5897804260253906
0.6168170928955078,0.6055223464965820
0.6168170928955078,0.6055223464965820
0.6058582305908203,0.5916469573974609
0.6058582305908203,0.5916469573974609
0.6183774948120117,0.5992549896240235
0.6183774948120117,0.5992549896240235
0.6089681625366211,0.6026041030883789
0.6089681625366211,0.6026041030883789
0.6113136291503906,0.5947889328002930
0.6113136291503906,0.5947889328002930
0.6184553146362305,0.6068172454833984
0.6184553146362305,0.6068172454833984
0.6070775985717773,0.5949880599975585
0.6070775985717773,0.5949880599975585
0.6202257156372070,0.6024713516235352
0.6202257156372070,0.6024713516235352
0.6103689193725585,0.6077619552612304
0.6103689193725585,0.6077619552612304
0.6126777648925781,0.5954893112182617
0.6126777648925781,0.5954893112182617
0.6191608428955078,0.6078844070434570
0.6191608428955078,0.6078844070434570
0.6065809249877929,0.5916194915771484
0.6065809249877929,0.5916194915771484
0.6148321151733398,0.5917316436767578
0.6148321151733398,0.5917316436767578
0.5981151580810546,0.5780324935913086
0.5981151580810546,0.5780324935913086
0.5912052154541015,0.5502330780029296
0.5912052154541015,0.5502330780029296
0.5912641525268555,0.5503269195556640
0.5912641525268555,0.5503269195556640
0.5751594543457031,0.5314481735229492
0.5751594543457031,0.5314481735229492
0.5849641799926758,0.5319007873535156
0.5849641799926758,0.5319007873535156
0.5737421035766601,0.5328203201293945
0.5737421035766601,0.5328203201293945
0.5756801605224610,0.5216880798339844
0.5756801605224610,0.5216880798339844
0.5824481964111328,0.5364068984985352
0.5824481964111328,0.5364068984985352
0.5711603164672852,0.5223043441772460
0.5711603164672852,0.5223043441772460
0.5833110809326172,0.5290060043334961
0.5833110809326172,0.5290060043334961
0.5739446640014648,0.5322389602661133
0.5739446640014648,0.5322389602661133
0.5759084701538085,0.5234893798828125
0.5759084701538085,0.5234893798828125
0.5828601837158203,0.5346908569335938
0.5828601837158203,0.5346908569335938
0.5712524414062500,0.5222997665405273
0.5712524414062500,0.5222997665405273
0.5839187622070312,0.5287153244018554
0.5839187622070312,0.5287153244018554
0.5737689971923828,0.5337633132934571
0.5737689971923828,0.5337633132934571
0.5760223388671875,0.5218723297119140
0.5760223388671875,0.5218723297119140
0.5830129623413086,0.5356075286865234
0.5830129623413086,0.5356075286865234
0.5724380493164062,0.5243339538574219
0.5724380493164062,0.5243339538574219
0.5853052139282227,0.5339584350585938
0.5853052139282227,0.5339584350585938
0.5763765335083008,0.5376920700073242
0.5763765335083008,0.5376920700073242
0.5796483993530274,0.5302494049072265
0.5796483993530274,0.5302494049072265
0.5887264251708985,0.5470865249633788
0.5887264251708985,0.5470865249633788
0.5791448593139649,0.5410543441772461
0.5791448593139649,0.5410543441772461
0.5937234878540039,0.5498176574707031
0.5937234878540039,0.5498176574707031
0.5855976104736328,0.5572242736816406
0.5855976104736328,0.5572242736816406
0.5898754119873046,0.5502153396606445
0.5898754119873046,0.5502153396606445
0.5981351852416992,0.5674667358398438
0.5981351852416992,0.5674667358398438
0.5872850418090820,0.5548330307006836
0.5872850418090820,0.5548330307006836
0.6000074386596680,0.5615318298339843
0.6000074386596680,0.5615318298339843
0.5903572082519531,0.5647579193115234
0.6009149551391602,0.5647579193115234
0.5918689727783203,0.5557291030883789
0.5918689727783203,0.5557291030883789
0.5989625930786132,0.5668292999267578
0.5989625930786132,0.5668292999267578
0.5870344161987304,0.5548793792724609
0.5870344161987304,0.5548793792724609
0.6001893997192382,0.5613761901855469
0.6001893997192382,0.5613761901855469
0.5903606414794922,0.5675039291381836
0.5903606414794922,0.5675039291381836
0.5929143905639648,0.5564615249633789
0.5929143905639648,0.5564615249633789
0.6009366989135742,0.5713085174560547
0.6009366989135742,0.5713085174560547
0.5903766632080077,0.5612829208374023
0.5903766632080077,0.5612829208374023
0.6038635253906249,0.5714710235595702
0.6038635253906249,0.5714710235595702
0.5951648712158203,0.5757265090942383
0.5951648712158203,0.5757265090942383
0.5979543685913086,0.5678421020507812
0.5979543685913086,0.5678421020507812
0.6070638656616211,0.5833076477050781
0.6070638656616211,0.5833076477050781
0.5963195800781250,0.5754169464111328
0.5963195800781250,0.5754169464111328
0.6099655151367187,0.5816127777099609
0.6099655151367187,0.5816127777099609
0.6009235382080078,0.5871717453002929
0.6009235382080078,0.5871717453002929
0.6038795471191406,0.5782979965209961
0.6038795471191406,0.5782979965209961
0.6119270324707031,0.5947563171386718
0.6119270324707031,0.5947563171386718
0.6009166717529296,0.5823760986328125
0.6009166717529296,0.5823760986328125
0.6137369155883788,0.5894130706787110
0.6137369155883788,0.5894130706787110
0.6048522949218750,0.5942012786865234
0.6048522949218750,0.5942012786865234
0.6070175170898438,0.5866493225097656
0.6021617889404297,0.5866493225097656
0.6148590087890625,0.5988475799560546
0.6148590087890625,0.5988475799560546
0.6034915924072265,0.5877737045288086
0.6034915924072265,0.5877737045288086
0.6166694641113281,0.5942327499389648
0.6166694641113281,0.5942327499389648
0.6069162368774413,0.6006740570068360
0.6177686691284180,0.5984310150146485
0.6091375350952148,0.5889255523681640
0.6041885375976562,0.5889255523681640
0.6165813446044922,0.6026973724365234
0.6165813446044922,0.6026973724365234
0.6056247711181640,0.5916721343994140
0.6056247711181640,0.5916721343994140
0.6184375762939452,0.5997728347778321
0.6184375762939452,0.5997728347778321
0.6088125228881835,0.6026161193847656
0.6088125228881835,0.6026161193847656
0.6108987808227538,0.5929704666137695
0.6108987808227538,0.5929704666137695
0.6190315246582031,0.6068510055541992
0.6190315246582031,0.6068510055541992
0.6074409484863281,0.5977077484130859
0.6074409484863281,0.5977077484130859
0.6205101013183594,0.6020891189575195
0.6205101013183594,0.6020891189575195
0.6105886459350586,0.6066919326782226
0.6105886459350586,0.6066919326782226
0.6129724502563476,0.5965621948242187
0.6129724502563476,0.5965621948242187
0.6202434539794922,0.6106218338012696
0.6202434539794922,0.6106218338012696
0.6069042205810546,0.5936513900756836
0.6069042205810546,0.5936513900756836
0.6159908294677734,0.5910266876220703
0.6159908294677734,0.5910266876220703
0.6000801086425781,0.5815956115722656
0.6000801086425781,0.5815956115722656
0.5933229446411132,0.5563362121582031
0.5933229446411132,0.5563362121582031
0.5937744140625000,0.5544548034667969
0.5937744140625000,0.5544548034667969
0.5769350051879882,0.5346496582031249
0.5769350051879882,0.5346496582031249
0.5875047683715821,0.5353591918945312
0.5875047683715821,0.5353591918945312
0.5760841369628906,0.5389257431030273
0.5760841369628906,0.5389257431030273
0.5773126602172851,0.5257633209228515
0.5773126602172851,0.5257633209228515
0.5848234176635742,0.5385274887084961
0.5848234176635742,0.5385274887084961
0.5732116699218750,0.5272190093994140
0.5732116699218750,0.5272190093994140
0.5859769821166992,0.5345392227172852
0.5859769821166992,0.5345392227172852
0.5764286041259765,0.5373916625976562
0.5764286041259765,0.5373916625976562
0.5779426574707031,0.5273025512695312
0.5779426574707031,0.5273025512695312
0.5862573623657227,0.5406446456909180
0.5862573623657227,0.5406446456909180
0.5744298934936524,0.5313669204711914
0.5744298934936524,0.5313669204711914
0.5874326705932617,0.5350816726684570
0.5874326705932617,0.5350816726684570
0.5775936126708984,0.5398017883300781
0.5775936126708984,0.5398017883300781
0.5798463821411133,0.5300743103027343
0.5798463821411133,0.5300743103027343
0.5877668380737304,0.5456108093261719
0.5877668380737304,0.5456108093261719
0.5762735366821289,0.5338920593261719
0.5762735366821289,0.5338920593261719
0.5898319244384765,0.5411853790283203
0.5898319244384765,0.5411853790283203
0.5816928863525390,0.5484941482543945
0.5816928863525390,0.5484941482543945
0.5850145339965820,0.5435983657836914
0.5850145339965820,0.5435983657836914
0.5948152542114258,0.5587417602539062
0.5948152542114258,0.5587417602539062
0.5848051071166992,0.5517185211181640
0.5848051071166992,0.5517185211181640
0.5999090194702148,0.5608274459838867
0.5999090194702148,0.5608274459838867
0.5916452407836914,0.5704204559326171
0.5916452407836914,0.5704204559326171
0.5945732116699218,0.5607736587524413
0.5945732116699218,0.5607736587524413
0.6030281066894531,0.5752269744873046
0.6030281066894531,0.5752269744873046
0.5918655395507812,0.5646486282348633
0.5918655395507812,0.5646486282348633
0.6047945022583008,0.5715173721313477
0.6047945022583008,0.5715173721313477
0.5948421478271484,0.5742582321166992
0.5948421478271484,0.5742582321166992
0.5962520599365234,0.5636758804321289
0.5912778854370117,0.5636758804321289
0.6043138504028320,0.5764755249023438
0.6043138504028320,0.5764755249023438
0.5921922683715820,0.5672590255737304
0.5921922683715820,0.5672590255737304
0.6052711486816406,0.5710601806640625
0.6052711486816406,0.5710601806640625
0.5956060409545898,0.5766843795776367
0.5956060409545898,0.5766843795776367
0.5981477737426758,0.5674432754516602
0.5981477737426758,0.5674432754516602
0.6067897796630859,0.5839788436889648
0.6067897796630859,0.5839788436889648
0.5955081939697265,0.5727607727050781
0.5955081939697265,0.5727607727050781
0.6092473983764648,0.5796947479248047
0.6092473983764648,0.5796947479248047
0.6007759094238281,0.5863563537597656
0.6116243362426758,0.5863563537597656
0.6029182434082031,0.5797840118408203
0.6029182434082031,0.5797840118408203
0.6120357513427734,0.5925991058349609
0.6120357513427734,0.5925991058349609
0.6003736495971680,0.5831113815307617
0.6003736495971680,0.5831113815307617
0.6145809173583984,0.5893941879272461
0.6145809173583984,0.5893941879272461
0.6052780151367188,0.5973226547241210
0.6052780151367188,0.5973226547241210
0.6073236465454102,0.5862144470214844
0.6073236465454102,0.5862144470214844
0.6159530639648437,0.6002786636352538
0.6159530639648437,0.6002786636352538
0.6044597625732422,0.5901208877563476
0.6044597625732422,0.5901208877563476
0.6176427841186524,0.5977174758911132
0.6176427841186524,0.5977174758911132
0.6082986831665039,0.6014774322509765
0.6082986831665039,0.6014774322509765
0.6097114562988281,0.5918420791625977
0.6097114562988281,0.5918420791625977
0.6188535690307617,0.6055704116821289
0.6188535690307617,0.6055704116821289
0.6066822052001953,0.5971796035766601
0.6066822052001953,0.5971796035766601
0.6201353073120117,0.6007753372192383
0.6201353073120117,0.6007753372192383
0.6106830596923828,0.6064052581787109
0.6106830596923828,0.6064052581787109
0.6125862121582031,0.5968517303466797
0.6125862121582031,0.5968517303466797
0.6209478378295898,0.6120861053466796
0.6209478378295898,0.6120861053466796
0.6090265274047851,0.5998294830322265
0.6090265274047851,0.5998294830322265
0.6218765258789062,0.6049604415893555
0.6218765258789062,0.6049604415893555
0.6128036499023437,0.6102710723876953
0.6128036499023437,0.6102710723876953
0.6141609191894531,0.6021108627319336
0.6141609191894531,0.6021108627319336
0.6226026535034179,0.6134462356567383
0.6226026535034179,0.6134462356567383
0.6105154037475585,0.6028638839721679
0.6224138259887695,0.6028638839721679
0.6238512039184571,0.6078649520874023
0.6090505599975585,0.6078649520874023
0.6140476226806640,0.6150621414184571
0.6245727539062500,0.6150621414184571
0.6154621124267577,0.6031064987182617
0.6154621124267577,0.6031064987182617
0.6237127304077148,0.6163742065429687
0.6237127304077148,0.6163742065429687
0.6121089935302734,0.6059045791625977
0.6121089935302734,0.6059045791625977
0.6251598358154297,0.6126840591430663
0.6251598358154297,0.6126840591430663
0.6155845642089843,0.6161659240722656
0.6155845642089843,0.6161659240722656
0.6168880462646484,0.6062913894653320
0.6168880462646484,0.6062913894653320
0.6256736755371094,0.6195545196533203
0.6256736755371094,0.6195545196533203
0.6134754180908203,0.6107580184936523
0.6134754180908203,0.6107580184936523
0.6263700485229492,0.6132167816162110
0.6263700485229492,0.6132167816162110
0.6157773971557617,0.6166116714477539
0.6157773971557617,0.6166116714477539
0.6153579711914062,0.6016485214233398
0.6153579711914062,0.6016485214233398
0.6192764282226563,0.6062158584594727
0.6192764282226563,0.6062158584594727
0.5997207641601562,0.5781377792358399
0.5997207641601562,0.5781377792358399
0.6037353515625000,0.5649993896484374
0.6037353515625000,0.5649993896484374
0.5871929168701172,0.5572288513183593
0.5871929168701172,0.5572288513183593
0.5837699890136718,0.5410205841064453
0.5837699890136718,0.5410205841064453
0.5899686813354492,0.5480318069458008
0.5899686813354492,0.5480318069458008
0.5762947082519531,0.5355245590209960
0.5881525039672851,0.5355245590209960
0.5896608352661132,0.5394739151000977
0.5896608352661132,0.5394739151000977
0.5799230575561524,0.5465303421020508
0.5799230575561524,0.5465303421020508
0.5812231063842773,0.5348745346069336
0.5812231063842773,0.5348745346069336
0.5900510787963867,0.5481239318847656
0.5900510787963867,0.5481239318847656
0.5781538009643554,0.5379415512084961
0.5781538009643554,0.5379415512084961
0.5912601470947265,0.5443164825439453
0.5912601470947265,0.5443164825439453
0.5818044662475585,0.5480386734008789
0.5818044662475585,0.5480386734008789
0.5825952529907227,0.5379249572753906
0.5825952529907227,0.5379249572753906
0.5918523788452148,0.5510227203369140
0.5918523788452148,0.5510227203369140
0.5793914794921875,0.5426221847534179
0.5793914794921875,0.5426221847534179
0.5928371429443359,0.5457996368408203
0.5928371429443359,0.5457996368408203
0.5838323593139648,0.5525344848632813
0.5838323593139648,0.5525344848632813
0.5857984542846679,0.5441980361938477
0.5857984542846679,0.5441980361938477
0.5956151962280273,0.5615032196044921
0.5956151962280273,0.5615032196044921
0.5848394393920898,0.5530162811279297
0.5848394393920898,0.5530162811279297
0.5997161865234375,0.5613630294799804
0.5997161865234375,0.5613630294799804
0.5928411483764648,0.5709445953369140
0.5928411483764648,0.5709445953369140
0.5953817367553711,0.5662227630615234
0.5953817367553711,0.5662227630615234
0.6058811187744141,0.5802841186523438
0.6058811187744141,0.5802841186523438
0.5945903778076171,0.5720312118530273
0.5945903778076171,0.5720312118530273
0.6087907791137696,0.5773155212402343
0.6087907791137696,0.5773155212402343
0.5993894577026367,0.5852611541748046
0.5993894577026367,0.5852611541748046
0.6002843856811523,0.5732122421264648
0.6002843856811523,0.5732122421264648
0.6087003707885742,0.5858842849731445
0.6087003707885742,0.5858842849731445
0.5965948104858398,0.5752075195312499
0.5965948104858398,0.5752075195312499
0.6095975875854492,0.5808877944946289
0.6095975875854492,0.5808877944946289
0.6001081466674805,0.5848211288452149
0.6001081466674805,0.5848211288452149
0.6008663177490234,0.5747995376586914
0.6008663177490234,0.5747995376586914
0.6102870941162110,0.5881530761718750
0.6102870941162110,0.5881530761718750
0.5979331970214844,0.5807115554809570
0.5979331970214844,0.5807115554809570
0.6117776870727539,0.5840440750122070
0.6117776870727539,0.5840440750122070
0.6026309967041016,0.5909889221191406
0.6026309967041016,0.5909889221191406
0.6044597625732422,0.5820550918579102
0.6044597625732422,0.5820550918579102
0.6139652252197265,0.5980567932128906
0.6139652252197265,0.5980567932128906
0.6020730972290039,0.5874092102050781
0.6020730972290039,0.5874092102050781
0.6161510467529296,0.5926734924316406
0.6161510467529296,0.5926734924316406
0.6074014663696289,0.5996389389038086
0.6074014663696289,0.5996389389038086
0.6082809448242187,0.5923816680908203
0.6082809448242187,0.5923816680908203
0.6179065704345703,0.6041530609130860
0.6179065704345703,0.6041530609130860
0.6055566787719726,0.5947832107543946
0.6055566787719726,0.5947832107543946
0.6196952819824219,0.5995342254638671
0.6196952819824219,0.5995342254638671
0.6104896545410156,0.6077539443969726
0.6207189559936523,0.6077539443969726
0.6111768722534180,0.5963161468505859
0.6111768722534180,0.5963161468505859
0.6206462860107421,0.6096033096313477
0.6206462860107421,0.6096033096313477
0.6084234237670898,0.5998311996459961
0.6084234237670898,0.5998311996459961
0.6218896865844726,0.6059612274169922
0.6218896865844726,0.6059612274169922
0.6127538681030273,0.6104181289672851
0.6127538681030273,0.6104181289672851
0.6130336761474610,0.6005064010620117
0.6130336761474610,0.6005064010620117
0.6230049133300781,0.6137557983398437
0.6230049133300781,0.6137557983398437
0.6101360321044922,0.6056373596191406
0.6101360321044922,0.6056373596191406
0.6238065719604492,0.6079278945922851
0.6238065719604492,0.6079278945922851
0.6241001129150391,0.6113245010375976
0.6241001129150391,0.6113245010375976
0.6241001129150391,0.6127990722656250
0.6105091094970703,0.6104839324951171
0.6258962631225585,0.6104839324951171
0.6205375671386718,0.6059011459350586
0.6205375671386718,0.6059011459350586
0.6200769424438476,0.6175157546997070
0.6200769424438476,0.6175157546997070
0.6120523452758789,0.6032112121582031
0.6120523452758789,0.6032112121582031
0.6253915786743164,0.6156909942626952
0.6253915786743164,0.6156909942626952
0.6114990234375000,0.6132946014404297
0.6270864486694335,0.6132946014404297
0.6207841873168946,0.6082277297973633
0.6207841873168946,0.6082277297973633
0.6222948074340821,0.6198114395141602
0.6222948074340821,0.6198114395141602
0.6134531021118164,0.6062685012817383
0.6134531021118164,0.6062685012817383
0.6267225265502929,0.6183883666992187
0.6267225265502929,0.6183883666992187
0.6120208740234375,0.6157264709472656
0.6120208740234375,0.6157264709472656
0.6229053497314453,0.6106716156005859
0.6229053497314453,0.6106716156005859
0.6236978530883789,0.6230037689208984
0.6236978530883789,0.6230037689208984
0.6147686004638672,0.6093452453613281
0.6147686004638672,0.6093452453613281
0.6269788742065430,0.6210868835449218
0.6269788742065430,0.6210868835449218
0.6141918182373046,0.6177526473999023
0.6141918182373046,0.6177526473999023
0.6237527847290039,0.6117582321166992
0.6237527847290039,0.6117582321166992
0.6226856231689453,0.6198617935180664
0.6226856231689453,0.6198617935180664
0.6089962005615234,0.5971670150756836
0.6089962005615234,0.5971670150756836
0.6165945053100585,0.5945663452148438
0.6165945053100585,0.5945663452148438
0.5942522048950195,0.5747480392456055
0.5942522048950195,0.5747480392456055
0.5962017059326171,0.5551671981811523
0.5962017059326171,0.5551671981811523
0.5906839370727539,0.5573123931884766
0.5906839370727539,0.5573123931884766
0.5794206619262695,0.5378459930419922
0.5794206619262695,0.5378459930419922
0.5912281036376953,0.5475294113159179
0.5912281036376953,0.5475294113159179
0.5771810531616210,0.5440240859985351
0.5771810531616210,0.5440240859985351
0.5860542297363281,0.5387460708618164
0.5860542297363281,0.5387460708618164
0.5878017425537109,0.5507205963134766
0.5878017425537109,0.5507205963134766
0.5789377212524414,0.5374586105346679
0.5789377212524414,0.5374586105346679
0.5924978256225586,0.5500494003295898
0.5924978256225586,0.5500494003295898
0.5782367706298828,0.5475408554077148
0.5782367706298828,0.5475408554077148
0.5889993667602539,0.5423280715942382
0.5889993667602539,0.5423280715942382
0.5900362014770507,0.5549406051635742
0.5900362014770507,0.5549406051635742
0.5809083938598633,0.5412820816040039
0.5809083938598633,0.5412820816040039
0.5934814453125000,0.5532182693481446
0.5934814453125000,0.5532182693481446
0.5810096740722656,0.5509689331054687
0.5810096740722656,0.5509689331054687
0.5911388397216797,0.5472478866577148
0.5911388397216797,0.5472478866577148
0.5929040908813477,0.5614980697631836
0.5929040908813477,0.5614980697631836
0.5840217590332031,0.5498554229736328
0.5840217590332031,0.5498554229736328
0.5996526718139649,0.5646331787109374
0.5996526718139649,0.5646331787109374
0.5880804061889648,0.5663406372070312
0.5880804061889648,0.5663406372070312
0.5996526718139649,0.5650657653808594
0.5996526718139649,0.5650657653808594
0.6015020370483398,0.5802709579467773
0.6015020370483398,0.5802709579467773
0.5944078445434570,0.5689498901367187
0.5944078445434570,0.5689498901367187
0.6087827682495117,0.5828527450561524
0.6087827682495117,0.5828527450561524
0.5960884094238281,0.5817724227905273
0.5960884094238281,0.5817724227905273
0.6049633026123047,0.5765991210937500
0.6049633026123047,0.5765991210937500
0.6068927764892578,0.5881759643554687
0.6068927764892578,0.5881759643554687
0.5975692749023437,0.5741838455200196
0.5975692749023437,0.5741838455200196
0.6103981018066406,0.5855329513549804
0.5960935592651367,0.5827989578247070
0.6062255859375000,0.5770774841308594
0.6062255859375000,0.5770774841308594
0.6073894500732422,0.5897689819335937
0.6073894500732422,0.5897689819335937
0.5983377456665039,0.5766517639160156
0.5983377456665039,0.5766517639160156
0.6110687255859375,0.5888093948364258
0.6110687255859375,0.5888093948364258
0.5989934921264648,0.5871906280517578
0.5989934921264648,0.5871906280517578
0.6090757369995117,0.5834878921508789
0.6090757369995117,0.5834878921508789
0.6108890533447265,0.5968660354614258
0.6108890533447265,0.5968660354614258
0.6011512756347656,0.5841934204101562
0.6011512756347656,0.5841934204101562
0.6157670974731445,0.5966497421264648
0.6157670974731445,0.5966497421264648
0.6031848907470703,0.5959327697753906
0.6031848907470703,0.5959327697753906
0.6130096435546875,0.5918970108032227
0.6130096435546875,0.5918970108032227
0.6139823913574218,0.6046365737915039
0.6139823913574218,0.6046365737915039
0.6057094573974610,0.5913402557373046
0.6057094573974610,0.5913402557373046
0.6195138931274414,0.6039653778076172
0.6195138931274414,0.6039653778076172
0.6066513061523438,0.6026046752929687
0.6066513061523438,0.6026046752929687
0.6152297973632812,0.5975847244262695
0.6152297973632812,0.5975847244262695
0.6176324844360351,0.6099020004272461
0.6176324844360351,0.6099020004272461
0.6084457397460937,0.5970697402954102
0.6084457397460937,0.5970697402954102
0.6219102859497070,0.6092874526977539
0.6219102859497070,0.6092874526977539
0.6080875396728516,0.6071256637573242
0.6080875396728516,0.6071256637573242
0.6182567596435546,0.6017978668212890
0.6182567596435546,0.6017978668212890
0.6200271606445312,0.6145917892456054
0.6200271606445312,0.6145917892456054
0.6107316970825195,0.6013126373291016
0.6107316970825195,0.6013126373291016
0.6230455398559570,0.6128820419311524
0.6230455398559570,0.6128820419311524
0.6108684539794922,0.6106521606445312
0.6108684539794922,0.6106521606445312
0.6200723648071289,0.6058628082275390
0.6200723648071289,0.6058628082275390
0.6216865539550781,0.6184518814086913
0.6216865539550781,0.6184518814086913
0.6113656997680664,0.6043899536132812
0.6113656997680664,0.6043899536132812
0.6255374908447265,0.6155639648437500
0.6255374908447265,0.6155639648437500
0.6125616073608399,0.6138078689575195
0.6125616073608399,0.6138078689575195
0.6213541030883789,0.6084285736083984
0.6213541030883789,0.6084285736083984
0.6222124099731445,0.6205289840698242
0.6222124099731445,0.6205289840698242
0.6133546829223633,0.6065740585327148
0.6133546829223633,0.6065740585327148
0.6268363952636719,0.6184988021850586
0.6268363952636719,0.6184988021850586
0.6138118743896485,0.6169040679931640
0.6138118743896485,0.6169040679931640
0.6217254638671875,0.6110458374023438
0.6217254638671875,0.6110458374023438
0.6243284225463867,0.6231010437011718
0.6243284225463867,0.6231010437011718
0.6149425506591797,0.6097034454345703
0.6149425506591797,0.6097034454345703
0.6282119750976562,0.6212757110595702
0.6282119750976562,0.6212757110595702
0.6143846511840820,0.6191299438476562
0.6143846511840820,0.6191299438476562
0.6237985610961914,0.6131509780883789
0.6237985610961914,0.6131509780883789
0.6255941390991211,0.6254751205444335
0.6255941390991211,0.6254751205444335
0.6154037475585937,0.6106492996215820
0.6154037475585937,0.6106492996215820
0.6261634826660156,0.6175603866577148
0.6261634826660156,0.6175603866577148
0.6102029800415039,0.6063154220581054
0.6102029800415039,0.6063154220581054
0.6119104385375976,0.5859180450439453
0.6119104385375976,0.5859180450439453
0.6044311523437500,0.5797204971313477
0.6044311523437500,0.5797204971313477
0.5855478286743164,0.5509031295776367
0.5855478286743164,0.5509031295776367
0.5945920944213867,0.5526460647583008
0.5945920944213867,0.5526460647583008
0.5789188385009766,0.5463020324707031
0.5789188385009766,0.5463020324707031
0.5861011505126953,0.5385412216186524
0.5861011505126953,0.5385412216186524
0.5865589141845703,0.5499406814575195
0.5865589141845703,0.5499406814575195
0.5776044845581054,0.5357139587402343
0.5776044845581054,0.5357139587402343
0.5914752960205077,0.5478509902954102
0.5914752960205077,0.5478509902954102
0.5789766311645508,0.5467300415039062
0.5789766311645508,0.5467300415039062
0.5868719100952148,0.5413988113403320
0.5868719100952148,0.5413988113403320
0.5896831512451172,0.5540205001831054
0.5896831512451172,0.5540205001831054
0.5803104400634765,0.5409605026245117
0.5803104400634765,0.5409605026245117
0.5940032958984375,0.5529642105102539
0.5940032958984375,0.5529642105102539
0.5806383132934571,0.5510948181152343
0.5806383132934571,0.5510948181152343
0.5897500991821288,0.5451999664306640
0.5897500991821288,0.5451999664306640
0.5920732498168945,0.5586633682250977
0.5920732498168945,0.5586633682250977
0.5827074050903320,0.5457527160644531
0.5827074050903320,0.5457527160644531
0.5959327697753906,0.5583847045898437
0.5959327697753906,0.5583847045898437
0.5849470138549805,0.5585615158081054
0.5849470138549805,0.5585615158081054
0.5944656372070313,0.5557628631591797
0.5944656372070313,0.5557628631591797
0.5981918334960937,0.5721673965454102
0.5981918334960937,0.5721673965454102
0.5892230987548828,0.5614797592163085
0.5892230987548828,0.5614797592163085
0.6052648544311523,0.5756858825683594
0.6052648544311523,0.5756858825683594
0.5941783905029296,0.5773590087890624
0.5941783905029296,0.5773590087890624
0.6034955978393555,0.5733409881591797
0.6034955978393555,0.5733409881591797
0.6053558349609375,0.5870052337646484
0.6053558349609375,0.5870052337646484
0.5965799331665039,0.5733518600463867
0.5965799331665039,0.5733518600463867
0.6101016998291016,0.5849979400634765
0.6101016998291016,0.5849979400634765
0.5975326538085938,0.5833065032958984
0.5975326538085938,0.5833065032958984
0.6043579101562500,0.5762523651123047
0.6043579101562500,0.5762523651123047
0.6070512771606446,0.5880861282348633
0.6070512771606446,0.5880861282348633
0.5971504211425781,0.5743766784667969
0.5971504211425781,0.5743766784667969
0.6104719161987304,0.5858110427856446
0.6104719161987304,0.5858110427856446
0.5971652984619140,0.5844017028808594
0.5971652984619140,0.5844017028808594
0.6061271667480469,0.5785074234008789
0.6061271667480469,0.5785074234008789
0.6089057922363281,0.5926523208618164
0.6089057922363281,0.5926523208618164
0.5995513916015625,0.5802194595336914
0.5995513916015625,0.5802194595336914
0.6128248214721680,0.5924411773681640
0.6128248214721680,0.5924411773681640
0.6018848419189453,0.5920955657958984
0.6018848419189453,0.5920955657958984
0.6104787826538086,0.5879167556762696
0.6104787826538086,0.5879167556762696
0.6135835647583008,0.6020004272460937
0.6135835647583008,0.6020004272460937
0.6033983230590820,0.5891738891601562
0.6033983230590820,0.5891738891601562
0.6181806564331055,0.6012044906616211
0.6181806564331055,0.6012044906616211
0.6063503265380860,0.6013132095336914
0.6063503265380860,0.6013132095336914
0.6145208358764648,0.5962360382080077
0.6145208358764648,0.5962360382080077
0.6163976669311523,0.6093257904052735
0.6163976669311523,0.6093257904052735
0.6077379226684571,0.5959138870239258
0.6077379226684571,0.5959138870239258
0.6215778350830078,0.6081253051757812
0.6215778350830078,0.6081253051757812
0.6094968795776367,0.6074026107788085
0.6094968795776367,0.6074026107788085
0.6164325714111328,0.6014413833618164
0.6164325714111328,0.6014413833618164
0.6200294494628906,0.6142055511474609
0.6200294494628906,0.6142055511474609
0.6102384567260742,0.6011724472045898
0.6102384567260742,0.6011724472045898
0.6140378952026367,0.6042160034179688
0.6140378952026367,0.6042160034179688
0.6245790481567383,0.6172130584716796
0.6245790481567383,0.6172130584716796
0.6110612869262695,0.6080005645751952
0.6110612869262695,0.6080005645751952
0.6241395950317382,0.6126708984375000
0.6241395950317382,0.6126708984375000
0.6174110412597656,0.6183643341064453
0.6258985519409179,0.6183643341064453
0.6154752731323242,0.6075605392456055
0.6154752731323242,0.6075605392456055
0.6264066696166992,0.6203350067138672
0.6264066696166992,0.6203350067138672
0.6122348785400390,0.6127275466918946
0.6122348785400390,0.6127275466918946
0.6254568099975586,0.6134113311767578
0.6254568099975586,0.6134113311767578
0.6186223983764648,0.6209157943725586
0.6186223983764648,0.6209157943725586
0.6170825958251953,0.6099958419799805
0.6170825958251953,0.6099958419799805
0.6275213241577148,0.6247987747192383
0.6275213241577148,0.6247987747192383
0.6135526657104492,0.6134868621826172
0.6135526657104492,0.6134868621826172
0.6262664794921875,0.6159879684448242
0.6262664794921875,0.6159879684448242
0.6202949523925781,0.6237310409545899
0.6202949523925781,0.6237310409545899
0.6181074142456054,0.6146347045898437
0.6181074142456054,0.6146347045898437
0.6288270950317383,0.6257062911987304
0.6288270950317383,0.6257062911987304
0.6147514343261719,0.6160892486572266
0.6147514343261719,0.6160892486572266
0.6280483245849610,0.6184204101562499
0.6280483245849610,0.6184204101562499
0.6211423873901367,0.6269845962524414
0.6288860321044921,0.6269845962524414
0.6178573608398438,0.6112066268920898
0.6178573608398438,0.6112066268920898
0.6251512527465820,0.6168783187866210
0.6251512527465820,0.6168783187866210
0.6055086135864257,0.5938808441162109
0.6055086135864257,0.5938808441162109
0.6094694137573242,0.5796581268310547
0.6094694137573242,0.5796581268310547
0.5942979812622070,0.5690454483032227
0.5942979812622070,0.5690454483032227
0.5859615325927734,0.5474561691284180
0.5859615325927734,0.5474561691284180
0.5933034896850585,0.5546190261840820
0.5933034896850585,0.5546190261840820
0.5775220870971679,0.5439479827880859
0.5775220870971679,0.5439479827880859
0.5899011611938476,0.5435039520263671
0.5899011611938476,0.5435039520263671
0.5833013534545898,0.5511274337768555
0.5833013534545898,0.5511274337768555
0.5817352294921875,0.5403539657592773
0.5817352294921875,0.5403539657592773
0.5925327301025390,0.5555454254150390
0.5925327301025390,0.5555454254150390
0.5788421630859375,0.5447914123535156
0.5788421630859375,0.5447914123535156
0.5920309066772461,0.5474824905395508
0.5920309066772461,0.5474824905395508
0.5864067077636719,0.5557073593139649
0.5864067077636719,0.5557073593139649
0.5841310501098632,0.5466493606567383
0.5841310501098632,0.5466493606567383
0.5948558807373047,0.5579435348510742
0.5948558807373047,0.5579435348510742
0.5806205749511718,0.5486915588378906
0.5806205749511718,0.5486915588378906
0.5941646575927734,0.5515079498291016
0.5941646575927734,0.5515079498291016
0.5882417678833007,0.5615896224975586
0.5882417678833007,0.5615896224975586
0.5864650726318359,0.5498067855834960
0.5864650726318359,0.5498067855834960
0.5977369308471679,0.5645570755004883
0.5977369308471679,0.5645570755004883
0.5849658966064453,0.5573856353759765
0.5849658966064453,0.5573856353759765
0.5991651535034179,0.5643390655517578
0.5991651535034179,0.5643390655517578
0.5949005126953125,0.5738262176513672
0.5949005126953125,0.5738262176513672
0.5938579559326171,0.5661409378051757
0.5938579559326171,0.5661409378051757
0.6066312789916992,0.5820791244506835
0.6066312789916992,0.5820791244506835
0.5937234878540039,0.5768291473388671
0.5937234878540039,0.5768291473388671
0.6074226379394531,0.5788896560668945
0.6074226379394531,0.5788896560668945
0.6021446228027344,0.5876615524291992
0.6021446228027344,0.5876615524291992
0.6000846862792969,0.5765985488891602
0.6000846862792969,0.5765985488891602
0.6104988098144531,0.5910730361938477
0.6104988098144531,0.5910730361938477
0.5961067199707031,0.5792112350463867
0.5961067199707031,0.5792112350463867
0.6084468841552734,0.5809318542480468
0.6084468841552734,0.5809318542480468
0.6030263900756836,0.5884643554687500
0.6104581832885742,0.5884643554687500
0.6000675201416016,0.5789440155029296
0.6000675201416016,0.5789440155029296
0.6108032226562500,0.5901975631713867
0.6108032226562500,0.5901975631713867
0.5968248367309570,0.5812002182006836
0.5968248367309570,0.5812002182006836
0.6102956771850586,0.5840875625610351
0.6102956771850586,0.5840875625610351
0.6050291061401367,0.5950263977050781
0.6050291061401367,0.5950263977050781
0.6029005050659180,0.5832710266113281
0.6029005050659180,0.5832710266113281
0.6141529083251953,0.5977712631225586
0.6141529083251953,0.5977712631225586
0.6011707305908203,0.5898313522338867
0.6011707305908203,0.5898313522338867
0.6147090911865234,0.5952072143554688
0.6147090911865234,0.5952072143554688
0.6098505020141601,0.6029314041137696
0.6098505020141601,0.6029314041137696
0.6076463699340821,0.5928903579711914
0.6076463699340821,0.5928903579711914
0.6192123413085937,0.6071016311645507
0.6192123413085937,0.6071016311645507
0.6054290771484375,0.6003845214843749
0.6054290771484375,0.6003845214843749
0.6187688827514648,0.6015100479125977
0.6187688827514648,0.6015100479125977
0.6134559631347656,0.6105691909790039
0.6134559631347656,0.6105691909790039
0.6114755630493164,0.5998363494873047
0.6114755630493164,0.5998363494873047
0.6223606109619141,0.6152853012084961
0.6223606109619141,0.6152853012084961
0.6084629058837890,0.6047882080078125
0.6084629058837890,0.6047882080078125
0.6215034484863281,0.6072572708129883
0.6215034484863281,0.6072572708129883
0.6167289733886718,0.6157670974731445
0.6167289733886718,0.6157670974731445
0.6137769699096679,0.6067989349365234
0.6137769699096679,0.6067989349365234
0.6248222351074219,0.6184221267700195
0.6248222351074219,0.6184221267700195
0.6104690551757812,0.6092525482177734
0.6104690551757812,0.6092525482177734
0.6237562179565429,0.6114320755004883
0.6237562179565429,0.6114320755004883
0.6186807632446288,0.6218313217163086
0.6186807632446288,0.6218313217163086
0.6156028747558594,0.6087032318115234
0.6156028747558594,0.6087032318115234
0.6265611648559570,0.6217941284179688
0.6265611648559570,0.6217941284179688
0.6125175476074218,0.6124225616455078
0.6125175476074218,0.6124225616455078
0.6249710083007812,0.6162139892578125
0.6249710083007812,0.6162139892578125
0.6201873779296875,0.6228046417236328
0.6201873779296875,0.6228046417236328
0.6167163848876953,0.6113880157470702
0.6167163848876953,0.6113880157470702
0.6281393051147460,0.6246133804321289
0.6281393051147460,0.6246133804321289
0.6136550903320312,0.6171352386474609
0.6136550903320312,0.6171352386474609
0.6263780593872070,0.6171873092651367
0.6263780593872070,0.6171873092651367
0.6214754104614257,0.6256879806518555
0.6214754104614257,0.6256879806518555
0.6184490203857421,0.6141197204589843
0.6184490203857421,0.6141197204589843
0.6293094635009765,0.6292018890380859
0.6293094635009765,0.6292018890380859
0.6148818969726563,0.6178562164306640
0.6148818969726563,0.6178562164306640
0.6273405075073242,0.6195093154907226
0.6273405075073242,0.6195093154907226
0.6226879119873047,0.6270275115966797
0.6226879119873047,0.6270275115966797
0.6180192947387695,0.6145814895629883
0.6180192947387695,0.6145814895629883
0.6260238647460937,0.6189107894897461
0.6260238647460937,0.6189107894897461
0.6056041717529297,0.5958543777465820
0.6056041717529297,0.5958543777465820
0.6092170715332031,0.5788307189941406
0.6092170715332031,0.5788307189941406
0.5954555511474610,0.5724632263183593
0.5954555511474610,0.5724632263183593
0.5858779907226562,0.5485479354858398
0.5858779907226562,0.5485479354858398
0.5933063507080077,0.5559373855590820
0.5933063507080077,0.5559373855590820
0.5776594161987304,0.5438472747802734
0.5776594161987304,0.5438472747802734
0.5896614074707031,0.5463294982910156
0.5896614074707031,0.5463294982910156
0.5849607467651367,0.5529424667358398
0.5849607467651367,0.5529424667358398
0.5815624237060547,0.5416179656982422
0.5815624237060547,0.5416179656982422
0.5930894851684571,0.5553176879882812
0.5843513488769531,0.5553176879882812
0.5788352966308593,0.5482652664184570
0.5788352966308593,0.5482652664184570
0.5917116165161133,0.5486108779907226
0.5917116165161133,0.5486108779907226
0.5871219635009766,0.5575441360473633
0.5871219635009766,0.5575441360473633
0.5842260360717774,0.5460273742675781
0.5842260360717774,0.5460273742675781
0.5951906204223633,0.5612554550170898
0.5951906204223633,0.5612554550170898
0.5807607650756835,0.5501861572265625
0.5807607650756835,0.5501861572265625
0.5934436798095702,0.5520601272583008
0.5934436798095702,0.5520601272583008
0.5893753051757812,0.5610923767089844
0.5893753051757812,0.5610923767089844
0.5858242034912109,0.5519187927246093
0.5858242034912109,0.5519187927246093
0.5975858688354492,0.5646829605102539
0.5975858688354492,0.5646829605102539
0.5836721420288086,0.5572259902954101
0.5836721420288086,0.5572259902954101
0.5977861404418945,0.5610168457031249
0.5977861404418945,0.5610168457031249
0.5946407318115234,0.5741008758544922
0.5946407318115234,0.5741008758544922
0.5920944213867188,0.5631151199340820
0.5920944213867188,0.5631151199340820
0.6042589187622071,0.5784387588500977
0.6042589187622071,0.5784387588500977
0.5909151077270508,0.5705566406250000
0.5909151077270508,0.5705566406250000
0.6038372039794921,0.5747863769531250
0.6038372039794921,0.5747863769531250
0.5998054504394531,0.5819389343261718
0.5998054504394531,0.5819389343261718
0.5956243515014649,0.5699220657348633
0.5956243515014649,0.5699220657348633
0.6070192337036132,0.5829288482666015
0.6070192337036132,0.5829288482666015
0.5921768188476563,0.5748996734619141
0.5921768188476563,0.5748996734619141
0.6045209884643554,0.5741432189941406
0.6045209884643554,0.5741432189941406
0.6002082824707031,0.5829311370849609
0.6002082824707031,0.5829311370849609
0.5965604782104492,0.5711700439453125
0.5965604782104492,0.5711700439453125
0.6077362060546875,0.5866613388061523
0.6077362060546875,0.5866613388061523
0.5935375213623046,0.5761608123779297
0.5935375213623046,0.5761608123779297
0.6061500549316406,0.5785509109497070
0.6061500549316406,0.5785509109497070
0.6031105041503906,0.5884855270385742
0.6031105041503906,0.5884855270385742
0.5996000289916992,0.5797943115234375
0.5996000289916992,0.5797943115234375
0.6115230560302735,0.5929567337036132
0.6115230560302735,0.5929567337036132
0.5978759765625000,0.5851037979125976
0.5978759765625000,0.5851037979125976
0.6113937377929687,0.5882434844970703
0.6113937377929687,0.5882434844970703
0.6079433441162109,0.6005527496337890
0.6079433441162109,0.6005527496337890
0.6048202514648438,0.5884540557861327
0.6048202514648438,0.5884540557861327
0.6164709091186523,0.6031929016113281
0.6164709091186523,0.6031929016113281
0.6029531478881835,0.5949817657470703
0.6029531478881835,0.5949817657470703
0.6159227371215820,0.5993516921997070
0.6159227371215820,0.5993516921997070
0.6125072479248047,0.6072944641113281
0.6125072479248047,0.6072944641113281
0.6087484359741211,0.5961193084716797
0.6087484359741211,0.5961193084716797
0.6205953598022461,0.6101886749267578
0.6205953598022461,0.6101886749267578
0.6061483383178711,0.6032649993896484
0.6061483383178711,0.6032649993896484
0.6188661575317382,0.6032976150512696
0.6188661575317382,0.6032976150512696
0.6219137191772460,0.6091300964355468
0.6219137191772460,0.6091300964355468
0.6112266540527344,0.6101589202880859
0.6112266540527344,0.6101589202880859
0.6160732269287109,0.6029640197753906
0.6160732269287109,0.6029640197753906
0.6203126907348633,0.6162065505981446
0.6203126907348633,0.6162065505981446
0.6110126495361328,0.6022195816040039
0.6110126495361328,0.6022195816040039
0.6240245819091796,0.6137529373168945
0.6240245819091796,0.6137529373168945
0.6133409500122070,0.6141574859619140
0.6133409500122070,0.6141574859619140
0.6168909072875977,0.6062152862548827
0.6168909072875977,0.6062152862548827
0.6229425430297851,0.6192861557006836
0.6229425430297851,0.6192861557006836
0.6127979278564453,0.6063383102416992
0.6127979278564453,0.6063383102416992
0.6257841110229492,0.6177062988281250
0.6257841110229492,0.6177062988281250
0.6141769409179687,0.6176748275756836
0.6141769409179687,0.6176748275756836
0.6195293426513672,0.6093360900878906
0.6195293426513672,0.6093360900878906
0.6248674392700195,0.6236909866333008
0.6248674392700195,0.6236909866333008
0.6145786285400391,0.6100456237792968
0.6145786285400391,0.6100456237792968
0.6267271041870117,0.6208070755004883
0.6267271041870117,0.6208070755004883
0.6168199539184570,0.6205856323242187
0.6168199539184570,0.6205856323242187
0.6210508346557617,0.6130422592163086
0.6210508346557617,0.6130422592163086
0.6261154174804687,0.6260736465454101
0.6261154174804687,0.6260736465454101
0.6137414932250976,0.6089012145996093
0.6137414932250976,0.6089012145996093
0.6243192672729492,0.6116403579711914
0.6243192672729492,0.6116403579711914
0.6073316574096680,0.5985603332519531
0.6073316574096680,0.5985603332519531
0.6024541854858398,0.5720054626464843
0.6024541854858398,0.5720054626464843
0.5982501983642577,0.5699615478515625
0.5982501983642577,0.5699615478515625
0.5831794738769531,0.5461315155029297
0.5831794738769531,0.5461315155029297
0.5928829193115234,0.5519468307495117
0.5928829193115234,0.5519468307495117
0.5807556152343750,0.5499876022338867
0.5807556152343750,0.5499876022338867
0.5835033416748047,0.5403997421264648
0.5835033416748047,0.5403997421264648
0.5894090652465820,0.5530414581298828
0.5894090652465820,0.5530414581298828
0.5792495727539062,0.5398269653320312
0.5792495727539062,0.5398269653320312
0.5920675277709960,0.5505912780761718
0.5920675277709960,0.5505912780761718
0.5806388854980469,0.5508613586425781
0.5806388854980469,0.5508613586425781
0.5855415344238281,0.5421524047851562
0.5855415344238281,0.5421524047851562
0.5909030914306640,0.5562498092651367
0.5909030914306640,0.5562498092651367
0.5805696487426758,0.5427909851074219
0.5805696487426758,0.5427909851074219
0.5925046920776367,0.5529762268066406
0.5925046920776367,0.5529762268066406
0.5827526092529297,0.5527153015136719
0.5827526092529297,0.5527153015136719
0.5869005203247070,0.5450883865356445
0.5869005203247070,0.5450883865356445
0.5923141479492188,0.5590307235717773
0.5923141479492188,0.5590307235717773
0.5812053680419922,0.5457126617431640
0.5812053680419922,0.5457126617431640
0.5952318191528320,0.5565261840820312
0.5952318191528320,0.5565261840820312
0.5851369857788086,0.5587629318237305
0.5851369857788086,0.5587629318237305
0.5901620864868163,0.5528709411621093
0.5901620864868163,0.5528709411621093
0.5958143234252929,0.5684097290039062
0.5958143234252929,0.5684097290039062
0.5875579833984375,0.5569519042968750
0.5875579833984375,0.5569519042968750
0.6018842697143555,0.5706436157226562
0.6018842697143555,0.5706436157226562
0.5924703598022460,0.5733421325683593
0.5924703598022460,0.5733421325683593
0.5964139938354492,0.5663784027099609
0.5964139938354492,0.5663784027099609
0.6032398223876952,0.5803956985473633
0.6032398223876952,0.5803956985473633
0.5929338455200195,0.5674432754516602
0.5929338455200195,0.5674432754516602
0.6058038711547852,0.5780118942260742
0.6058038711547852,0.5780118942260742
0.5940341949462891,0.5775249481201171
0.5940341949462891,0.5775249481201171
0.5984888076782227,0.5679622650146484
0.5984888076782227,0.5679622650146484
0.6038074493408203,0.5816596984863281
0.6038074493408203,0.5816596984863281
0.5931884765625000,0.5677974700927734
0.5931884765625000,0.5677974700927734
0.6051063537597656,0.5780273437500000
0.6051063537597656,0.5780273437500000
0.5953725814819336,0.5782281875610351
0.5953725814819336,0.5782281875610351
0.5994335174560547,0.5707517623901367
0.5994335174560547,0.5707517623901367
0.6053243637084961,0.5853710174560547
0.6053243637084961,0.5853710174560547
0.5944948196411133,0.5723344802856445
0.5944948196411133,0.5723344802856445
0.6085321426391601,0.5832881927490234
0.5954143524169921,0.5832881927490234
0.5989007949829102,0.5856822967529297
0.5989007949829102,0.5856822967529297
0.6031591415405273,0.5786252975463867
0.6031591415405273,0.5786252975463867
0.6086139678955078,0.5935306549072266
0.6086139678955078,0.5935306549072266
0.5996904373168945,0.5808443069458008
0.5996904373168945,0.5808443069458008
0.6132711410522461,0.5933486938476562
0.6132711410522461,0.5933486938476562
0.6035367965698242,0.5957662582397460
0.6035367965698242,0.5957662582397460
0.6071640014648437,0.5880334854125976
0.6071640014648437,0.5880334854125976
0.6142782211303711,0.6024106979370117
0.6142782211303711,0.6024106979370117
0.6045003890991211,0.5905168533325195
0.6045003890991211,0.5905168533325195
0.6178482055664062,0.6020977020263671
0.6178482055664062,0.6020977020263671
0.6068996429443360,0.6034000396728515
0.6068996429443360,0.6034000396728515
0.6118160247802734,0.5951402664184570
0.6118160247802734,0.5951402664184570
0.6179174423217774,0.6101343154907226
0.6179174423217774,0.6101343154907226
0.6078815460205078,0.5974021911621094
0.6078815460205078,0.5974021911621094
0.6200752258300781,0.6078998565673828
0.6200752258300781,0.6078998565673828
0.6107191085815430,0.6085927963256835
0.6107191085815430,0.6085927963256835
0.6146472930908203,0.6009223937988281
0.6146472930908203,0.6009223937988281
0.6204563140869140,0.6148447036743164
0.6204563140869140,0.6148447036743164
0.6091838836669922,0.6013927459716797
0.6091838836669922,0.6013927459716797
0.6228921890258788,0.6113164901733398
0.6228921890258788,0.6113164901733398
0.6125947952270507,0.6128517150878906
0.6125947952270507,0.6128517150878906
0.6163009643554688,0.6047195434570313
0.6163009643554688,0.6047195434570313
0.6213472366333007,0.6182064056396485
0.6213472366333007,0.6182064056396485
0.6118143081665038,0.6045215606689452
0.6118143081665038,0.6045215606689452
0.6247512817382812,0.6157556533813476
0.6247512817382812,0.6157556533813476
0.6145671844482422,0.6170064926147460
0.6145671844482422,0.6170064926147460
0.6174751281738281,0.6083999633789062
0.6174751281738281,0.6083999633789062
0.6242111206054687,0.6219572067260742
0.6242111206054687,0.6219572067260742
0.6138044357299804,0.6093109130859374
0.6138044357299804,0.6093109130859374
0.6267208099365235,0.6201684951782226
0.6267208099365235,0.6201684951782226
0.6156526565551758,0.6206583023071289
0.6156526565551758,0.6206583023071289
0.6200574874877930,0.6111854553222656
0.6200574874877930,0.6111854553222656
0.6255952835083007,0.6244165420532226
0.6255952835083007,0.6244165420532226
0.6133890151977539,0.6071840286254883
0.6133890151977539,0.6071840286254883
0.6213798522949219,0.6083267211914062
0.6213798522949219,0.6083267211914062
0.6047000885009766,0.5928600311279296
0.6047000885009766,0.5928600311279296
0.5986885070800781,0.5663331985473633
0.5986885070800781,0.5663331985473633
0.5969570159912109,0.5669231414794922
0.5969570159912109,0.5669231414794922
0.5808214187622071,0.5447862625122070
0.5808214187622071,0.5447862625122070
0.5915885925292969,0.5500585556030273
0.5915885925292969,0.5500585556030273
0.5804340362548828,0.5495309829711914
0.5804340362548828,0.5495309829711914
0.5833568572998047,0.5399230957031250
0.5833568572998047,0.5399230957031250
0.5883258819580078,0.5531484603881835
0.5883258819580078,0.5531484603881835
0.5784044265747070,0.5390127182006835
0.5784044265747070,0.5390127182006835
0.5911794662475586,0.5495836257934570
0.5775014877319335,0.5495836257934570
0.5809804916381835,0.5508630752563476
0.5809804916381835,0.5508630752563476
0.5835411071777343,0.5414617538452148
0.5835411071777343,0.5414617538452148
0.5902078628540038,0.5543849945068359
0.5902078628540038,0.5543849945068359
0.5796260833740234,0.5413358688354492
0.5796260833740234,0.5413358688354492
0.5920497894287109,0.5512424468994140
0.5782413482666016,0.5512424468994140
0.5810136795043945,0.5519731521606445
0.5810136795043945,0.5519731521606445
0.5851507186889648,0.5424905776977539
0.5851507186889648,0.5424905776977539
0.5911497116088867,0.5569547653198242
0.5911497116088867,0.5569547653198242
0.5808391571044922,0.5443181991577148
0.5808391571044922,0.5443181991577148
0.5928205490112305,0.5546001434326172
0.5928205490112305,0.5546001434326172
0.5840755462646484,0.5563562393188476
0.5840755462646484,0.5563562393188476
0.5882886886596680,0.5497438430786132
0.5882886886596680,0.5497438430786132
0.5951671600341797,0.5654119491577149
0.5951671600341797,0.5654119491577149
0.5845773696899413,0.5535478591918945
0.5845773696899413,0.5535478591918945
0.5987491607666016,0.5644672393798827
0.5987491607666016,0.5644672393798827
0.5890394210815429,0.5669460296630859
0.5890394210815429,0.5669460296630859
0.5925802230834961,0.5584173202514648
0.5925802230834961,0.5584173202514648
0.5977706909179688,0.5714973449707031
0.5977706909179688,0.5714973449707031
0.5876369476318359,0.5569707870483398
0.5876369476318359,0.5569707870483398
0.5998283386230469,0.5666919708251953
0.5998283386230469,0.5666919708251953
0.5893312454223633,0.5671119689941406
0.5893312454223633,0.5671119689941406
0.5914106369018555,0.5572471618652344
0.5914106369018555,0.5572471618652344
0.5980453491210938,0.5701566696166992
0.5980453491210938,0.5701566696166992
0.5872655868530273,0.5571138381958007
0.5872655868530273,0.5571138381958007
0.5999502182006836,0.5674158096313476
0.5999502182006836,0.5674158096313476
0.5891212463378906,0.5685007095336914
0.5891212463378906,0.5685007095336914
0.5933029174804687,0.5594472885131836
0.5933029174804687,0.5594472885131836
0.5999650955200195,0.5746318817138671
0.5999650955200195,0.5746318817138671
0.5898061752319336,0.5625686645507812
0.5898061752319336,0.5625686645507812
0.6020994186401367,0.5732557296752929
0.6020994186401367,0.5732557296752929
0.5934024810791015,0.5752120971679687
0.5934024810791015,0.5752120971679687
0.5973964691162109,0.5682300567626953
0.5973964691162109,0.5682300567626953
0.6042863845825195,0.5837900161743164
0.6042863845825195,0.5837900161743164
0.5933813095092774,0.5714733123779296
0.5933813095092774,0.5714733123779296
0.6074684143066406,0.5819641113281250
0.6074684143066406,0.5819641113281250
0.5982295989990234,0.5851907730102539
0.5982295989990234,0.5851907730102539
0.6019226074218750,0.5773859024047852
0.6019226074218750,0.5773859024047852
0.6079828262329101,0.5924343109130860
0.6079828262329101,0.5924343109130860
0.5986278533935546,0.5796232223510742
0.5986278533935546,0.5796232223510742
0.6118160247802734,0.5911308288574219
0.6118160247802734,0.5911308288574219
0.6023511886596680,0.5938070297241210
0.6023511886596680,0.5938070297241210
0.6050868988037109,0.5851335525512695
0.6050868988037109,0.5851335525512695
0.6125696182250976,0.5991210937500000
0.6125696182250976,0.5991210937500000
0.6022436141967773,0.5872266769409179
0.6022436141967773,0.5872266769409179
0.6038755416870117,0.5889741897583007
0.6073442459106445,0.5889741897583007
0.6158432006835938,0.6031660079956055
0.6158432006835938,0.6031660079956055
0.6023323059082031,0.5951248168945312
0.6023323059082031,0.5951248168945312
0.6137552261352539,0.5971378326416016
0.6137552261352539,0.5971378326416016
0.6114732742309570,0.6058347702026367
0.6114732742309570,0.6058347702026367
0.6057781219482422,0.5928571701049804
0.6057781219482422,0.5928571701049804
0.6182487487792968,0.6068590164184570
0.6182487487792968,0.6068590164184570
0.6039579391479492,0.6006689071655273
0.6039579391479492,0.6006689071655273
0.6155164718627929,0.5991754531860352
0.6155164718627929,0.5991754531860352
0.6131206512451172,0.6098482131958007
0.6131206512451172,0.6098482131958007
0.6082769393920898,0.5973495483398438
0.6082769393920898,0.5973495483398438
0.6204694747924805,0.6135566711425781
0.6204694747924805,0.6135566711425781
0.6066324234008789,0.6041141510009765
0.6220882415771484,0.6041141510009765
0.6182916641235351,0.6046274185180663
0.6182916641235351,0.6046274185180663
0.6164257049560546,0.6152332305908202
0.6164257049560546,0.6152332305908202
0.6108610153198242,0.6045295715332031
0.6108610153198242,0.6045295715332031
0.6232069015502929,0.6169120788574218
0.6232069015502929,0.6169120788574218
0.6088336944580078,0.6088794708251953
0.6088336944580078,0.6088794708251953
0.6206039428710938,0.6081676483154297
0.6206039428710938,0.6081676483154297
0.6170333862304688,0.6172456741333008
0.6170333862304688,0.6172456741333008
0.6078947067260742,0.5946561813354492
0.6078947067260742,0.5946561813354492
0.6132122039794922,0.5936897277832031
0.6132122039794922,0.5936897277832031
0.5903846740722656,0.5686420440673828
0.5903846740722656,0.5686420440673828
0.5943357467651367,0.5575132369995117
0.5943357467651367,0.5575132369995117
0.5874916076660156,0.5579195022583008
0.5874916076660156,0.5579195022583008
0.5789039611816406,0.5405147552490234
0.5789039611816406,0.5405147552490234
0.5904315948486328,0.5522346496582031
0.5904315948486328,0.5522346496582031
0.5756504058837890,0.5449178695678710
0.5756504058837890,0.5449178695678710
0.5868232727050781,0.5427806854248046
0.5868232727050781,0.5427806854248046
0.5844989776611328,0.5529350280761719
0.5844989776611328,0.5529350280761719
0.5789337158203125,0.5395917892456055
0.5789337158203125,0.5395917892456055
0.5910421371459961,0.5551202774047851
0.5910421371459961,0.5551202774047851
0.5768262863159179,0.5452634811401367
0.5768262863159179,0.5452634811401367
0.5877519607543945,0.5447708129882812
0.5877519607543945,0.5447708129882812
0.5858631134033203,0.5548919677734375
0.5858631134033203,0.5548919677734375
0.5797777175903320,0.5431823730468750
0.5797777175903320,0.5431823730468750
0.5918701171874999,0.5551002502441406
0.5918701171874999,0.5551002502441406
0.5776456832885742,0.5470127105712891
0.5776456832885742,0.5470127105712891
0.5892745971679687,0.5468318939208984
0.5892745971679687,0.5468318939208984
0.5869136810302734,0.5590570449829101
0.5869136810302734,0.5590570449829101
0.5813529968261718,0.5447450637817383
0.5813529968261718,0.5447450637817383
0.5935523986816406,0.5593929290771484
0.5935523986816406,0.5593929290771484
0.5805570602416992,0.5529745101928710
0.5805570602416992,0.5529745101928710
0.5925807952880859,0.5563299179077148
0.5925807952880859,0.5563299179077148
0.5914535522460938,0.5672561645507812
0.5914535522460938,0.5672561645507812
0.5866270065307617,0.5561187744140624
0.5866270065307617,0.5561187744140624
0.5999713897705078,0.5715997695922851
0.5999713897705078,0.5715997695922851
0.5864913940429687,0.5667228698730469
0.5864913940429687,0.5667228698730469
0.5980236053466796,0.5652648925781250
0.5980236053466796,0.5652648925781250
0.5956890106201171,0.5756120681762695
0.5956890106201171,0.5756120681762695
0.5901649475097656,0.5619037628173827
0.5901649475097656,0.5619037628173827
0.6017950057983398,0.5767313003540039
0.6017950057983398,0.5767313003540039
0.5873863220214843,0.5665431976318359
0.5873863220214843,0.5665431976318359
0.5982135772705078,0.5654405593872071
0.5982135772705078,0.5654405593872071
0.5960317611694336,0.5754552841186523
0.5960317611694336,0.5754552841186523
0.5898599624633789,0.5636701583862305
0.5898599624633789,0.5636701583862305
0.6020902633666992,0.5757843017578125
0.6020902633666992,0.5757843017578125
0.5876901626586913,0.5682191848754883
0.5876901626586913,0.5682191848754883
0.5996870040893555,0.5682947158813476
0.5996870040893555,0.5682947158813476
0.5976339340209961,0.5811962127685547
0.5976339340209961,0.5811962127685547
0.5922054290771485,0.5671817779541015
0.5922054290771485,0.5671817779541015
0.6048751831054687,0.5819721221923828
0.6048751831054687,0.5819721221923828
0.5917076110839844,0.5754987716674804
0.5917076110839844,0.5754987716674804
0.6034034729003906,0.5781629562377929
0.6034034729003906,0.5781629562377929
0.6019340515136719,0.5882995605468749
0.6019340515136719,0.5882995605468749
0.5964368820190430,0.5763856887817382
0.5964368820190430,0.5763856887817382
0.6099197387695312,0.5914524078369140
0.6099197387695312,0.5914524078369140
0.5963127136230468,0.5868999481201171
0.5963127136230468,0.5868999481201171
0.6081167221069336,0.5858699798583984
0.6081167221069336,0.5858699798583984
0.6066312789916992,0.5975240707397461
0.6066312789916992,0.5975240707397461
0.6015100479125977,0.5852760314941406
0.6015100479125977,0.5852760314941406
0.6141357421875000,0.6017206192016601
0.6141357421875000,0.6017206192016601
0.6005847930908202,0.5933526992797852
0.6005847930908202,0.5933526992797852
0.6119419097900390,0.5935878753662109
0.6119419097900390,0.5935878753662109
0.6105651855468750,0.6049386978149414
0.6105651855468750,0.6049386978149414
0.6048934936523437,0.5941017150878906
0.6048934936523437,0.5941017150878906
0.6175157546997070,0.6066947937011719
0.6175157546997070,0.6066947937011719
0.6037673950195312,0.5996578216552734
0.6037673950195312,0.5996578216552734
0.6152492523193359,0.5995170593261718
0.6152492523193359,0.5995170593261718
0.6133741378784180,0.6123006820678710
0.6133741378784180,0.6123006820678710
0.6074804306030274,0.5974651336669922
0.6074804306030274,0.5974651336669922
0.6196249008178710,0.6114744186401367
0.6196249008178710,0.6114744186401367
0.6060905456542969,0.6039430618286132
0.6060905456542969,0.6039430618286132
0.6170431137084961,0.6050897598266601
0.6170431137084961,0.6050897598266601
0.6150415420532226,0.6139291763305664
0.6150415420532226,0.6139291763305664
0.6089647293090820,0.6004932403564452
0.6089647293090820,0.6004932403564452
0.6213827133178711,0.6141151428222656
0.6213827133178711,0.6141151428222656
0.6073099136352539,0.6084171295166015
0.6073099136352539,0.6084171295166015
0.6184169769287109,0.6061311721801758
0.6184169769287109,0.6061311721801758
0.6161544799804687,0.6168657302856445
0.6161544799804687,0.6168657302856445
0.6107070922851562,0.6037239074707031
0.6107070922851562,0.6037239074707031
0.6229242324829102,0.6191963195800781
0.6229242324829102,0.6191963195800781
0.6090677261352538,0.6103185653686524
0.6090677261352538,0.6103185653686524
0.6201839447021484,0.6097000122070312
0.6201839447021484,0.6097000122070312
0.6183986663818359,0.6205232620239257
0.6183986663818359,0.6205232620239257
0.6122840881347656,0.6088062286376953
0.6122840881347656,0.6088062286376953
0.6243953704833984,0.6201438903808594
0.6243953704833984,0.6201438903808594
0.6090951919555664,0.6103128433227539
0.6090951919555664,0.6103128433227539
0.6178241729736328,0.6027986526489257
0.6178241729736328,0.6027986526489257
0.6096714019775390,0.6016908645629883
0.6096714019775390,0.6016908645629883
0.5945783615112304,0.5688566207885742
0.5945783615112304,0.5688566207885742
0.5988704681396484,0.5680910110473633
0.5988704681396484,0.5680910110473633
0.5795648574829101,0.5514879226684570
0.5795648574829101,0.5514879226684570
0.5878011703491210,0.5472799301147461
0.5878011703491210,0.5472799301147461
0.5843925476074219,0.5538047790527344
0.5843925476074219,0.5538047790527344
0.5774768829345703,0.5394744873046875
0.5774768829345703,0.5394744873046875
0.5901414871215820,0.5527130126953125
0.5901414871215820,0.5527130126953125
0.5760017395019531,0.5470087051391601
0.5760017395019531,0.5470087051391601
0.5871208190917968,0.5445728302001953
0.5871208190917968,0.5445728302001953
0.5851947784423828,0.5552730560302734
0.5851947784423828,0.5552730560302734
0.5792501449584960,0.5416900634765625
0.5792501449584960,0.5416900634765625
0.5914684295654297,0.5568752288818359
0.5914684295654297,0.5568752288818359
0.5772399902343750,0.5478120803833008
0.5772399902343750,0.5478120803833008
0.5880220413208007,0.5467523574829102
0.5880220413208007,0.5467523574829102
0.5866292953491211,0.5571922302246094
0.5866292953491211,0.5571922302246094
0.5802635192871094,0.5455610275268554
0.5927907943725585,0.5576911926269531
0.5927907943725585,0.5576911926269531
0.5786670684814453,0.5509391784667969
0.5786670684814453,0.5509391784667969
0.5903778076171875,0.5508510589599609
0.5903778076171875,0.5508510589599609
0.5888986587524414,0.5644975662231445
0.5888986587524414,0.5644975662231445
0.5834993362426758,0.5512870788574219
0.5834993362426758,0.5512870788574219
0.5968854904174804,0.5672006607055664
0.5968854904174804,0.5672006607055664
0.5844732284545898,0.5627099990844726
0.5844732284545898,0.5627099990844726
0.5968030929565430,0.5660945892333984
0.5968030929565430,0.5660945892333984
0.5960409164428710,0.5772073745727538
0.5960409164428710,0.5772073745727538
0.5905265808105469,0.5651870727539062
0.5905265808105469,0.5651870727539062
0.6037147521972656,0.5795551300048828
0.6037147521972656,0.5795551300048828
0.5895092010498046,0.5742164611816406
0.5895092010498046,0.5742164611816406
0.6003942489624023,0.5707866668701171
0.6003942489624023,0.5707866668701171
0.5979309082031250,0.5805519104003906
0.5979309082031250,0.5805519104003906
0.5915342330932617,0.5661586761474610
0.5915342330932617,0.5661586761474610
0.6034830093383788,0.5809204101562500
0.6034830093383788,0.5809204101562500
0.5891069412231446,0.5716661453247071
0.5891069412231446,0.5716661453247071
0.5999845504760742,0.5703128814697266
0.5999845504760742,0.5703128814697266
0.5983371734619141,0.5809341430664062
0.5983371734619141,0.5809341430664062
0.5919553756713867,0.5693120956420898
0.5919553756713867,0.5693120956420898
0.6045066833496093,0.5816093444824219
0.6045066833496093,0.5816093444824219
0.5903961181640625,0.5751806259155273
0.5903961181640625,0.5751806259155273
0.6022384643554687,0.5748401641845703
0.6022384643554687,0.5748401641845703
0.6007083892822266,0.5881908416748046
0.6007083892822266,0.5881908416748046
0.5948993682861328,0.5739818572998047
0.5948993682861328,0.5739818572998047
0.6078369140625000,0.5886325836181641
0.6078369140625000,0.5886325836181641
0.5946109771728515,0.5828258514404296
0.5946109771728515,0.5828258514404296
0.6060647964477539,0.5846706390380859
0.6060647964477539,0.5846706390380859
0.6049793243408202,0.5948169708251952
0.6049793243408202,0.5948169708251952
0.5988464355468750,0.5824550628662110
0.5988464355468750,0.5824550628662110
0.6122783660888672,0.5971532821655273
0.6122783660888672,0.5971532821655273
0.5986352920532226,0.5928514480590820
0.5986352920532226,0.5928514480590820
0.6101154327392578,0.5907314300537109
0.6101154327392578,0.5907314300537109
0.6143646240234375,0.5967830657958985
0.6143646240234375,0.5967830657958985
0.6161413192749023,0.6006700515747070
0.6154935836791992,0.6006700515747070
0.6076234817504883,0.5916635513305664
0.6076234817504883,0.5916635513305664
0.6140802383422851,0.6057346343994140
0.6140802383422851,0.6057346343994140
0.6039630889892578,0.5930912017822265
0.6039630889892578,0.5930912017822265
0.6166700363159180,0.6020931243896485
0.6166700363159180,0.6020931243896485
0.6071004867553711,0.6052265167236328
0.6181200027465820,0.6052265167236328
0.6088886260986328,0.5951929092407227
0.6088886260986328,0.5951929092407227
0.6166316986083984,0.6083450317382812
0.6166316986083984,0.6083450317382812
0.6057306289672851,0.5968500137329101
0.6057306289672851,0.5968500137329101
0.6181531906127929,0.6048706054687499
0.6181531906127929,0.6048706054687499
0.6075187683105469,0.6072698593139648
0.6075187683105469,0.6072698593139648
0.6106269836425781,0.5965387344360351
0.6106269836425781,0.5965387344360351
0.6177892684936523,0.6111745834350586
0.6177892684936523,0.6111745834350586
0.6067674636840820,0.5992034912109375
0.6067674636840820,0.5992034912109375
0.6183975219726562,0.6070283889770508
0.6183975219726562,0.6070283889770508
0.6094991683959960,0.6092319488525391
0.6094991683959960,0.6092319488525391
0.6122234344482421,0.6006128311157226
0.6122234344482421,0.6006128311157226
0.6193977355957031,0.6149436950683593
0.6193977355957031,0.6149436950683593
0.6078277587890625,0.6029376983642578
0.6078277587890625,0.6029376983642578
0.6213071823120117,0.6107065200805664
0.6213071823120117,0.6107065200805664
0.6117982864379883,0.6147726058959960
0.6117982864379883,0.6147726058959960
0.6146089553833007,0.6059772491455078
0.6146089553833007,0.6059772491455078
0.6212539672851562,0.6199962615966796
0.6212539672851562,0.6199962615966796
0.6111213684082031,0.6072298049926758
0.6111213684082031,0.6072298049926758
0.6234329223632812,0.6152011871337890
0.6234329223632812,0.6152011871337890
0.6124534606933594,0.6145019531250000
0.6124534606933594,0.6145019531250000
0.6100770950317382,0.5955150604248046
0.6100770950317382,0.5955150604248046
0.6104427337646484,0.5926992416381835
0.6104427337646484,0.5926992416381835
0.5906026840209960,0.5648122787475586
0.5906026840209960,0.5648122787475586
0.5963087081909180,0.5611804962158203
0.5963087081909180,0.5611804962158203
0.5816602706909180,0.5563344955444336
0.5816602706909180,0.5563344955444336
0.5827005386352538,0.5422382354736328
0.5827005386352538,0.5422382354736328
0.5890153884887696,0.5551277160644531
0.5890153884887696,0.5551277160644531
0.5776657104492188,0.5423149108886719
0.5776657104492188,0.5423149108886719
0.5893873214721680,0.5500339508056641
0.5893873214721680,0.5500339508056641
0.5803642272949219,0.5520732879638671
0.5803642272949219,0.5520732879638671
0.5828001022338867,0.5432229995727539
0.5828001022338867,0.5432229995727539
0.5901975631713867,0.5574342727661132
0.5901975631713867,0.5574342727661132
0.5782722473144531,0.5449092864990234
0.5782722473144531,0.5449092864990234
0.5915725708007812,0.5521533966064452
0.5915725708007812,0.5521533966064452
0.5819635391235352,0.5556535720825195
0.5819635391235352,0.5556535720825195
0.5843467712402344,0.5459095001220703
0.5843467712402344,0.5459095001220703
0.5906759262084961,0.5595125198364258
0.5906759262084961,0.5595125198364258
0.5802509307861328,0.5466722488403321
0.5802509307861328,0.5466722488403321
0.5928783416748047,0.5554893493652343
0.5928783416748047,0.5554893493652343
0.5833683013916016,0.5591943740844726
0.5833683013916016,0.5591943740844726
0.5853738784790039,0.5499332427978515
0.5853738784790039,0.5499332427978515
0.5939220428466797,0.5645215988159179
0.5903388977050781,0.5645215988159179
0.5838598251342774,0.5552095413208008
0.5838598251342774,0.5552095413208008
0.5976476669311523,0.5656156539916992
0.5976476669311523,0.5656156539916992
0.5883132934570312,0.5709016799926757
0.5883132934570312,0.5709016799926757
0.5924800872802735,0.5625720977783203
0.5924800872802735,0.5625720977783203
0.6007696151733398,0.5787683486938476
0.6007696151733398,0.5787683486938476
0.5903102874755859,0.5680646896362305
0.5903102874755859,0.5680646896362305
0.6022012710571288,0.5754941940307617
0.6022012710571288,0.5754941940307617
0.5930025100708007,0.5771638870239257
0.5930025100708007,0.5771638870239257
0.5951208114624024,0.5673963546752929
0.5951208114624024,0.5673963546752929
0.6018299102783203,0.5804191589355469
0.6018299102783203,0.5804191589355469
0.5895910263061523,0.5673917770385742
0.5895910263061523,0.5673917770385742
0.6024164199829102,0.5737695693969727
0.6024164199829102,0.5737695693969727
0.5925064086914062,0.5770660400390625
0.5925064086914062,0.5770660400390625
0.5947998046874999,0.5675291061401367
0.5947998046874999,0.5675291061401367
0.6014179229736328,0.5810548782348632
0.6014179229736328,0.5810548782348632
0.5911371231079101,0.5687599182128906
0.5911371231079101,0.5687599182128906
0.6040002822875976,0.5780319213867188
0.6040002822875976,0.5780319213867188
0.5946853637695312,0.5820579528808594
0.5946853637695312,0.5820579528808594
0.5967939376831054,0.5731269836425781
0.5967939376831054,0.5731269836425781
0.6054296493530273,0.5874681472778320
0.6054296493530273,0.5874681472778320
0.5950109481811523,0.5774213790893554
0.6064252853393555,0.5774213790893554
0.6083221435546875,0.5869531631469727
0.6083221435546875,0.5869531631469727
0.5984258651733398,0.5909551620483399
0.5984258651733398,0.5909551620483399
0.6021383285522460,0.5817815780639648
0.6021383285522460,0.5817815780639648
0.6102550506591796,0.5975543975830078
0.6102550506591796,0.5975543975830078
0.5998455047607422,0.5867568969726562
0.5998455047607422,0.5867568969726562
0.6120517730712890,0.5954807281494140
0.6120517730712890,0.5954807281494140
0.6035608291625977,0.5987686157226563
0.6035608291625977,0.5987686157226563
0.6063880920410156,0.5906621932983398
0.6063880920410156,0.5906621932983398
0.6142696380615235,0.6056951522827149
0.6142696380615235,0.6056951522827149
0.6027420043945312,0.5940382003784179
0.6027420043945312,0.5940382003784179
0.6163965225219726,0.6017131805419922
0.6163965225219726,0.6017131805419922
0.6070644378662109,0.6061620712280273
0.6070644378662109,0.6061620712280273
0.6097394943237304,0.5971664428710938
0.6097394943237304,0.5971664428710938
0.6165252685546875,0.6114229202270508
0.6165252685546875,0.6114229202270508
0.6064710617065430,0.5992115020751952
0.6064710617065430,0.5992115020751952
0.6193891525268554,0.6081115722656250
0.6193891525268554,0.6081115722656250
0.6098533630371094,0.6119127273559570
0.6098533630371094,0.6119127273559570
0.6115219116210937,0.6019237518310546
0.6115219116210937,0.6019237518310546
0.6195922851562500,0.6150701522827148
0.6195922851562500,0.6150701522827148
0.6086076736450196,0.6039608001708984
0.6086076736450196,0.6039608001708984
0.6212413787841796,0.6116878509521484
0.6212413787841796,0.6116878509521484
0.6106126785278320,0.6146478652954102
0.6106126785278320,0.6146478652954102
0.6138536453247070,0.6043190002441406
0.6138536453247070,0.6043190002441406
0.6212596893310547,0.6190258026123047
0.6212596893310547,0.6190258026123047
0.6101961135864258,0.6076000213623046
0.6101961135864258,0.6076000213623046
0.6219972610473633,0.6150112152099609
0.6219972610473633,0.6150112152099609
0.6132413864135742,0.6174682617187500
0.6132413864135742,0.6174682617187500
0.6156206130981445,0.6086992263793946
0.6156206130981445,0.6086992263793946
0.6231164932250977,0.6228733062744141
0.6231164932250977,0.6228733062744141
0.6112981796264648,0.6109548568725586
0.6112981796264648,0.6109548568725586
0.6246820449829101,0.6180210113525391
0.6246820449829101,0.6180210113525391
0.6149837493896484,0.6217214584350585
0.6149837493896484,0.6217214584350585
0.6168657302856445,0.6110383987426757
0.6168657302856445,0.6110383987426757
0.6217666625976562,0.6202669143676758
0.6217666625976562,0.6202669143676758
0.6069734573364257,0.5976814270019531
0.6069734573364257,0.5976814270019531
0.6117828369140624,0.5896202087402344
0.6117828369140624,0.5896202087402344
0.5930889129638671,0.5761373519897460
0.5930889129638671,0.5761373519897460
0.5879138946533203,0.5544233322143555
0.5879138946533203,0.5544233322143555
0.5918815612792968,0.5605270385742187
0.5918815612792968,0.5605270385742187
0.5787408828735351,0.5456233978271484
0.5787408828735351,0.5456233978271484
0.5904504776000976,0.5520246505737304
0.5904504776000976,0.5520246505737304
0.5796461105346680,0.5539295196533203
0.5796461105346680,0.5539295196533203
0.5825460433959960,0.5431840896606445
0.5825460433959960,0.5431840896606445
0.5899755477905273,0.5577186584472656
0.5899755477905273,0.5577186584472656
0.5788227081298828,0.5457773208618164
0.5788227081298828,0.5457773208618164
0.5906724929809570,0.5531049728393554
0.5906724929809570,0.5531049728393554
0.5815126419067382,0.5552999496459960
0.5815126419067382,0.5552999496459960
0.5836572647094727,0.5460016250610351
0.5836572647094727,0.5460016250610351
0.5910667419433594,0.5600023269653320
0.5910667419433594,0.5600023269653320
0.5790327072143554,0.5473886489868164
0.5901014328002929,0.5473886489868164
0.5922861099243164,0.5539981842041015
0.5922861099243164,0.5539981842041015
0.5825008392333985,0.5578966140747070
0.5825008392333985,0.5578966140747070
0.5847558975219727,0.5482395172119140
0.5847558975219727,0.5482395172119140
0.5914758682250977,0.5622190475463867
0.5914758682250977,0.5622190475463867
0.5812191009521485,0.5502250671386718
0.5812191009521485,0.5502250671386718
0.5944370269775391,0.5597459793090820
0.5944370269775391,0.5597459793090820
0.5855913162231445,0.5651138305664062
0.5855913162231445,0.5651138305664062
0.5881313323974610,0.5570674896240234
0.5881313323974610,0.5570674896240234
0.5973907470703125,0.5724454879760742
0.5973907470703125,0.5724454879760742
0.5874280929565430,0.5636335372924804
0.5874280929565430,0.5636335372924804
0.6009681701660156,0.5730457305908203
0.6009681701660156,0.5730457305908203
0.5911685943603515,0.5771255493164062
0.5911685943603515,0.5771255493164062
0.5944049835205077,0.5668722152709961
0.5944049835205077,0.5668722152709961
0.6017766952514648,0.5814016342163085
0.6017766952514648,0.5814016342163085
0.5904424667358398,0.5691953659057617
0.5904424667358398,0.5691953659057617
0.6018344879150390,0.5755422592163085
0.6018344879150390,0.5755422592163085
0.5923501968383789,0.5771953582763671
0.5923501968383789,0.5771953582763671
0.5944959640502929,0.5674633026123047
0.5944959640502929,0.5674633026123047
0.6016336441040039,0.5810382843017577
0.6016336441040039,0.5810382843017577
0.5895647048950196,0.5687976837158203
0.5895647048950196,0.5687976837158203
0.6027717590332031,0.5756269454956054
0.6027717590332031,0.5756269454956054
0.5932685852050781,0.5799413681030273
0.5932685852050781,0.5799413681030273
0.5958246231079102,0.5710269927978515
0.5958246231079102,0.5710269927978515
0.6027723312377929,0.5850877761840820
0.6027723312377929,0.5850877761840820
0.5925687789916992,0.5732036590576172
0.5925687789916992,0.5732036590576172
0.6057271957397461,0.5826507568359375
0.6057271957397461,0.5826507568359375
0.5966629028320313,0.5868461608886718
0.5966629028320313,0.5868461608886718
0.5986272811889648,0.5779981613159180
0.5986272811889648,0.5779981613159180
0.6073345184326172,0.5922163009643554
0.6073345184326172,0.5922163009643554
0.5966629028320313,0.5821660995483399
0.5966629028320313,0.5821660995483399
0.6099821090698242,0.5912298202514649
0.5982913970947266,0.5819938659667968
0.6000303268432617,0.5949789047241211
0.6112564086914062,0.5949789047241211
0.6034372329711913,0.5852388381958008
0.6034372329711913,0.5852388381958008
0.6114292144775391,0.6008714675903321
0.6114292144775391,0.6008714675903321
0.6007730484008789,0.5900516510009766
0.6121192932128906,0.5900516510009766
0.6130336761474610,0.5983726501464843
0.6130336761474610,0.5983726501464843
0.6045530319213867,0.6016765594482422
0.6045530319213867,0.6016765594482422
0.6072727203369140,0.5935214996337891
0.6072727203369140,0.5935214996337891
0.6151931762695312,0.6087587356567382
0.6151931762695312,0.6087587356567382
0.6035722732543946,0.5970439910888672
0.6035722732543946,0.5970439910888672
0.6172456741333008,0.6044672012329101
0.6172456741333008,0.6044672012329101
0.6078872680664062,0.6088966369628906
0.6078872680664062,0.6088966369628906
0.6104049682617188,0.5995668411254883
0.6104049682617188,0.5995668411254883
0.6171506881713867,0.6133930206298828
0.6171506881713867,0.6133930206298828
0.6066232681274414,0.6006963729858398
0.6066232681274414,0.6006963729858398
0.6194011688232421,0.6089378356933594
0.6194011688232421,0.6089378356933594
0.6096227645874023,0.6127458572387695
0.6096227645874023,0.6127458572387695
0.6110383987426757,0.6023340225219727
0.6110383987426757,0.6023340225219727
0.6192014694213867,0.6154272079467773
0.6192014694213867,0.6154272079467773
0.6081802368164062,0.6044523239135742
0.6081802368164062,0.6044523239135742
0.6208534240722656,0.6121770858764648
0.6208534240722656,0.6121770858764648
0.6104616165161133,0.6153207778930664
0.6214748382568359,0.6153207778930664
0.6135320663452148,0.6049501419067382
0.6135320663452148,0.6049501419067382
0.6211183547973632,0.6199745178222656
0.6211183547973632,0.6199745178222656
0.6101446151733398,0.6087312698364258
0.6101446151733398,0.6087312698364258
0.6220178604125977,0.6159942626953124
0.6220178604125977,0.6159942626953124
0.6131950378417969,0.6186023712158203
0.6131950378417969,0.6186023712158203
0.6154678344726562,0.6091512680053711
0.6154678344726562,0.6091512680053711
0.6220304489135742,0.6208299636840821
0.6220304489135742,0.6208299636840821
0.6072315216064453,0.6025119781494140
0.6072315216064453,0.6025119781494140
0.6147085189819336,0.5958738327026367
0.6147085189819336,0.5958738327026367
0.5963155746459960,0.5833831787109375
0.5963155746459960,0.5833831787109375
0.5910192489624023,0.5601356506347656
0.5910192489624023,0.5601356506347656
0.5926849365234375,0.5647167205810547
0.5864770889282226,0.5647167205810547
0.5791969299316406,0.5469491958618163
0.5791969299316406,0.5469491958618163
0.5906255722045898,0.5526958465576172
0.5906255722045898,0.5526958465576172
0.5803585052490234,0.5548204421997071
0.5803585052490234,0.5548204421997071
0.5815881729125977,0.5443256378173827
0.5815881729125977,0.5443256378173827
0.5894840240478515,0.5571247100830078
0.5894840240478515,0.5571247100830078
0.5782997131347656,0.5457647323608398
0.5782997131347656,0.5457647323608398
0.5909786224365234,0.5536005020141601
0.5909786224365234,0.5536005020141601
0.5803533554077148,0.5561262130737304
0.5803533554077148,0.5561262130737304
0.5831766128540039,0.5452320098876953
0.5831766128540039,0.5452320098876953
0.5906410217285156,0.5595582962036133
0.5906410217285156,0.5595582962036133
0.5792369842529297,0.5475809097290039
0.5792369842529297,0.5475809097290039
0.5909523010253906,0.5544736862182617
0.5909523010253906,0.5544736862182617
0.5817975997924805,0.5566972732543946
0.5817975997924805,0.5566972732543946
0.5840898513793945,0.5476037979125976
0.5840898513793945,0.5476037979125976
0.5915096282958984,0.5618453979492187
0.5915096282958984,0.5618453979492187
0.5797851562499999,0.5498428344726562
0.5797851562499999,0.5498428344726562
0.5930603027343749,0.5569450378417968
0.5930603027343749,0.5569450378417968
0.5839742660522461,0.5622413635253906
0.5839742660522461,0.5622413635253906
0.5868925094604492,0.5541137695312500
0.5868925094604492,0.5541137695312500
0.5946172714233399,0.5699501037597656
0.5946172714233399,0.5699501037597656
0.5850934982299805,0.5593746185302734
0.5850934982299805,0.5593746185302734
0.5988269805908203,0.5698654174804687
0.5988269805908203,0.5698654174804687
0.5900945663452148,0.5752395629882813
0.5900945663452148,0.5752395629882813
0.5924102783203125,0.5662668228149413
0.5924102783203125,0.5662668228149413
0.6009555816650390,0.5797708511352538
0.6009555816650390,0.5797708511352538
0.5899166107177735,0.5688234329223633
0.5899166107177735,0.5688234329223633
0.6024616241455077,0.5760841369628906
0.6024616241455077,0.5760841369628906
0.5916978836059570,0.5786722183227538
0.5916978836059570,0.5786722183227538
0.5943489074707031,0.5674421310424804
0.5943489074707031,0.5674421310424804
0.6013996124267578,0.5816093444824219
0.6013996124267578,0.5816093444824219
0.5901454925537110,0.5697933197021484
0.5901454925537110,0.5697933197021484
0.6018711090087890,0.5767158508300781
0.6018711090087890,0.5767158508300781
0.5928909301757812,0.5791831970214844
0.5928909301757812,0.5791831970214844
0.5952369689941406,0.5704994201660156
0.5952369689941406,0.5704994201660156
0.6030275344848632,0.5849109649658203
0.6030275344848632,0.5849109649658203
0.5911302566528320,0.5734600067138672
0.5911302566528320,0.5734600067138672
0.6048511505126953,0.5807006835937499
0.6048511505126953,0.5807006835937499
0.5953462600708007,0.5855489730834961
0.5953462600708007,0.5855489730834961
0.5982244491577148,0.5769950866699218
0.5982244491577148,0.5769950866699218
0.6052665710449219,0.5911348342895507
0.6052665710449219,0.5911348342895507
0.5950979232788086,0.5790555953979492
0.5950979232788086,0.5790555953979492
0.6082202911376953,0.5881072998046875
0.6082202911376953,0.5881072998046875
0.5988515853881836,0.5920137405395508
0.5988515853881836,0.5920137405395508
0.6005825042724610,0.5826644897460938
0.6005825042724610,0.5826644897460938
0.6090013504028320,0.5961198806762695
0.6090013504028320,0.5961198806762695
0.5980808258056640,0.5856834411621094
0.5980808258056640,0.5856834411621094
0.6110670089721679,0.5939437866210937
0.6110670089721679,0.5939437866210937
0.6008188247680664,0.5971910476684570
0.6008188247680664,0.5971910476684570
0.6039115905761718,0.5869886398315429
0.6039115905761718,0.5869886398315429
0.6118423461914062,0.6026098251342773
0.6118423461914062,0.6026098251342773
0.6010877609252929,0.5916486740112304
0.6010877609252929,0.5916486740112304
0.6134828567504883,0.5998615264892578
0.6134828567504883,0.5998615264892578
0.6049369812011719,0.6033742904663085
0.6049369812011719,0.6033742904663085
0.6078237533569336,0.5953971862792968
0.6078237533569336,0.5953971862792968
0.6158746719360352,0.6107769012451172
0.6158746719360352,0.6107769012451172
0.6043258666992187,0.5993803024291992
0.6043258666992187,0.5993803024291992
0.6182601928710937,0.6068281173706055
0.6182601928710937,0.6068281173706055
0.6090196609497071,0.6116718292236328
0.6090196609497071,0.6116718292236328
0.6116157531738281,0.6026063919067383
0.6116157531738281,0.6026063919067383
0.6185194015502929,0.6167884826660156
0.6185194015502929,0.6167884826660156
0.6081624984741211,0.6045438766479492
0.6081624984741211,0.6045438766479492
0.6210554122924804,0.6133478164672851
0.6210554122924804,0.6133478164672851
0.6116970062255859,0.6173160552978515
0.6116970062255859,0.6173160552978515
0.6132030487060547,0.6072395324707031
0.6132030487060547,0.6072395324707031
0.6214456558227539,0.6202686309814452
0.6214456558227539,0.6202686309814452
0.6104055404663086,0.6092279434204101
0.6104055404663086,0.6092279434204101
0.6229419708251953,0.6168920516967773
0.6229419708251953,0.6168920516967773
0.6125181198120117,0.6200443267822265
0.6125181198120117,0.6200443267822265
0.6153957366943359,0.6092422485351562
0.6153957366943359,0.6092422485351562
0.6228452682495117,0.6240074157714843
0.6228452682495117,0.6240074157714843
0.6116455078124999,0.6119447708129883
0.6116455078124999,0.6119447708129883
0.6227851867675781,0.6171260833740234
0.6227851867675781,0.6171260833740234
0.6114641189575195,0.6141592025756836
0.6114641189575195,0.6141592025756836
0.6085802078247070,0.5935409545898437
0.6085802078247070,0.5935409545898437
0.6076932907104492,0.5909225463867187
0.6076932907104492,0.5909225463867187
0.5874217987060547,0.5640380859374999
0.5874217987060547,0.5640380859374999
0.5951717376708984,0.5605613708496093
0.5951717376708984,0.5605613708496093
0.5820590972900390,0.5586919784545898
0.5820590972900390,0.5586919784545898
0.5825620651245117,0.5460788726806640
0.5825620651245117,0.5460788726806640
0.5885381698608398,0.5580865859985351
0.5885381698608398,0.5580865859985351
0.5775758743286132,0.5445951461791992
0.5775758743286132,0.5445951461791992
0.5902250289916992,0.5525711059570312
0.5902250289916992,0.5525711059570312
0.5804100036621094,0.5557416915893555
0.5804100036621094,0.5557416915893555
0.5818250656127929,0.5452909469604492
0.5818250656127929,0.5452909469604492
0.5897895812988281,0.5579463958740234
0.5897895812988281,0.5579463958740234
0.5782962799072265,0.5466470718383789
0.5782962799072265,0.5466470718383789
0.5909282684326171,0.5540760040283202
0.5909282684326171,0.5540760040283202
0.5802852630615234,0.5565410614013672
0.5802852630615234,0.5565410614013672
0.5831336975097656,0.5453853607177734
0.5831336975097656,0.5453853607177734
0.5904470443725586,0.5598827362060547
0.5904470443725586,0.5598827362060547
0.5790029525756836,0.5478263854980469
0.5901414871215820,0.5478263854980469
0.5908132553100586,0.5550201416015624
0.5908132553100586,0.5550201416015624
0.5818971633911133,0.5574331283569336
0.5818971633911133,0.5574331283569336
0.5842226028442382,0.5488803863525390
0.5842226028442382,0.5488803863525390
0.5919645309448242,0.5640563964843750
0.5919645309448242,0.5640563964843750
0.5806200027465820,0.5531450271606445
0.5806200027465820,0.5531450271606445
0.5947036743164062,0.5614173889160156
0.5947036743164062,0.5614173889160156
0.5860902786254882,0.5675485610961913
0.5860902786254882,0.5675485610961913
0.5893072128295899,0.5597219467163086
0.5893072128295899,0.5597219467163086
0.5968437194824219,0.5750844955444335
0.5968437194824219,0.5750844955444335
0.5868844985961914,0.5633874893188476
0.5868844985961914,0.5633874893188476
0.5999193191528320,0.5723836898803710
0.5999193191528320,0.5723836898803710
0.5903228759765625,0.5761470794677734
0.5903228759765625,0.5761470794677734
0.5917900085449218,0.5654691696166992
0.5917900085449218,0.5654691696166992
0.5995697021484375,0.5778985977172851
0.5995697021484375,0.5778985977172851
0.5881381988525390,0.5661998748779297
0.5881381988525390,0.5661998748779297
0.6005733489990234,0.5733341217041016
0.6005733489990234,0.5733341217041016
0.5897907257080078,0.5760852813720703
0.5897907257080078,0.5760852813720703
0.5926746368408203,0.5651613235473633
0.5926746368408203,0.5651613235473633
0.6002180099487304,0.5800558090209961
0.6002180099487304,0.5800558090209961
0.5891687393188476,0.5690156936645507
0.5891687393188476,0.5690156936645507
0.6013080596923828,0.5764892578124999
0.6013080596923828,0.5764892578124999
0.5925573348999024,0.5796581268310547
0.5925573348999024,0.5796581268310547
0.5955070495605469,0.5717090606689453
0.5955070495605469,0.5717090606689453
0.6033468246459961,0.5867946624755859
0.6033468246459961,0.5867946624755859
0.5919525146484375,0.5757774353027344
0.5919525146484375,0.5757774353027344
0.5942150115966797,0.5836486816406250
0.5942150115966797,0.5748527526855468
0.6079982757568360,0.5888832092285156
0.6074552536010742,0.5888832092285156
0.5995737075805664,0.5804958343505859
0.5995737075805664,0.5804958343505859
0.6067394256591797,0.5948427200317382
0.6067394256591797,0.5948427200317382
0.5966657638549805,0.5828350067138671
0.5966657638549805,0.5828350067138671
0.6096914291381835,0.5918678283691406
0.6096914291381835,0.5918678283691406
0.6003026962280273,0.5958400726318359
0.6003026962280273,0.5958400726318359
0.6020868301391601,0.5863574981689453
0.6020868301391601,0.5863574981689453
0.6104948043823242,0.5998260498046875
0.6104948043823242,0.5998260498046875
0.5997138977050781,0.5893598556518554
0.5997138977050781,0.5893598556518554
0.6126554489135742,0.5978811264038085
0.6126554489135742,0.5978811264038085
0.6022184371948242,0.6009567260742187
0.6022184371948242,0.6009567260742187
0.6055549621582031,0.5907566070556640
0.6055549621582031,0.5907566070556640
0.6134353637695312,0.6063755035400390
0.6134353637695312,0.6063755035400390
0.6025606155395508,0.5951047897338867
0.6025606155395508,0.5951047897338867
0.6143136978149414,0.6028432846069336
0.6143136978149414,0.6028432846069336
0.6057157516479492,0.6054044723510742
0.6057157516479492,0.6054044723510742
0.6082780838012695,0.5971544265747070
0.6082780838012695,0.5971544265747070
0.6161270141601562,0.6119178771972656
0.6161270141601562,0.6119178771972656
0.6040575027465820,0.5996904373168945
0.6040575027465820,0.5996904373168945
0.6177074432373046,0.6064310073852539
0.6177074432373046,0.6064310073852539
0.6080371856689453,0.6109519958496094
0.6080371856689453,0.6109519958496094
0.6105903625488281,0.6014488220214843
0.6105903625488281,0.6014488220214843
0.6172216415405273,0.6152898788452148
0.6172216415405273,0.6152898788452148
0.6068092346191406,0.6025897979736328
0.6182510375976562,0.6025897979736328
0.6195848464965820,0.6114091873168945
0.6195848464965820,0.6114091873168945
0.6102052688598633,0.6152303695678710
0.6102052688598633,0.6152303695678710
0.6118755340576172,0.6053604125976563
0.6118755340576172,0.6053604125976563
0.6200317382812500,0.6185926437377930
0.6200317382812500,0.6185926437377930
0.6092119216918945,0.6080223083496094
0.6092119216918945,0.6080223083496094
0.6221540451049804,0.6161384582519531
0.6221540451049804,0.6161384582519531
0.6116397857666015,0.6193651199340821
0.6116397857666015,0.6193651199340821
0.6149402618408203,0.6091775894165039
0.6149402618408203,0.6091775894165039
0.6223966598510742,0.6241710662841796
0.6223966598510742,0.6241710662841796
0.6110858917236328,0.6118309020996093
0.6110858917236328,0.6118309020996093
0.6220230102539063,0.6161756515502930
0.6220230102539063,0.6161756515502930
0.6095752716064453,0.6107889175415039
0.6177824020385742,0.6107889175415039
0.6051675796508789,0.5874000549316406
0.6051675796508789,0.5874000549316406
0.6036403656005859,0.5843622207641601
0.5949954986572266,0.5843622207641601
0.5842208862304688,0.5588859558105469
0.5926568984985351,0.5588859558105469
0.5927461624145508,0.5572437286376953
0.5770586013793945,0.5572437286376953
0.5803619384765625,0.5565439224243164
0.5905094146728516,0.5565439224243164
0.5813947677612304,0.5445911407470703
0.5813947677612304,0.5445911407470703
0.5873983383178710,0.5568740844726562
0.5873983383178710,0.5568740844726562
0.5765064239501952,0.5433174133300781
0.5765064239501952,0.5433174133300781
0.5891063690185546,0.5515045166015625
0.5891063690185546,0.5515045166015625
0.5792581558227539,0.5543415069580078
0.5792581558227539,0.5543415069580078
0.5807109832763672,0.5440961837768554
0.5807109832763672,0.5440961837768554
0.5886337280273437,0.5568014144897461
0.5886337280273437,0.5568014144897461
0.5773509979248047,0.5453332901000977
0.5773509979248047,0.5453332901000977
0.5898519515991211,0.5530740737915039
0.5898519515991211,0.5530740737915039
0.5792964935302735,0.5554103851318359
0.5792964935302735,0.5554103851318359
0.5820888519287110,0.5444040298461914
0.5820888519287110,0.5444040298461914
0.5895006179809570,0.5590518951416016
0.5895006179809570,0.5590518951416016
0.5782012939453125,0.5469949722290038
0.5782012939453125,0.5469949722290038
0.5900779724121094,0.5544942855834961
0.5900779724121094,0.5544942855834961
0.5810091018676757,0.5570669174194336
0.5810091018676757,0.5570669174194336
0.5836458206176758,0.5489507675170898
0.5836458206176758,0.5489507675170898
0.5916664123535156,0.5643093109130859
0.5916664123535156,0.5643093109130859
0.5803808212280274,0.5534408569335937
0.5803808212280274,0.5534408569335937
0.5943878173828124,0.5619953155517577
0.5943878173828124,0.5619953155517577
0.5856428146362305,0.5676532745361328
0.5856428146362305,0.5676532745361328
0.5887710571289062,0.5591508865356445
0.5887710571289062,0.5591508865356445
0.5958137512207031,0.5734617233276367
0.5958137512207031,0.5734617233276367
0.5850614547729492,0.5602815628051757
0.5850614547729492,0.5602815628051757
0.5974004745483398,0.5679187774658203
0.5974004745483398,0.5679187774658203
0.5871036529541015,0.5699552536010742
0.5871036529541015,0.5699552536010742
0.5877336502075196,0.5578205108642578
0.5877336502075196,0.5578205108642578
0.5947694778442383,0.5689819335937499
0.5947694778442383,0.5689819335937499
0.5827863693237304,0.5562818527221679
0.5827863693237304,0.5562818527221679
0.5945966720581054,0.5625320434570312
0.5945966720581054,0.5625320434570312
0.5834861755371094,0.5643430709838867
0.5834861755371094,0.5643430709838867
0.5860834121704102,0.5527107238769531
0.5860834121704102,0.5527107238769531
0.5931713104248046,0.5670215606689453
0.5931713104248046,0.5670215606689453
0.5817495346069336,0.5549005508422852
0.5817495346069336,0.5549005508422852
0.5935707092285156,0.5618808746337890
0.5935707092285156,0.5618808746337890
0.5844732284545898,0.5640541076660156
0.5957302093505860,0.5640541076660156
0.5869857788085937,0.5555471420288086
0.5869857788085937,0.5555471420288086
0.5946161270141601,0.5702161788940430
0.5946161270141601,0.5702161788940430
0.5831920623779296,0.5590724945068359
0.5831920623779296,0.5590724945068359
0.5971212387084961,0.5672098159790039
0.5971212387084961,0.5672098159790039
0.5881113052368164,0.5729742050170898
0.5881113052368164,0.5729742050170898
0.5914712905883789,0.5654005050659180
0.5914712905883789,0.5654005050659180
0.5990936279296875,0.5809289932250976
0.5990936279296875,0.5809289932250976
0.5895029067993164,0.5699180603027344
0.5895029067993164,0.5699180603027344
0.6032444000244140,0.5804340362548828
0.6032444000244140,0.5804340362548828
0.5943632125854492,0.5850408554077148
0.5943632125854492,0.5850408554077148
0.5965187072753906,0.5760669708251953
0.5965187072753906,0.5760669708251953
0.6047864913940429,0.5894742965698242
0.6047864913940429,0.5894742965698242
0.5936988830566406,0.5782447814941406
0.5936988830566406,0.5782447814941406
0.6061225891113281,0.5857772827148438
0.6061225891113281,0.5857772827148438
0.5951951980590821,0.5871723175048827
0.5951951980590821,0.5871723175048827
0.5975641250610352,0.5752624511718750
0.5975641250610352,0.5752624511718750
0.6042846679687500,0.5889049530029297
0.6042846679687500,0.5889049530029297
0.5925001144409180,0.5758913040161132
0.5925001144409180,0.5758913040161132
0.6039007186889648,0.5826930999755859
0.6039007186889648,0.5826930999755859
0.5946041107177734,0.5842981338500977
0.5946041107177734,0.5842981338500977
0.5970451354980468,0.5756389617919921
0.5970451354980468,0.5756389617919921
0.6044643402099609,0.5901763916015624
0.6044643402099609,0.5901763916015624
0.5927930831909179,0.5783643722534180
0.5927930831909179,0.5783643722534180
0.6065935134887696,0.5862110137939452
0.6065935134887696,0.5862110137939452
0.5974720001220702,0.5913728713989258
0.5974720001220702,0.5913728713989258
0.6006305694580077,0.5830553054809570
0.6006305694580077,0.5830553054809570
0.6078586578369141,0.5983234405517578
0.6078586578369141,0.5983234405517578
0.5981809616088867,0.5866687774658202
0.5981809616088867,0.5866687774658202
0.6114189147949218,0.5966217041015625
0.6114189147949218,0.5966217041015625
0.6021200180053711,0.6007724761962890
0.6021200180053711,0.6007724761962890
0.6040969848632812,0.5907714843749999
0.6040969848632812,0.5907714843749999
0.6121221542358398,0.6035940170288085
0.6121221542358398,0.6035940170288085
0.6008308410644531,0.5921224594116211
0.6008308410644531,0.5921224594116211
0.6132934570312499,0.5997882843017578
0.6132934570312499,0.5997882843017578
0.6025892257690429,0.6023866653442382
0.6025892257690429,0.6023866653442382
0.6057374954223632,0.5917528152465820
0.6057374954223632,0.5917528152465820
0.6132431030273438,0.6067359924316406
0.6132431030273438,0.6067359924316406
0.6021114349365234,0.5949983596801758
0.6021114349365234,0.5949983596801758
0.6134273529052734,0.6004909515380860
0.6134273529052734,0.6004909515380860
0.6017395019531250,0.5965353012084961
0.6017395019531250,0.5965353012084961
0.5990787506103515,0.5772348403930664
0.5990787506103515,0.5772348403930664
0.5998014450073242,0.5784788131713867
0.5998014450073242,0.5784788131713867
0.5819532394409179,0.5554401397705078
0.5819532394409179,0.5554401397705078
0.5909643173217773,0.5546613693237304
0.5909643173217773,0.5546613693237304
0.5786619186401367,0.5537830352783203
0.5786619186401367,0.5537830352783203
0.5797897338867187,0.5417570114135742
0.5797897338867187,0.5417570114135742
0.5855192184448242,0.5536828994750976
0.5855192184448242,0.5536828994750976
0.5744922637939452,0.5396186828613281
0.5744922637939452,0.5396186828613281
0.5868638992309571,0.5477497100830078
0.5868638992309571,0.5477497100830078
0.5769189834594727,0.5500568389892578
0.5769189834594727,0.5500568389892578
0.5783958435058594,0.5396261215209961
0.5783958435058594,0.5396261215209961
0.5859741210937500,0.5519113540649414
0.5859741210937500,0.5519113540649414
0.5746541976928711,0.5404140472412109
0.5746541976928711,0.5404140472412109
0.5872192382812500,0.5484449386596679
0.5872192382812500,0.5484449386596679
0.5766265869140624,0.5506708145141601
0.5766265869140624,0.5506708145141601
0.5795768737792969,0.5398086547851563
0.5795768737792969,0.5398086547851563
0.5867843627929688,0.5547357559204101
0.5867843627929688,0.5547357559204101
0.5757093429565430,0.5427000045776367
0.5757093429565430,0.5427000045776367
0.5878120422363281,0.5507205963134766
0.5878120422363281,0.5507205963134766
0.5785800933837890,0.5528440475463867
0.5785800933837890,0.5528440475463867
0.5813146591186523,0.5447164535522461
0.5813146591186523,0.5447164535522461
0.5889701843261719,0.5598764419555664
0.5889701843261719,0.5598764419555664
0.5775621414184570,0.5481891632080078
0.5775621414184570,0.5481891632080078
0.5912927627563477,0.5559797286987305
0.5912927627563477,0.5559797286987305
0.5819475173950195,0.5603851318359375
0.5819475173950195,0.5603851318359375
0.5844881057739257,0.5507062911987305
0.5844881057739257,0.5507062911987305
0.5907829284667968,0.5642498016357421
0.5907829284667968,0.5642498016357421
0.5800844192504883,0.5507085800170898
0.5800844192504883,0.5507085800170898
0.5925945281982422,0.5592166900634765
0.5925945281982422,0.5592166900634765
0.5827108383178711,0.5621063232421875
0.5827108383178711,0.5621063232421875
0.5844142913818359,0.5517951965332031
0.5844142913818359,0.5517951965332031
0.5922924041748047,0.5649942398071289
0.5922924041748047,0.5649942398071289
0.5812911987304688,0.5542007446289062
0.5812911987304688,0.5542007446289062
0.5825855255126953,0.5535741806030273
0.5825855255126953,0.5545783996582031
0.5952615737915039,0.5690259933471680
0.5848983764648438,0.5690259933471680
0.5818479537963867,0.5632089614868164
0.5818479537963867,0.5632089614868164
0.5932296752929688,0.5640672683715821
0.5932296752929688,0.5640672683715821
0.5917917251586914,0.5738914489746093
0.5917917251586914,0.5738914489746093
0.5852943420410156,0.5602706909179688
0.5852943420410156,0.5602706909179688
0.5979698181152343,0.5733283996582031
0.5979698181152343,0.5733283996582031
0.5834255218505859,0.5674243927001953
0.5834255218505859,0.5674243927001953
0.5938716888427734,0.5634984970092773
0.5826627731323242,0.5634984970092773
0.5913505554199219,0.5731418609619140
0.5913505554199219,0.5731418609619140
0.5846071243286133,0.5583269119262695
0.5846071243286133,0.5583269119262695
0.5968431472778321,0.5729003906250000
0.5968431472778321,0.5729003906250000
0.5823389053344726,0.5644517898559570
0.5823389053344726,0.5644517898559570
0.5936033248901367,0.5633165359497070
0.5936033248901367,0.5633165359497070
0.5922180175781250,0.5748235702514648
0.5922180175781250,0.5748235702514648
0.5861577987670898,0.5639299392700196
0.5861577987670898,0.5639299392700196
0.5995708465576172,0.5775003433227539
0.5995708465576172,0.5775003433227539
0.5861268997192383,0.5727001190185547
0.5861268997192383,0.5727001190185547
0.5984722137451172,0.5732580184936523
0.5984722137451172,0.5732580184936523
0.5976419448852539,0.5874612808227538
0.5976419448852539,0.5874612808227538
0.5918569564819336,0.5735836029052734
0.5918569564819336,0.5735836029052734
0.6048414230346679,0.5879367828369141
0.6048414230346679,0.5879367828369141
0.5908887863159179,0.5808774948120117
0.5908887863159179,0.5808774948120117
0.6015844345092773,0.5801902770996094
0.6015844345092773,0.5801902770996094
0.5989414215087890,0.5873863220214843
0.5989414215087890,0.5873863220214843
0.5909276962280273,0.5711769104003906
0.5909276962280273,0.5711769104003906
0.6021760940551758,0.5816522598266601
0.6021760940551758,0.5816522598266601
0.5864953994750977,0.5737380981445312
0.5864953994750977,0.5737380981445312
0.5963991165161132,0.5687828063964844
0.5963991165161132,0.5687828063964844
0.5991634368896485,0.5721021652221679
0.5894720077514648,0.5762002944946288
0.5894720077514648,0.5762002944946288
0.5924365997314452,0.5675559997558594
0.5924365997314452,0.5675559997558594
0.5998226165771484,0.5831457138061523
0.5998226165771484,0.5831457138061523
0.5904373168945313,0.5721771240234375
0.5904373168945313,0.5721771240234375
0.6044952392578125,0.5841156005859375
0.6044952392578125,0.5841156005859375
0.5962165832519531,0.5902324676513672
0.5962165832519531,0.5902324676513672
0.5994598388671875,0.5828355789184571
0.5994598388671875,0.5828355789184571
0.6086631774902344,0.5980482101440430
0.6086631774902344,0.5980482101440430
0.5984664916992187,0.5881444931030273
0.5984664916992187,0.5881444931030273
0.6114000320434571,0.5967258453369141
0.6114000320434571,0.5967258453369141
0.6004863739013672,0.5978708267211914
0.6004863739013672,0.5978708267211914
0.6017892837524413,0.5826833724975585
0.6017892837524413,0.5826833724975585
0.6046766281127930,0.5885564804077148
0.6046766281127930,0.5885564804077148
0.5872850418090820,0.5640661239624023
0.5872850418090820,0.5640661239624023
0.5925498962402344,0.5595623016357422
0.5925498962402344,0.5595623016357422
0.5785154342651367,0.5522678375244140
0.5785154342651367,0.5522678375244140
0.5781137466430664,0.5381498336791992
0.5781137466430664,0.5381498336791992
0.5837636947631836,0.5492677688598633
0.5837636947631836,0.5492677688598633
0.5712919235229492,0.5356212615966797
0.5712919235229492,0.5356212615966797
0.5843467712402344,0.5424282073974609
0.5843467712402344,0.5424282073974609
0.5746690750122070,0.5461681365966796
0.5746690750122070,0.5461681365966796
0.5774351119995117,0.5373104095458984
0.5774351119995117,0.5373104095458984
0.5841419219970703,0.5512561798095703
0.5841419219970703,0.5512561798095703
0.5737386703491211,0.5380187988281250
0.5737386703491211,0.5380187988281250
0.5865011215209961,0.5472959518432617
0.5865011215209961,0.5472959518432617
0.5764812469482422,0.5495298385620117
0.5764812469482422,0.5495298385620117
0.5779523849487305,0.5388874053955078
0.5779523849487305,0.5388874053955078
0.5852130889892578,0.5506433486938477
0.5852130889892578,0.5506433486938477
0.5735057830810547,0.5381418228149414
0.5735057830810547,0.5381418228149414
0.5856931686401367,0.5455112457275391
0.5856931686401367,0.5455112457275391
0.5744447708129883,0.5467540740966796
0.5744447708129883,0.5467540740966796
0.5774208068847656,0.5354518890380859
0.5774208068847656,0.5354518890380859
0.5845046997070312,0.5503669738769531
0.5845046997070312,0.5503669738769531
0.5735767364501952,0.5386030197143554
0.5735767364501952,0.5386030197143554
0.5859031677246094,0.5478424072265625
0.5859031677246094,0.5478424072265625
0.5774436950683594,0.5511114120483398
0.5774436950683594,0.5511114120483398
0.5809410095214843,0.5442031860351563
0.5809410095214843,0.5442031860351563
0.5888872146606445,0.5602884292602539
0.5888872146606445,0.5602884292602539
0.5778482437133788,0.5489427566528320
0.5778482437133788,0.5489427566528320
0.5917259216308594,0.5572219848632812
0.5917259216308594,0.5572219848632812
0.5822862625122071,0.5614631652832031
0.5822862625122071,0.5614631652832031
0.5849733352661133,0.5519268035888671
0.5849733352661133,0.5519268035888671
0.5912492752075195,0.5654617309570312
0.5912492752075195,0.5654617309570312
0.5805753707885742,0.5514570236206054
0.5805753707885742,0.5514570236206054
0.5928514480590820,0.5602363586425781
0.5928514480590820,0.5602363586425781
0.5826879501342773,0.5625823974609375
0.5826879501342773,0.5625823974609375
0.5842712402343749,0.5517471313476562
0.5842712402343749,0.5517471313476562
0.5917253494262695,0.5640712738037109
0.5917253494262695,0.5640712738037109
0.5804918289184570,0.5524034500122070
0.5804918289184570,0.5524034500122070
0.5929830551147460,0.5604566574096680
0.5929830551147460,0.5604566574096680
0.5823446273803711,0.5628152847290039
0.5823446273803711,0.5628152847290039
0.5856021881103516,0.5521917343139648
0.5856021881103516,0.5521917343139648
0.5927742004394531,0.5677648544311523
0.5927742004394531,0.5677648544311523
0.5821929931640625,0.5564552307128906
0.5821929931640625,0.5564552307128906
0.5944118499755859,0.5652688980102539
0.5944118499755859,0.5652688980102539
0.5856731414794921,0.5679233551025390
0.5856731414794921,0.5679233551025390
0.5891052246093750,0.5605876922607421
0.5891052246093750,0.5605876922607421
0.5969038009643555,0.5762042999267578
0.5969038009643555,0.5762042999267578
0.5858488082885742,0.5651332855224609
0.5858488082885742,0.5651332855224609
0.5997459411621093,0.5736986160278320
0.5997459411621093,0.5736986160278320
0.5906192779541015,0.5785114288330078
0.5906192779541015,0.5785114288330078
0.5937309265136719,0.5699472427368164
0.5937309265136719,0.5699472427368164
0.6004657745361328,0.5842391967773437
0.6004657745361328,0.5842391967773437
0.5902851104736327,0.5712335586547851
0.5902851104736327,0.5712335586547851
0.6031379699707031,0.5810497283935546
0.6031379699707031,0.5810497283935546
0.5934986114501953,0.5839107513427734
0.5934986114501953,0.5839107513427734
0.5956872940063477,0.5746004104614257
0.5956872940063477,0.5746004104614257
0.6034864425659180,0.5878040313720703
0.6034864425659180,0.5878040313720703
0.5926082611083984,0.5768617630004883
0.5926082611083984,0.5768617630004883
0.6056402206420898,0.5860919952392578
0.6056402206420898,0.5860919952392578
0.5952266693115235,0.5884386062622070
0.5952266693115235,0.5884386062622070
0.5985734939575195,0.5778894424438477
0.5985734939575195,0.5778894424438477
0.6058101654052734,0.5929487228393554
0.6058101654052734,0.5929487228393554
0.5945943832397461,0.5805438995361328
0.5945943832397461,0.5805438995361328
0.6065048217773438,0.5885026931762695
0.6065048217773438,0.5885026931762695
0.5971292495727539,0.5897884368896484
0.5971292495727539,0.5897884368896484
0.5996561050415039,0.5809827804565429
0.5996561050415039,0.5809827804565429
0.6068052291870117,0.5953868865966797
0.6068052291870117,0.5953868865966797
0.5950441360473633,0.5826187133789062
0.5950441360473633,0.5826187133789062
0.6084966659545898,0.5904258728027344
0.6084966659545898,0.5904258728027344
0.5991600036621093,0.5947912216186523
0.5991600036621093,0.5947912216186523
0.6022624969482422,0.5861715316772461
0.6022624969482422,0.5861715316772461
0.6090917587280273,0.6010379791259766
0.6090917587280273,0.6010379791259766
0.5991891860961914,0.5884632110595703
0.5991891860961914,0.5884632110595703
0.6121942520141601,0.5988876342773437
0.6121942520141601,0.5988876342773437
0.6028427124023438,0.6022521972656250
0.6028427124023438,0.6022521972656250
0.6048431396484375,0.5919307708740235
0.6048431396484375,0.5919307708740235
0.6119453430175781,0.6034292221069336
0.6119453430175781,0.6034292221069336
0.5991628646850585,0.5874876022338867
0.5991628646850585,0.5874876022338867
0.6070976257324219,0.5861515045166016
0.6070976257324219,0.5861515045166016
0.5898845672607421,0.5755880355834960
0.5898845672607421,0.5755880355834960
0.5867248535156250,0.5527650833129882
0.5867248535156250,0.5527650833129882
0.5888717651367187,0.5593311309814453
0.5888717651367187,0.5593311309814453
0.5749809265136718,0.5420642852783203
0.5749809265136718,0.5420642852783203
0.5853412628173827,0.5471614837646485
0.5853412628173827,0.5471614837646485
0.5755622863769531,0.5474985122680663
0.5755622863769531,0.5474985122680663
0.5781772613525390,0.5386533737182617
0.5781772613525390,0.5386533737182617
0.5851495742797851,0.5529687881469726
0.5851495742797851,0.5529687881469726
0.5737215042114258,0.5407247543334961
0.5737215042114258,0.5407247543334961
0.5871643066406250,0.5484277725219726
0.5871643066406250,0.5484277725219726
0.5775278091430663,0.5522998809814453
0.5775278091430663,0.5522998809814453
0.5804397583007812,0.5430078506469727
0.5804397583007812,0.5430078506469727
0.5866762161254883,0.5563344955444336
0.5826370239257812,0.5563344955444336
0.5760646820068359,0.5424665451049805
0.5760646820068359,0.5424665451049805
0.5885152816772461,0.5516921997070312
0.5885152816772461,0.5516921997070312
0.5785486221313476,0.5538396835327148
0.5785486221313476,0.5538396835327148
0.5804334640502929,0.5439296722412109
0.5804334640502929,0.5439296722412109
0.5881559371948242,0.5571178436279297
0.5881559371948242,0.5571178436279297
0.5774116516113281,0.5467008590698242
0.5774116516113281,0.5467008590698242
0.5907611846923828,0.5571332931518554
0.5907611846923828,0.5571332931518554
0.5810131072998047,0.5609991073608398
0.5929401397705077,0.5609991073608398
0.5854328155517577,0.5523839950561523
0.5854328155517577,0.5523839950561523
0.5936136245727539,0.5699798583984375
0.5936136245727539,0.5699798583984375
0.5840217590332031,0.5603324890136718
0.5840217590332031,0.5603324890136718
0.5974863052368163,0.5717657089233398
0.5974863052368163,0.5717657089233398
0.5897512435913086,0.5763856887817382
0.5897512435913086,0.5763856887817382
0.5943998336791992,0.5716209411621094
0.5943998336791992,0.5716209411621094
0.6035007476806641,0.5901758193969726
0.6035007476806641,0.5901758193969726
0.5940238952636718,0.5813684463500977
0.5940238952636718,0.5813684463500977
0.5987411499023437,0.5867671966552734
0.6035436630249024,0.5867671966552734
0.6126136779785156,0.6047601699829102
0.6030355453491211,0.6047601699829102
0.5995370864868164,0.5980150222778320
0.5995370864868164,0.5980150222778320
0.6114395141601562,0.5983131408691406
0.6114395141601562,0.5983131408691406
0.6101955413818360,0.6097629547119140
0.6101955413818360,0.6097629547119140
0.6042423248291016,0.5983097076416015
0.6042423248291016,0.5983097076416015
0.6169000625610351,0.6107122421264648
0.6169000625610351,0.6107122421264648
0.6028163909912109,0.6038480758666992
0.6028163909912109,0.6038480758666992
0.6142913818359375,0.6032215118408203
0.6142913818359375,0.6032215118408203
0.6125690460205078,0.6157802581787110
0.6125690460205078,0.6157802581787110
0.6065666198730468,0.6012931823730469
0.6065666198730468,0.6012931823730469
0.6189519882202148,0.6156188964843750
0.6189519882202148,0.6156188964843750
0.6054834365844727,0.6088457107543945
0.6054834365844727,0.6088457107543945
0.6169406890869140,0.6101188659667969
0.6169406890869140,0.6101188659667969
0.6152795791625977,0.6199007034301758
0.6152795791625977,0.6199007034301758
0.6092502593994140,0.6069854736328125
0.6092502593994140,0.6069854736328125
0.6221580505371094,0.6211566925048828
0.6221580505371094,0.6211566925048828
0.6081607818603515,0.6158500671386719
0.6081607818603515,0.6158500671386719
0.6195619583129882,0.6138376235961914
0.6195619583129882,0.6138376235961914
0.6175764083862304,0.6248559951782227
0.6175764083862304,0.6248559951782227
0.6117748260498047,0.6113702774047851
0.6117748260498047,0.6113702774047851
0.6242963790893554,0.6269239425659180
0.6242963790893554,0.6269239425659180
0.6100473403930664,0.6179969787597656
0.6100473403930664,0.6179969787597656
0.6212659835815429,0.6172090530395508
0.6212659835815429,0.6172090530395508
0.6193857192993164,0.6277256011962891
0.6193857192993164,0.6277256011962891
0.6130926132202148,0.6158306121826171
0.6130926132202148,0.6158306121826171
0.6255020141601563,0.6276163101196289
0.6255020141601563,0.6276163101196289
0.6107276916503906,0.6196277618408202
0.6107276916503906,0.6196277618408202
0.6219194412231445,0.6180198669433593
0.6219194412231445,0.6180198669433593
0.6194938659667969,0.6293649673461914
0.6194938659667969,0.6293649673461914
0.6127590179443360,0.6134439468383789
0.6127590179443360,0.6134439468383789
0.6247964859008789,0.6263683319091796
0.6247964859008789,0.6263683319091796
0.6103815078735352,0.6181795120239257
0.6103815078735352,0.6181795120239257
0.6213569641113281,0.6187528610229492
0.6101778030395507,0.6187528610229492
0.6192420959472656,0.6275819778442383
0.6192420959472656,0.6275819778442383
0.6129123687744140,0.6141048431396484
0.6129123687744140,0.6141048431396484
0.6256416320800781,0.6277965545654297
0.6256416320800781,0.6277965545654297
0.6115236282348633,0.6223400115966796
0.6115236282348633,0.6223400115966796
0.6227880477905273,0.6200941085815429
0.6227880477905273,0.6200941085815429
0.6208917617797851,0.6306936264038085
0.6208917617797851,0.6306936264038085
0.6147766113281250,0.6171312332153320
0.6147766113281250,0.6171312332153320
0.6270097732543946,0.6321063995361328
0.6270097732543946,0.6321063995361328
0.6121770858764648,0.6214210510253906
0.6121770858764648,0.6214210510253906
0.6214576721191406,0.6167873382568360
0.6214576721191406,0.6167873382568360
0.6163181304931641,0.6196861267089844
0.6163181304931641,0.6196861267089844
0.6040964126586914,0.5953845977783203
0.6040964126586914,0.5953845977783203
0.6087501525878906,0.5924634933471680
0.6087501525878906,0.5924634933471680
0.5873193740844727,0.5720695495605469
0.5873193740844727,0.5720695495605469
0.5938350677490234,0.5627975463867188
0.5938350677490234,0.5627975463867188
0.5891481399536133,0.5705589294433594
0.5891481399536133,0.5705589294433594
0.5819463729858398,0.5536949157714843
0.5819463729858398,0.5536949157714843
0.5938894271850585,0.5671886444091797
0.5938894271850585,0.5671886444091797
0.5804512023925781,0.5602684020996094
0.5804512023925781,0.5602684020996094
0.5922300338745117,0.5624731063842773
0.5922300338745117,0.5624731063842773
0.5910106658935547,0.5731201171875000
0.5910106658935547,0.5731201171875000
0.5857641220092773,0.5614042282104492
0.5900859832763672,0.5614042282104492
0.5992395401000976,0.5767885208129883
0.5992395401000976,0.5767885208129883
0.5857320785522461,0.5725347518920898
0.5857320785522461,0.5725347518920898
