REDsignal,IRsignal
0.3723443984985351,0.2812128067016602
0.3723443984985351,0.2812128067016602
0.3671316146850586,0.2791128158569336
0.3671316146850586,0.2791128158569336
0.3717401504516601,0.2796289443969727
0.3681306838989258,0.2796289443969727
0.3719129562377930,0.2835302352905273
0.3719129562377930,0.2835302352905273
0.3706724166870117,0.2797399520874023
0.3706724166870117,0.2797399520874023
0.3749141693115234,0.2853424072265625
0.3749141693115234,0.2853424072265625
0.3708263397216797,0.2841310501098633
0.3708263397216797,0.2841310501098633
0.3757061004638672,0.2854448318481445
0.3757061004638672,0.2854448318481445
0.3763000488281250,0.2901403427124024
0.3763000488281250,0.2901403427124024
0.3752008438110351,0.2866905212402344
0.3752008438110351,0.2866905212402344
0.3800868988037109,0.2926946640014648
0.3800868988037109,0.2926946640014648
0.3759956359863281,0.2917076110839844
0.3759956359863281,0.2917076110839844
0.3808227539062500,0.2929990768432617
0.3808227539062500,0.2929990768432617
0.3812278747558593,0.2974885940551757
0.3812278747558593,0.2974885940551757
0.3801744461059570,0.2937412261962891
0.3801744461059570,0.2937412261962891
0.3846656799316406,0.2992916107177734
0.3846656799316406,0.2992916107177734
0.3800765991210938,0.2977998733520508
0.3800765991210938,0.2977998733520508
0.3842050552368164,0.2981592178344726
0.3842050552368164,0.2981592178344726
0.3844602584838867,0.3018505096435547
0.3844602584838867,0.3018505096435547
0.3826623916625976,0.2971458435058594
0.3826623916625976,0.2971458435058594
0.3864950180053711,0.3018138885498047
0.3864950180053711,0.3018138885498047
0.3812833786010742,0.2995559692382813
0.3812833786010742,0.2995559692382813
0.3852413177490234,0.2994518280029297
0.3852413177490234,0.2994518280029297
0.3851961135864257,0.3028667449951172
0.3851961135864257,0.3028667449951172
0.3831447601318359,0.2979721069335937
0.3831447601318359,0.2979721069335937
0.3868812561035156,0.3026939392089844
0.3868812561035156,0.3026939392089844
0.3822275161743164,0.3008789062500000
0.3822275161743164,0.3008789062500000
0.3861585617065429,0.3008588790893554
0.3861585617065429,0.3008588790893554
0.3863159179687500,0.3046045303344727
0.3863159179687500,0.3046045303344727
0.3842948913574218,0.2999725341796875
0.3842948913574218,0.2999725341796875
0.3887065887451172,0.3049867630004883
0.3887065887451172,0.3049867630004883
0.3840282440185547,0.3034709930419922
0.3907007217407226,0.3034709930419922
0.3880743026733398,0.3036792755126953
0.3880743026733398,0.3036792755126953
0.3882184982299804,0.3076354980468750
0.3882184982299804,0.3076354980468750
0.3865859985351562,0.3031620025634765
0.3865859985351562,0.3031620025634765
0.3909839630126953,0.3084594726562500
0.3909839630126953,0.3084594726562500
0.3865116119384766,0.3073945999145508
0.3865116119384766,0.3073945999145508
0.3907241821289062,0.3079370498657226
0.3907241821289062,0.3079370498657226
0.3916339874267578,0.3127178192138672
0.3916339874267578,0.3127178192138672
0.3902727127075195,0.3089801788330078
0.3902727127075195,0.3089801788330078
0.3951433181762695,0.3150232315063476
0.3951433181762695,0.3150232315063476
0.3907373428344726,0.3144990921020508
0.3907373428344726,0.3144990921020508
0.3955278396606445,0.3153362274169922
0.3955278396606445,0.3153362274169922
0.3963111877441406,0.3198366165161133
0.3963111877441406,0.3198366165161133
0.3943531036376953,0.3149499893188477
0.3943531036376953,0.3149499893188477
0.3962516784667969,0.3146266937255859
0.3962516784667969,0.3146266937255859
0.3850639343261719,0.3028753280639648
0.3850639343261719,0.3028753280639648
0.3821926116943359,0.2934047698974609
0.3821926116943359,0.2934047698974609
0.3779388427734375,0.2912635803222656
0.3779388427734375,0.2912635803222656
0.3726413726806641,0.2823657989501953
0.3726413726806641,0.2823657989501953
0.3749210357666016,0.2841476440429687
0.3749210357666016,0.2841476440429687
0.3684139251708984,0.2804340362548828
0.3684139251708984,0.2804340362548828
0.3709236145019531,0.2781034469604492
0.3709236145019531,0.2781034469604492
0.3699417114257812,0.2805799484252929
0.3699417114257812,0.2805799484252929
0.3672517776489257,0.2746107101440430
0.3672517776489257,0.2746107101440430
0.3711296081542969,0.2787895202636719
0.3711296081542969,0.2787895202636719
0.3659746170043945,0.2773338317871094
0.3659746170043945,0.2773338317871094
0.3695955276489258,0.2766597747802734
0.3695955276489258,0.2766597747802734
0.3700864791870117,0.2805393218994141
0.3700864791870117,0.2805393218994141
0.3680328369140625,0.2759216308593750
0.3680328369140625,0.2759216308593750
0.3727466583251953,0.2812631607055664
0.3727466583251953,0.2812631607055664
0.3681095123291016,0.2808111190795898
0.3681095123291016,0.2808111190795898
0.3726299285888672,0.2809541702270508
0.3726299285888672,0.2809541702270508
0.3736152648925781,0.2857360839843750
0.3736152648925781,0.2857360839843750
0.3720891952514648,0.2817798614501953
0.3720891952514648,0.2817798614501953
0.3769145965576172,0.2875614166259766
0.3769145965576172,0.2875614166259766
0.3728891372680664,0.2875494003295898
0.3728891372680664,0.2875494003295898
0.3772859573364258,0.2877685546875000
0.3772859573364258,0.2877685546875000
0.3783113479614258,0.2925619125366211
0.3783113479614258,0.2925619125366211
0.3763784408569336,0.2883161544799804
0.3763784408569336,0.2883161544799804
0.3815643310546875,0.2939546585083008
0.3815643310546875,0.2939546585083008
0.3771062850952148,0.2937938690185547
0.3771062850952148,0.2937938690185547
0.3813514709472656,0.2936365127563477
0.3813514709472656,0.2936365127563477
0.3819391250610352,0.2979698181152344
0.3819391250610352,0.2979698181152344
0.3800033569335937,0.2933063507080078
0.3800033569335937,0.2933063507080078
0.3846096038818359,0.2982891082763672
0.3846096038818359,0.2982891082763672
0.3797584533691406,0.2976408004760742
0.3797584533691406,0.2976408004760742
0.3833547592163086,0.2967967987060547
0.3833547592163086,0.2967967987060547
0.3840373992919922,0.3006837844848633
0.3840373992919922,0.3006837844848633
0.3816301345825195,0.2956089019775390
0.3816301345825195,0.2956089019775390
0.3860292434692383,0.3002449035644531
0.3860292434692383,0.3002449035644531
0.3807409286499023,0.2995531082153320
0.3807409286499023,0.2995531082153320
0.3846736907958984,0.2984476089477539
0.3846736907958984,0.2984476089477539
0.3850965499877930,0.3023735046386719
0.3858730316162109,0.3023735046386719
0.3827127456665039,0.2974691390991211
0.3827127456665039,0.2974691390991211
0.3871639251708984,0.3022081375122070
0.3871639251708984,0.3022081375122070
0.3824592590332031,0.3019941329956055
0.3824592590332031,0.3019941329956055
0.3865465164184570,0.3012474060058594
0.3865465164184570,0.3012474060058594
0.3873521804809570,0.3057723999023437
0.3873521804809570,0.3057723999023437
0.3851549148559570,0.3015460968017578
0.3879484176635742,0.3015460968017578
0.3904798507690430,0.3071542739868164
0.3904798507690430,0.3071542739868164
0.3862260818481445,0.3077688217163086
0.3930931091308594,0.3077688217163086
0.3906600952148437,0.3078872680664063
0.3906600952148437,0.3078872680664063
0.3918308258056640,0.3130165100097656
0.3918308258056640,0.3130165100097656
0.3902944564819336,0.3093647003173828
0.3902944564819336,0.3093647003173828
0.3956771850585937,0.3151262283325195
0.3956771850585937,0.3151262283325195
0.3914377212524414,0.3160131454467773
0.3914377212524414,0.3160131454467773
0.3955959320068359,0.3157476425170898
0.3955959320068359,0.3157476425170898
0.3970945358276367,0.3206205368041992
0.3970945358276367,0.3206205368041992
0.3948320388793945,0.3160943984985352
0.3948320388793945,0.3160943984985352
0.3992603302001953,0.3197164535522461
0.3992603302001953,0.3197164535522461
0.3903533935546875,0.3122142791748047
0.3903533935546875,0.3122142791748047
0.3870437622070312,0.2999084472656250
0.3870437622070312,0.2999084472656250
0.3808576583862305,0.2946899414062500
0.3808576583862305,0.2946899414062500
0.3736427307128906,0.2838781356811523
0.3733354568481445,0.2885124206542969
0.3733354568481445,0.2866699218750000
0.3709207534790039,0.2797897338867187
0.3709207534790039,0.2797897338867187
0.3722671508789062,0.2816740036010742
0.3722671508789062,0.2816740036010742
0.3660112380981445,0.2762598037719726
0.3660112380981445,0.2762598037719726
0.3694290161132812,0.2756155014038086
0.3694290161132812,0.2756155014038086
0.3661222457885742,0.2767976760864257
0.3661222457885742,0.2767976760864257
0.3657760620117188,0.2726428985595703
0.3657760620117188,0.2726428985595703
0.3684894561767578,0.2770008087158203
0.3684894561767578,0.2770008087158203
0.3637252807617187,0.2730640411376953
0.3637252807617187,0.2730640411376953
0.3682159423828125,0.2742736816406250
0.3682159423828125,0.2742736816406250
0.3661205291748047,0.2769361495971679
0.3661205291748047,0.2769361495971679
0.3663791656494140,0.2741003036499023
0.3663791656494140,0.2741003036499023
0.3700366973876953,0.2789600372314453
0.3700366973876953,0.2789600372314453
0.3658143997192383,0.2762941360473632
0.3658143997192383,0.2762941360473632
0.3712085723876953,0.2784679412841797
0.3666246414184570,0.2784679412841797
0.3695858001708984,0.2823223114013672
0.3695858001708984,0.2823223114013672
0.3704206466674805,0.2797542572021484
0.3704206466674805,0.2797542572021484
0.3745885848999023,0.2855913162231445
0.3745885848999023,0.2855913162231445
0.3708274841308594,0.2835702896118164
0.3708274841308594,0.2835702896118164
0.3763595581054687,0.2862625122070312
0.3763595581054687,0.2862625122070312
0.3748918533325195,0.2897174835205078
0.3748918533325195,0.2897174835205078
0.3755424499511719,0.2872117996215820
0.3755424499511719,0.2872117996215820
0.3795707702636719,0.2925825119018555
0.3795707702636719,0.2925825119018555
0.3752065658569336,0.2903886795043945
0.3752065658569336,0.2903886795043945
0.3802116394042969,0.2915370941162109
0.3802116394042969,0.2915370941162109
0.3781465530395507,0.2942853927612304
0.3781465530395507,0.2942853927612304
0.3782529830932617,0.2908046722412109
0.3782529830932617,0.2908046722412109
0.3815357208251953,0.2954589843750000
0.3815357208251953,0.2954589843750000
0.3764694213867187,0.2917871475219727
0.3764694213867187,0.2917871475219727
0.3810974121093750,0.2926723480224609
0.3810974121093750,0.2926723480224609
0.3788331985473632,0.2952381134033203
0.3788331985473632,0.2952381134033203
0.3786111831665039,0.2919530868530273
0.3786111831665039,0.2919530868530273
0.3820672988891601,0.2961524963378906
0.3820672988891601,0.2961524963378906
0.3772310256958007,0.2932125091552734
0.3772310256958007,0.2932125091552734
0.3821371078491211,0.2944192886352539
0.3821371078491211,0.2944192886352539
0.3802127838134766,0.2977180480957031
0.3802127838134766,0.2977180480957031
0.3802465438842773,0.2941217422485352
0.3802465438842773,0.2941217422485352
0.3839956283569336,0.2989139556884766
0.3839956283569336,0.2989139556884766
0.3793315887451172,0.2963699340820312
0.3793315887451172,0.2963699340820312
0.3842634201049804,0.2980596542358399
0.3842634201049804,0.2980596542358399
0.3826572418212891,0.3009630203247070
0.3826572418212891,0.3009630203247070
0.3826704025268555,0.2980001449584961
0.3826704025268555,0.2980001449584961
0.3867530822753906,0.3029657363891601
0.3867530822753906,0.3029657363891601
0.3821170806884766,0.3010202407836914
0.3821170806884766,0.3010202407836914
0.3871999740600586,0.3022041320800781
0.3871999740600586,0.3022041320800781
0.3858358383178711,0.3056344985961914
0.3858358383178711,0.3056344985961914
0.3860378265380859,0.3028049468994141
0.3860378265380859,0.3028049468994141
0.3899997711181640,0.3082706451416016
0.3899997711181640,0.3082706451416016
0.3854999542236328,0.3059131622314453
0.3854999542236328,0.3059131622314453
0.3906469345092773,0.3077425003051757
0.3906469345092773,0.3077425003051757
0.3897165298461914,0.3114778518676758
0.3930662155151367,0.3114778518676758
0.3898052215576172,0.3090911865234375
0.3898052215576172,0.3090911865234375
0.3935886383056640,0.3129535675048828
0.3935886383056640,0.3129535675048828
0.3866163253784179,0.3061700820922851
0.3866163253784179,0.3061700820922851
0.3864246368408203,0.2994054794311523
0.3864246368408203,0.2994054794311523
0.3788726806640625,0.2942642211914062
0.3788726806640625,0.2942642211914062
0.3737651824951172,0.2843564987182617
0.3737651824951172,0.2843564987182617
0.3740615844726562,0.2844017028808594
0.3740615844726562,0.2844017028808594
0.3666830062866211,0.2782676696777344
0.3666830062866211,0.2782676696777344
0.3693145751953125,0.2766614913940429
0.3693145751953125,0.2766614913940429
0.3661720275878906,0.2771547317504883
0.3661720275878906,0.2771547317504883
0.3644571304321289,0.2719551086425781
0.3644571304321289,0.2719551086425781
0.3673416137695312,0.2751314163208008
0.3673416137695312,0.2751314163208008
0.3616510391235351,0.2719688415527344
0.3616510391235351,0.2719688415527344
0.3659214019775390,0.2719568252563476
0.3659214019775390,0.2719568252563476
0.3642179489135742,0.2746433258056640
0.3642179489135742,0.2746433258056640
0.3637144088745117,0.2709840774536132
0.3637144088745117,0.2709840774536132
0.3673793792724609,0.2758186340332031
0.3673793792724609,0.2758186340332031
0.3624750137329101,0.2730657577514649
0.3624750137329101,0.2730657577514649
0.3674320220947265,0.2742885589599609
0.3674320220947265,0.2742885589599609
0.3666927337646484,0.2780336380004882
0.3666927337646484,0.2780336380004882
0.3664907455444336,0.2754518508911133
0.3664907455444336,0.2754518508911133
0.3708932876586914,0.2805250167846680
0.3708932876586914,0.2805250167846680
0.3664964675903320,0.2789400100708008
0.3664964675903320,0.2789400100708008
0.3719306945800781,0.2807825088500976
0.3719306945800781,0.2807825088500976
0.3715467453002930,0.2852548599243164
0.3715467453002930,0.2852548599243164
0.3714958190917969,0.2823383331298828
0.3714958190917969,0.2823383331298828
0.3759819030761719,0.2878349304199219
0.3759819030761719,0.2878349304199219
0.3715919494628906,0.2862813949584961
0.3715919494628906,0.2862813949584961
0.3768064498901367,0.2881158828735351
0.3768064498901367,0.2881158828735351
0.3762754440307617,0.2915960311889648
0.3762754440307617,0.2915960311889648
0.3756752014160156,0.2883264541625977
0.3760831832885742,0.2883264541625977
0.3797813415527344,0.2931318283081055
0.3797813415527344,0.2931318283081055
0.3747327804565430,0.2910690307617188
0.3747327804565430,0.2910690307617188
0.3794076919555664,0.2913568496704101
0.3751882553100586,0.2913568496704101
0.3783548355102539,0.2943592071533203
0.3808330535888672,0.2943592071533203
0.3773208618164062,0.2904453277587891
0.3773208618164062,0.2904453277587891
0.3808891296386719,0.2951179504394531
0.3808891296386719,0.2951179504394531
0.3757627487182617,0.2921968460083008
0.3757627487182617,0.2921968460083008
0.3801761627197265,0.2928119659423828
0.3801761627197265,0.2928119659423828
0.3795078277587891,0.2960941314697266
0.3795078277587891,0.2960941314697266
0.3785974502563477,0.2926271438598633
0.3785974502563477,0.2926271438598633
0.3824586868286133,0.2971784591674805
0.3824586868286133,0.2971784591674805
0.3775308609008789,0.2949337005615234
0.3775308609008789,0.2949337005615234
0.3823316574096680,0.2958423614501953
0.3823316574096680,0.2958423614501953
0.3818092346191406,0.2997539520263672
0.3818092346191406,0.2997539520263672
0.3810070037841797,0.2958217620849609
0.3810070037841797,0.2958217620849609
0.3849174499511719,0.3011020660400390
0.3849174499511719,0.3011020660400390
0.3803850173950195,0.2991239547729492
0.3803850173950195,0.2991239547729492
0.3851943969726562,0.3006196975708008
0.3851943969726562,0.3006196975708008
0.3850147247314453,0.3042165756225586
0.3875701904296875,0.3042165756225586
0.3842868804931641,0.3008165359497070
0.3842868804931641,0.3008165359497070
0.3886516571044922,0.3064630508422851
0.3850753784179687,0.3064630508422851
0.3841901779174804,0.3053255081176758
0.3841901779174804,0.3053255081176758
0.3893325805664062,0.3066238403320312
0.3893325805664062,0.3066238403320312
0.3895128250122070,0.3110521316528320
0.3895128250122070,0.3110521316528320
0.3890933990478516,0.3080560684204102
0.3890933990478516,0.3080560684204102
0.3935388565063476,0.3143697738647461
0.3935388565063476,0.3143697738647461
0.3892438888549805,0.3126502990722656
0.3892438888549805,0.3126502990722656
0.3942724227905273,0.3140876770019531
0.3942724227905273,0.3140876770019531
0.3943611145019531,0.3179666519165039
0.3943611145019531,0.3179666519165039
0.3926788330078125,0.3127080917358399
0.3926788330078125,0.3127080917358399
0.3918428421020508,0.3089303970336914
0.3918428421020508,0.3089303970336914
0.3793413162231445,0.2957496643066406
0.3793413162231445,0.2957496643066406
0.3775583267211914,0.2881353378295898
0.3775583267211914,0.2881353378295898
0.3731889724731445,0.2866378784179687
0.3731889724731445,0.2866378784179687
0.3689729690551758,0.2783048629760742
0.3689729690551758,0.2783048629760742
0.3706666946411133,0.2802211761474609
0.3706666946411133,0.2802211761474609
0.3639593124389648,0.2755817413330078
0.3639593124389648,0.2755817413330078
0.3669685363769531,0.2744602203369140
0.3669685363769531,0.2744602203369140
0.3656684875488281,0.2762506484985351
0.3673095703125000,0.2762506484985351
0.3635318756103516,0.2710035324096680
0.3635318756103516,0.2710035324096680
0.3671007156372070,0.2752899169921875
0.3671007156372070,0.2752899169921875
0.3617620468139648,0.2730348587036133
0.3617620468139648,0.2730348587036133
0.3660324096679687,0.2729181289672851
0.3660324096679687,0.2729181289672851
0.3658847808837891,0.2764995574951172
0.3658847808837891,0.2764995574951172
0.3645412445068359,0.2723390579223633
0.3645412445068359,0.2723390579223633
0.3687234878540039,0.2779872894287109
0.3687234878540039,0.2779872894287109
0.3641258239746094,0.2761550903320312
0.3641258239746094,0.2761550903320312
0.3689243316650391,0.2773103713989258
0.3689243316650391,0.2773103713989258
0.3696493148803711,0.2817523956298828
0.3696493148803711,0.2817523956298828
0.3686759948730469,0.2786933898925781
0.3686759948730469,0.2786933898925781
0.3734058380126953,0.2843650817871093
0.3734058380126953,0.2843650817871093
0.3692104339599609,0.2834123611450195
0.3692104339599609,0.2834123611450195
0.3743310928344726,0.2848514556884765
0.3743310928344726,0.2848514556884765
0.3750263214111328,0.2898244857788086
0.3750263214111328,0.2898244857788086
0.3739900588989258,0.2859489440917969
0.3739900588989258,0.2859489440917969
0.3785121917724609,0.2917413711547852
0.3785121917724609,0.2917413711547852
0.3742280960083008,0.2903423309326172
0.3742280960083008,0.2903423309326172
0.3786930084228515,0.2913448333740234
0.3786930084228515,0.2913448333740234
0.3790008544921875,0.2949377059936523
0.3790008544921875,0.2949377059936523
0.3772768020629882,0.2904687881469726
0.3772768020629882,0.2904687881469726
0.3812513351440430,0.2952392578125000
0.3812513351440430,0.2952392578125000
0.3762130737304688,0.2933446884155274
0.3762130737304688,0.2933446884155274
0.3800531387329101,0.2928668975830078
0.3800531387329101,0.2928668975830078
0.3798070907592773,0.2962177276611328
0.3798070907592773,0.2962177276611328
0.3779153823852539,0.2913574218750000
0.3779153823852539,0.2913574218750000
0.3818647384643555,0.2964963912963867
0.3818647384643555,0.2964963912963867
0.3769575119018554,0.2941875457763672
0.3769575119018554,0.2941875457763672
0.3810390472412109,0.2944444656372070
0.3810390472412109,0.2944444656372070
0.3830440521240234,0.2952552795410156
0.3830440521240234,0.2952552795410156
0.3830440521240234,0.2966428756713867
0.3800519943237304,0.2980768203735352
0.3800519943237304,0.2980768203735352
0.3809938430786133,0.2953577041625977
0.3809938430786133,0.2953577041625977
0.3840105056762695,0.3007066726684570
0.3840105056762695,0.3007066726684570
0.3807815551757812,0.2964529037475586
0.3807815551757812,0.2964529037475586
0.3855085372924805,0.3003347396850586
0.3855085372924805,0.3003347396850586
0.3825851440429687,0.3020759582519531
0.3825851440429687,0.3020759582519531
0.3840282440185547,0.2996475219726563
0.3840282440185547,0.2996475219726563
0.3870952606201172,0.3051784515380859
0.3870952606201172,0.3051784515380859
0.3838050842285156,0.3010843276977539
0.3838050842285156,0.3010843276977539
0.3883295059204102,0.3048831939697266
0.3883295059204102,0.3048831939697266
0.3858198165893554,0.3066169738769531
0.3858198165893554,0.3066169738769531
0.3870140075683594,0.3041278839111328
0.3870140075683594,0.3041278839111328
0.3900764465332031,0.3097394943237304
0.3900764465332031,0.3097394943237304
0.3866380691528320,0.3057140350341797
0.3866380691528320,0.3057140350341797
0.3915664672851563,0.3094253540039062
0.3915664672851563,0.3094253540039062
0.3889022827148437,0.3111431121826172
0.3889022827148437,0.3111431121826172
0.3897291183471679,0.3079364776611328
0.3871667861938476,0.3079364776611328
0.3911945343017578,0.3107002258300781
0.3911945343017578,0.3107002258300781
0.3844871520996094,0.3005504608154297
0.3844871520996094,0.3005504608154297
0.3829330444335937,0.2951757431030274
0.3829330444335937,0.2951757431030274
0.3750658035278320,0.2902267456054687
0.3750658035278320,0.2902267456054687
0.3721229553222656,0.2824161529541016
0.3721229553222656,0.2824161529541016
0.3723123550415039,0.2836629867553711
0.3723123550415039,0.2836629867553711
0.3665285110473633,0.2763204574584961
0.3665285110473633,0.2763204574584961
0.3690834045410156,0.2768863677978515
0.3690834045410156,0.2768863677978515
0.3646207809448242,0.2764675140380859
0.3646207809448242,0.2764675140380859
0.3646213531494141,0.2720329284667969
0.3646213531494141,0.2720329284667969
0.3668077468872070,0.2762420654296875
0.3668077468872070,0.2762420654296875
0.3628183364868164,0.2713319778442383
0.3628183364868164,0.2713319778442383
0.3667196273803711,0.2740121841430664
0.3667196273803711,0.2740121841430664
0.3639667510986328,0.2755039215087891
0.3639667510986328,0.2755039215087891
0.3647323608398437,0.2725061416625976
0.3647323608398437,0.2725061416625976
0.3678691864013672,0.2778276443481445
0.3656993865966797,0.2778276443481445
0.3643335342407226,0.2740722656250000
0.3643335342407226,0.2740722656250000
0.3693019866943359,0.2776296615600586
0.3693019866943359,0.2776296615600586
0.3671098709106445,0.2801593780517578
0.3671098709106445,0.2801593780517578
0.3686170578002930,0.2781778335571289
0.3671653747558594,0.2781778335571289
0.3722047805786133,0.2844600677490234
0.3722047805786133,0.2844600677490234
0.3697734832763672,0.2817901611328125
0.3697734832763672,0.2817901611328125
0.3751705169677734,0.2860118865966797
0.3751705169677734,0.2860118865966797
0.3735843658447265,0.2893077850341797
0.3735843658447265,0.2893077850341797
0.3750188827514648,0.2876129150390625
0.3750188827514648,0.2876129150390625
0.3789373397827148,0.2938081741333008
0.3789373397827148,0.2938081741333008
0.3759092330932617,0.2907096862792969
0.3759092330932617,0.2907096862792969
0.3807163238525391,0.2938356399536133
0.3807163238525391,0.2938356399536133
0.3780086517333984,0.2957456588745117
0.3780086517333984,0.2957456588745117
0.3787834167480469,0.2925647735595703
0.3787834167480469,0.2925647735595703
0.3816238403320312,0.2972145080566406
0.3816238403320312,0.2972145080566406
0.3776086807250976,0.2929584503173828
0.3776086807250976,0.2929584503173828
0.3815351486206054,0.2949554443359375
0.3815351486206054,0.2949554443359375
0.3787576675415039,0.2965318679809570
0.3787576675415039,0.2965318679809570
0.3792514801025391,0.2932645797729492
0.3792514801025391,0.2932645797729492
0.3822847366333008,0.2981763839721679
0.3822847366333008,0.2981763839721679
0.3782552719116211,0.2943534851074219
0.3834365844726562,0.2943534851074219
0.3829084396362304,0.2968717575073242
0.3829084396362304,0.2968717575073242
0.3804897308349609,0.2991033554077148
0.3804897308349609,0.2991033554077148
0.3812656402587891,0.2963602066040039
0.3812656402587891,0.2963602066040039
0.3843172073364258,0.3016004562377930
0.3843172073364258,0.3016004562377930
0.3809240341186523,0.2981775283813476
0.3809240341186523,0.2981775283813476
0.3855943679809570,0.3007352828979492
0.3855943679809570,0.3007352828979492
0.3832391738891601,0.3031694412231445
0.3832391738891601,0.3031694412231445
0.3838605880737305,0.3003730773925781
0.3838605880737305,0.3003730773925781
0.3873458862304687,0.3057518005371094
0.3873458862304687,0.3057518005371094
0.3836774826049805,0.3024971008300781
0.3836774826049805,0.3024971008300781
0.3884239196777344,0.3050188064575195
0.3884239196777344,0.3050188064575195
0.3859891891479492,0.3076171875000000
0.3859891891479492,0.3076171875000000
0.3870031356811524,0.3051137924194336
0.3870031356811524,0.3051137924194336
0.3904100418090820,0.3104518890380859
0.3904100418090820,0.3104518890380859
0.3868217468261719,0.3074752807617188
0.3868217468261719,0.3074752807617188
0.3915624618530273,0.3100759506225586
0.3915624618530273,0.3100759506225586
0.3897314071655273,0.3130216598510742
0.3897314071655273,0.3130216598510742
0.3907499313354492,0.3107030868530273
0.3907499313354492,0.3107030868530273
0.3943325042724609,0.3163536071777344
0.3943325042724609,0.3163536071777344
0.3904489517211914,0.3129953384399414
0.3904489517211914,0.3129953384399414
0.3947072982788086,0.3137294769287109
0.3947072982788086,0.3137294769287109
0.3895465850830078,0.3110876083374023
0.3895465850830078,0.3110876083374023
0.3842239379882812,0.2989768981933594
0.3842239379882812,0.2989768981933594
0.3806053161621094,0.2948106765747070
0.3806053161621094,0.2948106765747070
0.3720291137695312,0.2854957580566406
0.3720291137695312,0.2854957580566406
0.3734218597412109,0.2827480316162109
0.3734218597412109,0.2827480316162109
0.3682914733886719,0.2814393997192383
0.3682914733886719,0.2814393997192383
0.3662996292114258,0.2752292633056641
0.3662996292114258,0.2752292633056641
0.3679424285888672,0.2777143478393554
0.3679424285888672,0.2777143478393554
0.3623542785644531,0.2723951339721680
0.3623542785644531,0.2723951339721680
0.3660346984863281,0.2726818084716797
0.3660346984863281,0.2726818084716797
0.3626741409301757,0.2740808486938476
0.3626741409301757,0.2740808486938476
0.3626924514770508,0.2702413558959961
0.3626924514770508,0.2702413558959961
0.3656272888183594,0.2745569229125976
0.3656272888183594,0.2745569229125976
0.3611783981323242,0.2710081100463867
0.3611783981323242,0.2710081100463867
0.3656318664550781,0.2724426269531250
0.3656318664550781,0.2724426269531250
0.3634071350097656,0.2749225616455078
0.3634071350097656,0.2749225616455078
0.3639123916625976,0.2719436645507812
0.3639123916625976,0.2719436645507812
0.3673828125000000,0.2771753311157226
0.3673828125000000,0.2771753311157226
0.3633728027343750,0.2744253158569336
0.3633728027343750,0.2744253158569336
0.3688253402709961,0.2768211364746094
0.3688253402709961,0.2768211364746094
0.3672878265380859,0.2803333282470703
0.3672878265380859,0.2803333282470703
0.3684379577636719,0.2784404754638672
0.3684379577636719,0.2784404754638672
0.3723661422729492,0.2845293045043945
0.3723661422729492,0.2845293045043945
0.3691640853881836,0.2826433181762695
0.3691640853881836,0.2826433181762695
0.3748540878295898,0.2854431152343750
0.3748540878295898,0.2854431152343750
0.3734567642211914,0.2891921997070312
0.3734567642211914,0.2891921997070312
0.3741342544555664,0.2869514465332031
0.3741342544555664,0.2869514465332031
0.3782094955444336,0.2922523498535156
0.3782094955444336,0.2922523498535156
0.3740707397460937,0.2894577026367187
0.3799072265625000,0.2894577026367187
0.3788000106811523,0.2908950805664062
0.3788000106811523,0.2908950805664062
0.3763870239257812,0.2932474136352539
0.3763870239257812,0.2932474136352539
0.3766319274902344,0.2898044586181641
0.3766319274902344,0.2898044586181641
0.3797636032104492,0.2942213058471679
0.3797636032104492,0.2942213058471679
0.3749879837036132,0.2908143997192383
0.3749879837036132,0.2908143997192383
0.3793470382690430,0.2918718338012695
0.3793470382690430,0.2918718338012695
0.3772779464721679,0.2943603515625000
0.3772779464721679,0.2943603515625000
0.3774747848510742,0.2911291122436523
0.3774747848510742,0.2911291122436523
0.3808536529541016,0.2959356307983398
0.3808536529541016,0.2959356307983398
0.3761873245239258,0.2929670333862305
0.3761873245239258,0.2929670333862305
0.3812513351440430,0.2943832397460938
0.3812513351440430,0.2943832397460938
0.3792606353759765,0.2973381042480469
0.3792606353759765,0.2973381042480469
0.3796113967895507,0.2943351745605469
0.3796113967895507,0.2943351745605469
0.3829753875732422,0.2990072250366211
0.3829753875732422,0.2990072250366211
0.3792194366455078,0.2967716217041015
0.3792194366455078,0.2967716217041015
0.3833461761474609,0.2976511001586914
0.3833461761474609,0.2976511001586914
0.3823471069335938,0.3012485504150391
0.3823471069335938,0.3012485504150391
0.3815116882324219,0.2974514007568359
0.3815116882324219,0.2974514007568359
0.3858839035034179,0.3026424407958984
0.3858839035034179,0.3026424407958984
0.3815620422363281,0.3007987976074218
0.3815620422363281,0.3007987976074218
0.3860830307006836,0.3017709732055664
0.3860830307006836,0.3017709732055664
0.3850599288940429,0.3055664062500000
0.3850599288940429,0.3055664062500000
0.3849866867065430,0.3024993896484375
0.3849866867065430,0.3024993896484375
0.3890293121337891,0.3077791213989258
0.3890293121337891,0.3077791213989258
0.3846090316772461,0.3057289123535156
0.3846090316772461,0.3057289123535156
0.3892971038818359,0.3068756103515625
0.3892971038818359,0.3068756103515625
0.3888593673706054,0.3108346939086914
0.3888593673706054,0.3108346939086914
0.3882081985473633,0.3070404052734375
0.3882081985473633,0.3070404052734375
0.3922330856323242,0.3115940093994141
0.3922330856323242,0.3115940093994141
0.3862415313720703,0.3071874618530273
0.3862415313720703,0.3071874618530273
0.3868886947631836,0.3012668609619141
0.3868886947631836,0.3012668609619141
0.3801567077636719,0.2963521957397461
0.3801567077636719,0.2963521957397461
0.3742166519165039,0.2858934402465820
0.3713613510131836,0.2858934402465820
0.3746698379516601,0.2859580993652344
0.3712337493896484,0.2859580993652344
0.3674428939819336,0.2803207397460937
0.3702941894531250,0.2803207397460937
0.3693088531494140,0.2773527145385742
0.3693088531494140,0.2773527145385742
0.3666183471679688,0.2781967163085937
0.3666183471679688,0.2781967163085937
0.3638236999511719,0.2720827102661132
0.3638236999511719,0.2720827102661132
0.3669645309448242,0.2751909255981445
0.3669645309448242,0.2751909255981445
0.3616893768310547,0.2724924087524414
0.3616893768310547,0.2724924087524414
0.3652576446533203,0.2719345092773438
0.3652576446533203,0.2719345092773438
0.3640777587890625,0.2750507354736328
0.3640777587890625,0.2750507354736328
0.3628841400146484,0.2706687927246094
0.3628841400146484,0.2706687927246094
0.3671001434326172,0.2753311157226562
0.3671001434326172,0.2753311157226562
0.3671012878417969,0.2738451004028320
0.3671012878417969,0.2772422790527344
0.3636926651000976,0.2742244720458984
0.3634872436523438,0.2742244720458984
0.3665817260742187,0.2783340454101562
0.3665817260742187,0.2783340454101562
0.3657423019409179,0.2747714996337891
0.3657423019409179,0.2747714996337891
0.3706157684326172,0.2802812576293945
0.3706157684326172,0.2802812576293945
0.3664535522460937,0.2796810150146484
0.3664535522460937,0.2796810150146484
0.3715347290039062,0.2809329986572265
0.3715347290039062,0.2809329986572265
0.3718437194824218,0.2857429504394531
0.3718437194824218,0.2857429504394531
0.3715604782104492,0.2874229431152344
0.3744123458862305,0.2861824035644531
0.3744123458862305,0.2861824035644531
0.3775136947631836,0.2919794082641601
0.3775136947631836,0.2919794082641601
0.3742286682128906,0.2891275405883789
0.3742286682128906,0.2891275405883789
0.3797023773193359,0.2921905517578125
0.3797023773193359,0.2921905517578125
0.3761947631835937,0.2936702728271484
0.3761947631835937,0.2936702728271484
0.3781351089477539,0.2911434173583984
0.3755418777465820,0.2911434173583984
0.3803421020507812,0.2959402084350586
0.3803421020507812,0.2959402084350586
0.3760837554931640,0.2911571502685547
0.3760837554931640,0.2911571502685547
0.3807603836059570,0.2936204910278320
0.3807603836059570,0.2936204910278320
0.3769712448120117,0.2945680618286133
0.3769712448120117,0.2945680618286133
0.3785556793212890,0.2921596527099609
0.3785556793212890,0.2921596527099609
0.3808496475219726,0.2965169906616211
0.3808496475219726,0.2965169906616211
0.3767269134521484,0.2924720764160156
0.3767269134521484,0.2924720764160156
0.3820404052734375,0.2954429626464843
0.3820404052734375,0.2954429626464843
0.3785625457763672,0.2972265243530273
0.3785625457763672,0.2972265243530273
0.3804496765136718,0.2946922302246094
0.3804496765136718,0.2946922302246094
0.3830738067626953,0.2997121810913086
0.3830738067626953,0.2997121810913086
0.3793956756591797,0.2960414886474609
0.3793956756591797,0.2960414886474609
0.3845352172851562,0.2995903015136719
0.3845352172851562,0.2995903015136719
0.3814035415649414,0.3009796142578125
0.3814035415649414,0.3009796142578125
0.3831344604492187,0.2988080978393555
0.3831344604492187,0.2988080978393555
0.3860950469970703,0.3040111541748047
0.3860223770141601,0.3040111541748047
0.3822807312011718,0.3008193969726562
0.3848842620849609,0.3008193969726562
0.3876239776611328,0.3037410736083984
0.3876239776611328,0.3037410736083984
0.3845077514648437,0.3055515289306641
0.3845077514648437,0.3055515289306641
0.3862873077392578,0.3034280776977539
0.3862873077392578,0.3034280776977539
0.3891992568969727,0.3089023590087890
0.3891992568969727,0.3089023590087890
0.3853763580322265,0.3050657272338867
0.3853763580322265,0.3050657272338867
0.3906801223754883,0.3083244323730469
0.3906801223754883,0.3083244323730469
0.3877641677856445,0.3103460311889648
0.3877641677856445,0.3103460311889648
0.3894990921020507,0.3086460113525391
0.3894990921020507,0.3086460113525391
0.3925088882446289,0.3135257720947265
0.3925088882446289,0.3135257720947265
0.3887563705444336,0.3100519180297852
0.3887563705444336,0.3100519180297852
0.3939245223999023,0.3130617141723633
0.3939245223999023,0.3130617141723633
0.3902538299560547,0.3138936996459961
0.3902538299560547,0.3138936996459961
0.3895288467407226,0.3070112228393554
0.3895288467407226,0.3070112228393554
0.3872486114501953,0.3036558151245117
0.3872486114501953,0.3036558151245117
0.3770685195922852,0.2915262222290039
0.3770685195922852,0.2915262222290039
0.3776287078857422,0.2888483047485351
0.3776287078857422,0.2888483047485351
0.3712812423706054,0.2857933044433594
0.3712812423706054,0.2857933044433594
0.3699228286743164,0.2794916152954102
0.3699228286743164,0.2794916152954102
0.3705482482910156,0.2811882019042969
0.3705482482910156,0.2811882019042969
0.3645767211914062,0.2752561569213867
0.3645767211914062,0.2752561569213867
0.3684036254882813,0.2758941650390625
0.3684036254882813,0.2758941650390625
0.3641670227050781,0.2762037277221679
0.3641670227050781,0.2762037277221679
0.3648496627807617,0.2725610733032227
0.3648496627807617,0.2725610733032227
0.3672557830810547,0.2771266937255859
0.3672557830810547,0.2771266937255859
0.3628646850585938,0.2725782394409180
0.3628646850585938,0.2725782394409180
0.3677764892578125,0.2752304077148438
0.3677764892578125,0.2752304077148438
0.3648525238037109,0.2769819259643554
0.3687520980834961,0.2769819259643554
0.3660507202148438,0.2748447418212890
0.3660507202148438,0.2748447418212890
0.3693265914916992,0.2797033309936524
0.3693265914916992,0.2797033309936524
0.3654413223266602,0.2763942718505859
0.3654413223266602,0.2763942718505859
0.3711868286132812,0.2799745559692383
0.3711868286132812,0.2799745559692383
0.3688751220703125,0.2829826354980469
0.3688751220703125,0.2829826354980469
0.3706529617309570,0.2810411453247070
0.3706529617309570,0.2810411453247070
0.3744581222534180,0.2871122360229492
0.3744581222534180,0.2871122360229492
0.3712062835693359,0.2844434738159179
0.3712062835693359,0.2844434738159179
0.3770610809326172,0.2888122558593750
0.3770610809326172,0.2888122558593750
0.3749101638793945,0.2913488388061523
0.3749101638793945,0.2913488388061523
0.3765644073486328,0.2895034790039062
0.3765644073486328,0.2895034790039062
0.3800943374633789,0.2950630187988281
0.3800943374633789,0.2950630187988281
0.3762805938720703,0.2918077468872070
0.3762805938720703,0.2918077468872070
0.3814121246337890,0.2944009780883789
0.3814121246337890,0.2944009780883789
0.3784732818603516,0.2960140228271484
0.3784732818603516,0.2960140228271484
0.3792703628540039,0.2928697586059570
0.3792703628540039,0.2928697586059570
0.3818395614624023,0.2975521087646484
0.3818395614624023,0.2975521087646484
0.3773391723632812,0.2927581787109375
0.3773391723632812,0.2927581787109375
0.3818996429443359,0.2951591491699219
0.3818996429443359,0.2951591491699219
0.3789459228515625,0.2965936660766602
0.3789459228515625,0.2965936660766602
0.3795782089233398,0.2938493728637695
0.3795782089233398,0.2938493728637695
0.3825038909912109,0.2982324600219726
0.3825038909912109,0.2982324600219726
0.3783250808715820,0.2942602157592774
0.3783250808715820,0.2942602157592774
0.3832460403442383,0.2971258163452148
0.3832460403442383,0.2971258163452148
0.3805423736572265,0.2994415283203125
0.3805423736572265,0.2994415283203125
0.3815219879150391,0.2963584899902343
0.3794986724853516,0.2963584899902343
0.3846393585205078,0.3014934539794922
0.3846393585205078,0.3014934539794922
0.3808027267456054,0.2978319168090820
0.3808027267456054,0.2978319168090820
0.3857454299926757,0.3012331008911133
0.3857454299926757,0.3012331008911133
0.3832626342773438,0.3030017852783203
0.3832626342773438,0.3030017852783203
0.3841283798217773,0.3002712249755859
0.3841283798217773,0.3002712249755859
0.3875930786132812,0.3055927276611328
0.3875930786132812,0.3055927276611328
0.3834789276123047,0.3022550582885742
0.3834789276123047,0.3022550582885742
0.3885177612304687,0.3049724578857422
0.3885177612304687,0.3049724578857422
0.3861791610717774,0.3073041915893555
0.3861791610717774,0.3073041915893555
0.3871633529663086,0.3047286987304688
0.3871633529663086,0.3047286987304688
0.3905170440673828,0.3104667663574219
0.3905170440673828,0.3104667663574219
0.3865854263305664,0.3066764831542969
0.3865854263305664,0.3066764831542969
0.3916219711303711,0.3096994400024414
0.3916219711303711,0.3096994400024414
0.3895957946777344,0.3122697830200195
0.3895957946777344,0.3122697830200195
0.3903310775756836,0.3099620819091797
0.3903310775756836,0.3099620819091797
0.3938667297363281,0.3150238037109375
0.3938667297363281,0.3150238037109375
0.3896833419799804,0.3115282058715820
0.3896833419799804,0.3115282058715820
0.3945299148559570,0.3137477874755859
0.3910766601562500,0.3137477874755859
0.3910858154296875,0.3141151428222656
0.3910858154296875,0.3141151428222656
0.3882059097290039,0.3047241210937500
0.3882059097290039,0.3047241210937500
0.3854896545410156,0.3007335662841797
0.3854896545410156,0.3007335662841797
0.3756425857543945,0.2897850036621094
0.3756425857543945,0.2897850036621094
0.3764797210693359,0.2874641418457031
0.3764797210693359,0.2874641418457031
0.3712108612060547,0.2851964950561524
0.3712108612060547,0.2851964950561524
0.3690605163574219,0.2784816741943359
0.3690605163574219,0.2784816741943359
0.3704206466674805,0.2806783676147461
0.3704206466674805,0.2806783676147461
0.3644639968872070,0.2750055313110352
0.3666006088256836,0.2750055313110352
0.3678800582885742,0.2754381179809570
0.3678800582885742,0.2754381179809570
0.3648399353027343,0.2765001296997070
0.3648399353027343,0.2765001296997070
0.3645412445068359,0.2723510742187500
0.3645412445068359,0.2723510742187500
0.3674749374389648,0.2771192550659179
0.3674749374389648,0.2771192550659179
0.3629842758178711,0.2727802276611328
0.3629842758178711,0.2727802276611328
0.3674966812133789,0.2751806259155273
0.3674966812133789,0.2751806259155273
0.3652490615844726,0.2771730422973633
0.3652490615844726,0.2771730422973633
0.3662258148193359,0.2748756408691406
0.3662258148193359,0.2748756408691406
0.3692819595336914,0.2798629760742187
0.3692819595336914,0.2798629760742187
0.3662275314331054,0.2761585235595703
0.3662275314331054,0.2761585235595703
0.3712245941162109,0.2802949905395508
0.3712245941162109,0.2802949905395508
0.3690965652465820,0.2830804824829101
0.3690965652465820,0.2830804824829101
0.3707496643066406,0.2808889389038086
0.3707496643066406,0.2808889389038086
0.3743385314941406,0.2870618820190430
0.3743385314941406,0.2870618820190430
0.3717029571533203,0.2840332031250000
0.3717029571533203,0.2840332031250000
0.3769071578979492,0.2887842178344727
0.3769071578979492,0.2887842178344727
0.3749404907226562,0.2910810470581054
0.3749404907226562,0.2910810470581054
0.3764368057250976,0.2889032363891602
0.3764368057250976,0.2889032363891602
0.3798482894897461,0.2946853637695312
0.3798482894897461,0.2946853637695312
0.3758932113647461,0.2916143417358398
0.3758932113647461,0.2916143417358398
0.3806613922119140,0.2936731338500976
0.3806613922119140,0.2936731338500976
0.3787319183349609,0.2959465026855468
0.3787319183349609,0.2959465026855468
0.3785814285278320,0.2919525146484375
0.3785814285278320,0.2919525146484375
0.3815076828002930,0.2969020843505859
0.3815076828002930,0.2969020843505859
0.3768556594848633,0.2923805236816406
0.3768556594848633,0.2923805236816406
0.3809566497802734,0.2940216064453125
0.3809566497802734,0.2940216064453125
0.3788337707519531,0.2960952758789062
0.3788337707519531,0.2960952758789062
0.3786375045776367,0.2925001144409179
0.3786375045776367,0.2925001144409179
0.3817897796630859,0.2970291137695312
0.3817897796630859,0.2970291137695312
0.3772968292236328,0.2933046340942383
0.3772968292236328,0.2933046340942383
0.3819231033325195,0.2954486846923828
0.3819231033325195,0.2954486846923828
0.3801383972167969,0.2982261657714844
0.3801383972167969,0.2982261657714844
0.3800771713256836,0.2943454742431640
0.3800771713256836,0.2943454742431640
0.3835990905761719,0.2997230529785156
0.3835990905761719,0.2997230529785156
0.3794563293457031,0.2963499069213867
0.3794563293457031,0.2963499069213867
0.3841100692749023,0.2990747451782226
0.3841100692749023,0.2990747451782226
0.3825977325439453,0.3016313552856445
0.3825977325439453,0.3016313552856445
0.3826595306396484,0.2981941223144531
0.3826595306396484,0.2981941223144531
0.3849718093872070,0.3007495880126953
0.3849718093872070,0.3007495880126953
0.3864028930664062,0.3056259155273438
0.3864028930664062,0.3056259155273438
0.3840557098388672,0.3016948699951172
0.3840557098388672,0.3016948699951172
0.3891254425048828,0.3063880920410156
0.3891254425048828,0.3063880920410156
0.3855348587036133,0.3067811965942382
0.3855348587036133,0.3067811965942382
0.3886711120605469,0.3062564849853516
0.3886711120605469,0.3062564849853516
0.3900260925292969,0.3112255096435547
0.3900260925292969,0.3112255096435547
0.3879878997802734,0.3073951721191406
0.3879878997802734,0.3073951721191406
0.3929185867309570,0.3121261596679688
0.3929185867309570,0.3121261596679688
0.3891546249389649,0.3124002456665039
0.3891546249389649,0.3124002456665039
0.3919052124023437,0.3113451004028320
0.3919052124023437,0.3113451004028320
0.3934164047241211,0.3159593582153320
0.3934164047241211,0.3159593582153320
0.3906681060791016,0.3110372543334961
0.3906681060791016,0.3110372543334961
0.3941934585571289,0.3130657196044922
0.3941934585571289,0.3130657196044922
0.3866941452026367,0.3074707031250000
0.3866941452026367,0.3074707031250000
0.3836580276489258,0.2970159530639648
0.3836580276489258,0.2970159530639648
0.3791084289550781,0.2940084457397461
0.3791084289550781,0.2940084457397461
0.3726282119750977,0.2844429016113281
0.3726282119750977,0.2844429016113281
0.3742612838745117,0.2846683502197265
0.3742612838745117,0.2846683502197265
0.3679401397705078,0.2814033508300781
0.3679401397705078,0.2814033508300781
0.3687303543090820,0.2773120880126953
0.3687303543090820,0.2773120880126953
0.3684568405151367,0.2796569824218750
0.3684568405151367,0.2796569824218750
0.3645332336425781,0.2736860275268554
0.3645332336425781,0.2736860275268554
0.3684436798095703,0.2767044067382812
0.3684436798095703,0.2767044067382812
0.3638534545898438,0.2758867263793945
0.3638534545898438,0.2758867263793945
0.3661840438842773,0.2739967346191406
0.3661840438842773,0.2739967346191406
0.3671779632568359,0.2781177520751953
0.3671779632568359,0.2781177520751953
0.3645584106445313,0.2736253738403320
0.3645584106445313,0.2736253738403320
0.3692253112792969,0.2777807235717774
0.3692253112792969,0.2777807235717774
0.3652988433837890,0.2780771255493164
0.3652988433837890,0.2780771255493164
0.3680133819580078,0.2768806457519531
0.3680133819580078,0.2768806457519531
0.3699840545654297,0.2819721221923828
0.3699840545654297,0.2819721221923828
0.3677473068237305,0.2782247543334961
0.3677473068237305,0.2782247543334961
0.3730339050292968,0.2831691741943359
0.3730339050292968,0.2831691741943359
0.3693580627441406,0.2841178894042969
0.3693580627441406,0.2841178894042969
0.3727684020996094,0.2833740234375000
0.3727684020996094,0.2833740234375000
0.3749216079711914,0.2888654708862304
0.3749216079711914,0.2888654708862304
0.3727191925048828,0.2853504180908203
0.3727191925048828,0.2853504180908203
0.3777751922607422,0.2902576446533203
0.3777751922607422,0.2902576446533203
0.3744363784790039,0.2912372589111328
0.3744363784790039,0.2912372589111328
0.3776367187500000,0.2904064178466797
0.3776367187500000,0.2904064178466797
0.3795690536499023,0.2956615447998047
0.3795690536499023,0.2956615447998047
0.3770902633666992,0.2917545318603516
0.3786409378051758,0.2917545318603516
0.3822595596313477,0.2962097167968750
0.3822595596313477,0.2962097167968750
0.3784858703613281,0.2969118118286133
0.3784858703613281,0.2969118118286133
0.3812936782836914,0.2954795837402344
0.3812936782836914,0.2954795837402344
0.3826274871826172,0.3000080108642578
0.3826274871826172,0.3000080108642578
0.3798774719238281,0.2956329345703125
0.3798774719238281,0.2956329345703125
0.3845666885375976,0.2994987487792969
0.3845666885375976,0.2994987487792969
0.3804513931274414,0.2998203277587890
0.3804513931274414,0.2998203277587890
0.3827945709228516,0.2979160308837890
0.3827945709228516,0.2979160308837890
0.3845249176025390,0.3024616241455078
0.3845249176025390,0.3024616241455078
0.3816261291503906,0.2981346130371094
0.3816261291503906,0.2981346130371094
0.3863033294677734,0.3021085739135742
0.3863033294677734,0.3021085739135742
0.3821411132812500,0.3025915145874024
0.3821411132812500,0.3025915145874024
0.3848539352416992,0.3008228302001953
0.3848539352416992,0.3008228302001953
0.3865533828735351,0.3055355072021484
0.3865533828735351,0.3055355072021484
0.3838165283203125,0.3014991760253906
0.3838165283203125,0.3014991760253906
0.3884525299072266,0.3056179046630859
0.3884525299072266,0.3056179046630859
0.3847852706909179,0.3063755035400391
0.3847852706909179,0.3063755035400391
0.3875633239746094,0.3050136566162109
0.3852327346801758,0.3050136566162109
0.3905702590942383,0.3100753784179687
0.3905702590942383,0.3100753784179687
0.3867650985717773,0.3063835144042968
0.3867650985717773,0.3063835144042968
0.3919916152954102,0.3108398437500000
0.3894853591918945,0.3108398437500000
0.3884262084960937,0.3120729446411133
0.3884262084960937,0.3120729446411133
0.3913724899291992,0.3109216690063477
0.3913724899291992,0.3109216690063477
0.3934558868408203,0.3162431716918945
0.3934558868408203,0.3162431716918945
0.3910383224487304,0.3126989364624023
0.3929534912109375,0.3126989364624023
0.3962699890136719,0.3171472549438477
0.3962699890136719,0.3171472549438477
0.3926794052124024,0.3185056686401367
0.3926794052124024,0.3185056686401367
0.3954105377197266,0.3172136306762695
0.3954105377197266,0.3172136306762695
0.3977794647216797,0.3224315643310547
0.3977794647216797,0.3224315643310547
0.3951381683349609,0.3187883377075195
0.3951381683349609,0.3187883377075195
0.4000774383544922,0.3227874755859375
0.4000774383544922,0.3227874755859375
0.3957481384277344,0.3227519989013672
0.3957481384277344,0.3227519989013672
0.3959318161010742,0.3159559249877930
0.3959318161010742,0.3159559249877930
0.3920076370239258,0.3114080429077148
0.3920076370239258,0.3114080429077148
0.3812330245971680,0.2960409164428711
0.3812330245971680,0.2960409164428711
0.3799535751342774,0.2923233032226563
0.3799535751342774,0.2923233032226563
0.3726007461547852,0.2884906768798828
0.3726007461547852,0.2884906768798828
0.3727140426635742,0.2832887649536133
0.3727140426635742,0.2832887649536133
0.3728353500366211,0.2854173660278320
0.3728353500366211,0.2854173660278320
0.3680288314819336,0.2791019439697265
0.3680288314819336,0.2791019439697265
0.3718053817749024,0.2811716079711914
0.3718053817749024,0.2811716079711914
0.3670297622680664,0.2808940887451172
0.3670297622680664,0.2808940887451172
0.3690176010131836,0.2781600952148438
0.3690176010131836,0.2781600952148438
0.3704463958740234,0.2823835372924804
0.3709356307983399,0.2823835372924804
0.3673707962036133,0.2780691146850586
0.3673707962036133,0.2780691146850586
0.3721120834350586,0.2817037582397461
0.3721120834350586,0.2817037582397461
0.3683526992797851,0.2827108383178711
0.3683526992797851,0.2827108383178711
0.3708395004272461,0.2809232711791992
0.3708395004272461,0.2809232711791992
0.3733451843261719,0.2861789703369140
0.3733451843261719,0.2861789703369140
0.3706283569335938,0.2828550338745117
0.3706283569335938,0.2828550338745117
0.3759990692138672,0.2871809005737305
0.3759990692138672,0.2871809005737305
0.3726539611816406,0.2891000747680664
0.3726539611816406,0.2891000747680664
0.3758874893188476,0.2880769729614258
0.3758874893188476,0.2880769729614258
0.3787136077880859,0.2939455032348633
0.3787136077880859,0.2939455032348633
0.3760528564453125,0.2909437179565429
0.3760528564453125,0.2909437179565429
0.3814229965209961,0.2952140808105468
0.3814229965209961,0.2952140808105468
0.3782421112060547,0.2970462799072265
0.3782421112060547,0.2970462799072265
0.3811117172241211,0.2955493927001953
0.3811117172241211,0.2955493927001953
0.3835241317749024,0.3007593154907227
0.3835241317749024,0.3007593154907227
0.3801155090332031,0.2968402862548828
0.3801155090332031,0.2968402862548828
0.3851909637451172,0.3002054214477539
0.3851909637451172,0.3002054214477539
0.3812364578247070,0.3010768890380859
0.3812364578247070,0.3010768890380859
0.3833868026733399,0.2987142562866211
0.3833868026733399,0.2987142562866211
0.3850210189819336,0.3029176712036133
0.3850210189819336,0.3029176712036133
0.3813171386718750,0.2983966827392578
0.3813171386718750,0.2983966827392578
0.3859714508056640,0.3011117935180664
0.3859714508056640,0.3011117935180664
0.3817474365234375,0.3017652511596680
0.3817474365234375,0.3017652511596680
0.3835584640502930,0.2991073608398437
0.3835584640502930,0.2991073608398437
0.3856595993041992,0.3036020278930664
0.3856595993041992,0.3036020278930664
0.3818893432617188,0.2992944717407227
0.3818893432617188,0.2992944717407227
0.3868171691894531,0.3024101257324219
0.3837152481079101,0.3024101257324219
0.3826778411865234,0.3034063339233398
0.3826778411865234,0.3034063339233398
0.3850885391235351,0.3012302398681641
0.3850885391235351,0.3012302398681641
0.3872709274291992,0.3060104370117188
0.3872709274291992,0.3060104370117188
0.3836637496948242,0.3020256042480469
0.3836637496948242,0.3020256042480469
0.3884977340698242,0.3051498413085937
0.3884977340698242,0.3051498413085937
0.3849271774291992,0.3064773559570312
0.3849271774291992,0.3064773559570312
0.3872560501098632,0.3044179916381836
0.3872560501098632,0.3044179916381836
0.3896192550659179,0.3094173431396484
0.3896192550659179,0.3094173431396484
0.3858226776123047,0.3055772781372070
0.3858226776123047,0.3055772781372070
0.3912265777587891,0.3090024948120117
0.3912265777587891,0.3090024948120117
0.3876657485961914,0.3105680465698242
0.3876657485961914,0.3105680465698242
0.3900724411010742,0.3087816238403320
0.3900724411010742,0.3087816238403320
0.3924659729003906,0.3140779495239258
0.3924659729003906,0.3140779495239258
0.3892982482910156,0.3106275558471679
0.3892982482910156,0.3106275558471679
0.3948011398315430,0.3145059585571289
0.3948011398315430,0.3145059585571289
0.3914548873901367,0.3164136886596680
0.3914548873901367,0.3164136886596680
0.3938266754150391,0.3147628784179687
0.3938266754150391,0.3147628784179687
0.3968130111694336,0.3202079772949218
0.3968130111694336,0.3202079772949218
0.3933917999267578,0.3168617248535156
0.3933917999267578,0.3168617248535156
0.3987688064575195,0.3204614639282227
0.3987688064575195,0.3204614639282227
0.3949390411376953,0.3215492248535156
0.3949390411376953,0.3215492248535156
0.3956245422363281,0.3155822753906250
0.3956245422363281,0.3155822753906250
0.3927806854248047,0.3121015548706055
0.3927806854248047,0.3121015548706055
0.3819070816040039,0.2977174758911132
0.3819070816040039,0.2977174758911132
0.3811603546142578,0.2935546875000000
0.3811603546142578,0.2935546875000000
0.3742074966430664,0.2903652191162109
0.3742074966430664,0.2903652191162109
0.3740015029907227,0.2848949432373047
0.3740015029907227,0.2848949432373047
0.3745920181274414,0.2872982025146484
0.3745920181274414,0.2872982025146484
0.3692144393920898,0.2813838958740234
0.3692144393920898,0.2813838958740234
0.3734739303588867,0.2829837799072266
0.3734739303588867,0.2829837799072266
0.3691034317016602,0.2833992004394531
0.3691034317016602,0.2833992004394531
0.3706335067749023,0.2803945541381836
0.3706335067749023,0.2803945541381836
0.3727163314819336,0.2848709106445312
0.3727163314819336,0.2848709106445312
0.3688602447509766,0.2807905197143555
0.3688602447509766,0.2807905197143555
0.3740804672241211,0.2838918685913086
0.3740804672241211,0.2838918685913086
0.3753112792968750,0.2866481781005859
0.3734636306762695,0.2866481781005859
0.3710414886474609,0.2858545303344727
0.3757678985595703,0.2858545303344727
0.3757593154907227,0.2866281509399414
0.3757593154907227,0.2866281509399414
0.3760969161987305,0.2915737152099609
0.3760969161987305,0.2915737152099609
0.3754034042358398,0.2883544921875000
0.3754034042358398,0.2883544921875000
0.3804662704467773,0.2941600799560547
0.3804662704467773,0.2941600799560547
0.3767744064331054,0.2940158843994141
0.3767744064331054,0.2940158843994141
0.3816226959228515,0.2954601287841797
0.3816226959228515,0.2954601287841797
0.3820993423461914,0.3001499176025391
0.3820993423461914,0.3001499176025391
0.3812839508056641,0.2970365524291992
0.3812839508056641,0.2970365524291992
0.3861986160278320,0.3023849487304687
0.3861986160278320,0.3023849487304687
0.3819465637207031,0.3018070220947265
0.3819465637207031,0.3018070220947265
0.3860492706298828,0.3016038894653320
0.3860492706298828,0.3016038894653320
0.3859582901000976,0.3053667068481445
0.3859582901000976,0.3053667068481445
0.3841335296630859,0.3009338378906250
0.3837306976318359,0.3009338378906250
0.3880966186523437,0.3051681518554688
0.3880966186523437,0.3051681518554688
0.3830978393554688,0.3029268264770508
0.3830978393554688,0.3029268264770508
0.3865144729614258,0.3020891189575195
0.3833261489868164,0.3020891189575195
0.3860572814941406,0.3052871704101562
0.3860572814941406,0.3052871704101562
0.3839075088500977,0.3009000778198242
0.3839075088500977,0.3009000778198242
0.3879426956176757,0.3047046661376953
0.3879426956176757,0.3047046661376953
0.3831052780151367,0.3030710220336914
0.3831052780151367,0.3030710220336914
0.3869161605834961,0.3026172637939453
0.3869161605834961,0.3026172637939453
0.3867605209350586,0.3066490173339844
0.3867605209350586,0.3066490173339844
0.3849718093872070,0.3021841049194336
0.3849718093872070,0.3021841049194336
0.3892570495605469,0.3067737579345703
0.3892570495605469,0.3067737579345703
0.3848093032836914,0.3056774139404297
0.3848093032836914,0.3056774139404297
0.3887935638427734,0.3058547973632812
0.3887935638427734,0.3058547973632812
0.3890087127685547,0.3097045898437500
0.3890087127685547,0.3097045898437500
0.3873350143432617,0.3057186126708984
0.3873350143432617,0.3057186126708984
0.3918394088745117,0.3104467391967773
0.3918394088745117,0.3104467391967773
0.3873584747314453,0.3097383499145508
0.3873584747314453,0.3097383499145508
0.3912500381469726,0.3093629837036133
0.3912500381469726,0.3093629837036133
0.3915939331054688,0.3136322021484375
0.3915939331054688,0.3136322021484375
0.3899425506591797,0.3099060058593750
0.3899425506591797,0.3099060058593750
0.3945980072021484,0.3150844573974609
0.3945980072021484,0.3150844573974609
0.3903837203979492,0.3140962600708008
0.3903837203979492,0.3140962600708008
0.3943994522094726,0.3142398834228515
0.3943994522094726,0.3142398834228515
0.3949441909790039,0.3186550140380859
0.3949441909790039,0.3186550140380859
0.3933036804199219,0.3152629852294922
0.3933036804199219,0.3152629852294922
0.3979351043701172,0.3197891235351563
0.3979351043701172,0.3197891235351563
0.3935955047607422,0.3189605712890625
0.3935955047607422,0.3189605712890625
0.3975425720214844,0.3186750411987305
0.3975425720214844,0.3186750411987305
0.3973125457763672,0.3219085693359375
0.3973125457763672,0.3219085693359375
0.3935451507568359,0.3141460418701172
0.3935451507568359,0.3141460418701172
0.3935611724853516,0.3112941741943359
0.3935611724853516,0.3112941741943359
0.3822658538818359,0.3002649307250976
0.3822658538818359,0.3002649307250976
0.3807094573974609,0.2935100555419922
0.3807094573974609,0.2935100555419922
0.3777769088745117,0.2928073883056641
0.3782352447509765,0.2928073883056641
0.3732919692993164,0.2852720260620117
0.3732919692993164,0.2852720260620117
0.3758554458618164,0.2870252609252930
0.3758554458618164,0.2870252609252930
0.3698324203491211,0.2840303421020507
0.3698324203491211,0.2840303421020507
0.3721607208251953,0.2814840316772461
0.3721607208251953,0.2814840316772461
0.3717561721801758,0.2842964172363281
0.3717561721801758,0.2842964172363281
0.3690673828125000,0.2792203903198242
0.3690673828125000,0.2792203903198242
0.3730316162109375,0.2833665847778320
0.3730316162109375,0.2833665847778320
0.3684013366699219,0.2817810058593750
0.3684013366699219,0.2817810058593750
0.3718614578247070,0.2811721801757812
0.3718614578247070,0.2811721801757812
0.3724359512329101,0.2852474212646484
0.3724359512329101,0.2852474212646484
0.3705121994018555,0.2815029144287109
0.3705121994018555,0.2815029144287109
0.3751699447631836,0.2861080169677734
0.3751699447631836,0.2861080169677734
0.3712280273437500,0.2857234954833984
0.3712280273437500,0.2857234954833984
0.3752140045166015,0.2858900070190429
0.3752140045166015,0.2858900070190429
0.3762851715087890,0.2911205291748047
0.3762851715087890,0.2911205291748047
0.3747825622558594,0.2876363754272461
0.3747825622558594,0.2876363754272461
0.3799175262451172,0.2931175231933594
0.3799175262451172,0.2931175231933594
0.3763858795166016,0.2932119369506836
0.3763858795166016,0.2932119369506836
0.3804857254028320,0.2938865661621093
0.3804857254028320,0.2938865661621093
0.3816873550415039,0.2987262725830078
0.3816873550415039,0.2987262725830078
0.3799713134765625,0.2950819015502930
0.3799713134765625,0.2950819015502930
0.3848167419433594,0.2999902725219726
0.3848167419433594,0.2999902725219726
0.3806161880493164,0.2995084762573242
0.3806161880493164,0.2995084762573242
0.3840030670166015,0.2986530303955078
0.3840030670166015,0.2986530303955078
0.3845140457153320,0.3025377273559570
0.3845140457153320,0.3025377273559570
0.3821519851684570,0.2979057312011719
0.3821519851684570,0.2979057312011719
0.3862232208251953,0.3020696640014648
0.3862232208251953,0.3020696640014648
0.3815013885498047,0.3004692077636719
0.3815013885498047,0.3004692077636719
0.3844419479370117,0.2992303848266601
0.3844419479370117,0.2992303848266601
0.3848505020141602,0.3029165267944336
0.3848505020141602,0.3029165267944336
0.3822566986083984,0.2984807968139648
0.3822566986083984,0.2984807968139648
0.3866186141967773,0.3024461746215820
0.3866186141967773,0.3024461746215820
0.3821868896484375,0.3015415191650391
0.3821868896484375,0.3015415191650391
0.3853752136230469,0.3008050918579102
0.3853752136230469,0.3008050918579102
0.3862918853759765,0.3053380966186524
0.3862918853759765,0.3053380966186524
0.3839475631713867,0.3009201049804687
0.3839475631713867,0.3009201049804687
0.3886316299438476,0.3054393768310547
0.3886316299438476,0.3054393768310547
0.3845432281494141,0.3049867630004883
0.3845432281494141,0.3049867630004883
0.3878282546997070,0.3046834945678711
0.3878282546997070,0.3046834945678711
0.3888891220092773,0.3090494155883789
0.3888891220092773,0.3090494155883789
0.3867204666137695,0.3050239562988281
0.3867204666137695,0.3050239562988281
0.3915224075317383,0.3097600936889648
0.3915224075317383,0.3097600936889648
0.3875473022460937,0.3097171783447266
0.3875473022460937,0.3097171783447266
0.3907854080200195,0.3090396881103515
0.3907854080200195,0.3090396881103515
0.3920070648193359,0.3138044357299805
0.3920070648193359,0.3138044357299805
0.3899574279785156,0.3098293304443359
0.3899574279785156,0.3098293304443359
0.3947467803955078,0.3148103713989258
0.3947467803955078,0.3148103713989258
0.3908912658691406,0.3144584655761719
0.3908912658691406,0.3144584655761719
0.3940120697021484,0.3140705108642578
0.3940120697021484,0.3140705108642578
0.3953847885131836,0.3188341140747070
0.3967254638671875,0.3188341140747070
0.3931961059570312,0.3150466918945312
0.3931961059570312,0.3150466918945312
0.3979436874389649,0.3193994522094726
0.3979436874389649,0.3193994522094726
0.3935983657836914,0.3181863784790039
0.3935983657836914,0.3181863784790039
0.3951679229736328,0.3144916534423828
0.3951679229736328,0.3144916534423828
0.3920722961425781,0.3121198654174804
0.3920722961425781,0.3121198654174804
0.3830629348754883,0.2978691101074218
0.3830629348754883,0.2978691101074218
0.3823785781860352,0.2954669952392578
0.3823785781860352,0.2954669952392578
0.3748266220092774,0.2903160095214843
0.3748266220092774,0.2903160095214843
0.3751167297363281,0.2859369277954101
0.3751167297363281,0.2859369277954101
0.3739271163940430,0.2869451522827148
0.3741371154785156,0.2869451522827148
0.3696985244750977,0.2799797058105469
0.3696985244750977,0.2799797058105469
0.3728176116943359,0.2822719573974609
0.3728176116943359,0.2822719573974609
0.3676465988159179,0.2804958343505859
0.3676465988159179,0.2804958343505859
0.3695022583007813,0.2781114578247070
0.3695022583007813,0.2781114578247070
0.3700550079345703,0.2817335128784180
0.3700550079345703,0.2817335128784180
0.3673095703125000,0.2766695022583008
0.3673095703125000,0.2766695022583008
0.3716234207153320,0.2809055328369141
0.3716234207153320,0.2809055328369141
0.3674509048461914,0.2801925659179688
0.3674509048461914,0.2801925659179688
0.3701980590820312,0.2790996551513672
0.3701980590820312,0.2790996551513672
0.3714797973632812,0.2836189270019531
0.3714797973632812,0.2836189270019531
0.3691068649291992,0.2796781539916992
0.3703662872314453,0.2796781539916992
0.3740781784057617,0.2843255996704102
0.3740781784057617,0.2843255996704102
0.3704383850097656,0.2846574783325195
0.3704383850097656,0.2846574783325195
0.3738927841186523,0.2843627929687500
0.3738927841186523,0.2843627929687500
0.3757083892822266,0.2899509429931640
0.3757083892822266,0.2899509429931640
0.3739168167114258,0.2864919662475586
0.3739168167114258,0.2864919662475586
0.3792554855346680,0.2919147491455078
0.3792554855346680,0.2919147491455078
0.3759836196899414,0.2927690505981445
0.3759836196899414,0.2927690505981445
0.3794546127319336,0.2927021026611328
0.3794546127319336,0.2927021026611328
0.3811620712280273,0.2977037429809570
0.3811620712280273,0.2977037429809570
0.3790014266967773,0.2937469482421875
0.3790014266967773,0.2937469482421875
0.3838171005249023,0.2981700897216797
0.3838171005249023,0.2981700897216797
0.3797819137573242,0.2981163024902344
0.3797819137573242,0.2981163024902344
0.3822463989257812,0.2962188720703125
0.3822463989257812,0.2962188720703125
0.3830932617187500,0.3001012802124023
0.3830932617187500,0.3001012802124023
0.3800617218017578,0.2950429916381836
0.3800617218017578,0.2950429916381836
0.3841735839843750,0.2987480163574219
0.3841735839843750,0.2987480163574219
0.3796783447265625,0.2978977203369140
0.3796783447265625,0.2978977203369140
0.3819448471069336,0.2960083007812500
0.3819448471069336,0.2960083007812500
0.3830560684204101,0.3001619338989258
0.3830560684204101,0.3001619338989258
0.3803329467773438,0.2958337783813477
0.3803329467773438,0.2958337783813477
0.3849306106567383,0.2997333526611328
0.3849306106567383,0.2997333526611328
0.3808610916137695,0.2998100280761719
0.3808610916137695,0.2998100280761719
0.3836128234863281,0.2985054016113281
0.3836128234863281,0.2985054016113281
0.3851028442382812,0.3034589767456055
0.3851028442382812,0.3034589767456055
0.3825851440429687,0.2990524291992188
0.3825851440429687,0.2990524291992188
0.3873109817504883,0.3034332275390625
0.3873109817504883,0.3034332275390625
0.3835567474365234,0.3038784027099609
0.3835567474365234,0.3038784027099609
0.3863805770874023,0.3028959274291992
0.3863805770874023,0.3028959274291992
0.3880657196044922,0.3076108932495117
0.3880657196044922,0.3076108932495117
0.3856407165527344,0.3036455154418945
0.3856407165527344,0.3036455154418945
0.3861093521118164,0.3051177978515625
0.3867153167724609,0.3051177978515625
0.3913782119750976,0.3108346939086914
0.3913782119750976,0.3108346939086914
0.3873945236206054,0.3083587646484375
0.3873945236206054,0.3083587646484375
0.3921878814697266,0.3103752136230469
0.3921878814697266,0.3103752136230469
0.3911447525024414,0.3139818191528320
0.3911447525024414,0.3139818191528320
0.3911447525024414,0.3106304168701172
0.3911447525024414,0.3106304168701172
0.3950059890747070,0.3163026809692382
0.3950059890747070,0.3163026809692382
0.3911270141601562,0.3138822555541992
0.3911270141601562,0.3138822555541992
0.3957132339477539,0.3155250549316406
0.3957132339477539,0.3155250549316406
0.3942792892456055,0.3183208465576172
0.3942792892456055,0.3183208465576172
0.3926273345947265,0.3122297286987304
0.3926273345947265,0.3122297286987304
0.3932796478271484,0.3117868423461914
0.3932796478271484,0.3117868423461914
0.3827630996704102,0.2994232177734375
0.3827630996704102,0.2994232177734375
0.3810791015625000,0.2929738998413086
0.3810791015625000,0.2929738998413086
0.3759275436401367,0.2910713195800781
0.3759275436401367,0.2910713195800781
0.3726253509521484,0.2831611633300781
0.3726253509521484,0.2831611633300781
0.3741394042968750,0.2851959228515625
0.3741394042968750,0.2851959228515625
0.3679361343383789,0.2797714233398437
0.3679361343383789,0.2797714233398437
0.3706541061401367,0.2788267135620117
0.3706541061401367,0.2788267135620117
0.3683046340942382,0.2804168701171875
0.3707279205322265,0.2804168701171875
0.3668952941894531,0.2752470016479492
0.3668952941894531,0.2752470016479492
0.3699920654296875,0.2795774459838867
0.3699920654296875,0.2795774459838867
0.3651992797851563,0.2763404846191406
0.3651992797851563,0.2763404846191406
0.3693695068359375,0.2770345687866211
0.3693695068359375,0.2770345687866211
0.3680494308471680,0.2800941467285156
0.3680494308471680,0.2800941467285156
0.3674674987792969,0.2761098861694336
0.3674674987792969,0.2761098861694336
0.3712308883666992,0.2813856124877930
0.3712308883666992,0.2813856124877930
0.3672294616699219,0.2791156768798828
0.3672294616699219,0.2791156768798828
0.3718259811401367,0.2806325912475586
0.3718259811401367,0.2806325912475586
0.3712320327758789,0.2846345901489258
0.3712320327758789,0.2846345901489258
0.3710552215576172,0.2815137863159179
0.3710552215576172,0.2815137863159179
0.3756500244140625,0.2876358032226562
0.3756500244140625,0.2876358032226562
0.3720605850219726,0.2863128662109375
0.3720605850219726,0.2863128662109375
0.3772390365600586,0.2884042739868164
0.3772390365600586,0.2884042739868164
0.3767761230468750,0.2929229736328125
0.3767761230468750,0.2929229736328125
0.3769111633300781,0.2899583816528320
0.3769111633300781,0.2899583816528320
0.3814081192016601,0.2959247589111328
0.3814081192016601,0.2959247589111328
0.3775571823120117,0.2941984176635742
0.3775571823120117,0.2941984176635742
0.3820369720458984,0.2953805923461914
0.3820369720458984,0.2953805923461914
0.3810699462890625,0.2987165451049805
0.3810699462890625,0.2987165451049805
0.3802551269531250,0.2945623397827148
0.3802551269531250,0.2945623397827148
0.3839384078979492,0.2990901947021484
0.3839384078979492,0.2990901947021484
0.3790781021118164,0.2963001251220703
0.3790781021118164,0.2963001251220703
0.3830228805541992,0.2964529037475586
0.3830228805541992,0.2964529037475586
0.3815288543701172,0.2993539810180664
0.3815288543701172,0.2993539810180664
0.3804691314697266,0.2948530197143555
0.3804691314697266,0.2948530197143555
0.3839927673339844,0.2994661331176758
0.3839927673339844,0.2994661331176758
0.3795473098754883,0.2970674514770508
0.3795473098754883,0.2970674514770508
0.3837724685668945,0.2977746963500976
0.3837724685668945,0.2977746963500976
0.3827339172363281,0.3011753082275391
0.3827339172363281,0.3011753082275391
0.3818675994873047,0.2972059249877930
0.3818675994873047,0.2972059249877930
0.3860841751098633,0.3023145675659180
0.3860841751098633,0.3023145675659180
0.3817108154296875,0.3003599166870117
0.3817108154296875,0.3003599166870117
0.3861373901367187,0.3012319564819336
0.3861373901367187,0.3012319564819336
0.3851200103759765,0.3049037933349609
0.3851200103759765,0.3049037933349609
0.3845426559448242,0.3010150909423828
0.3845426559448242,0.3010150909423828
0.3886590957641601,0.3062141418457031
0.3886590957641601,0.3062141418457031
0.3844190597534179,0.3044425964355469
0.3844190597534179,0.3044425964355469
0.3887266159057617,0.3052734375000000
0.3887266159057617,0.3052734375000000
0.3881000518798828,0.3090408325195312
0.3881000518798828,0.3090408325195312
0.3873126983642578,0.3053146362304687
0.3873126983642578,0.3053146362304687
0.3916093826293945,0.3105096817016602
0.3916093826293945,0.3105096817016602
0.3871530532836914,0.3088909149169922
0.3871530532836914,0.3088909149169922
0.3916866302490234,0.3096776962280273
0.3916866302490234,0.3096776962280273
0.3910068511962890,0.3134405136108399
0.3936773300170898,0.3134405136108399
0.3901588439941406,0.3096605300903320
0.3901588439941406,0.3096605300903320
0.3943462371826172,0.3146221160888672
0.3943462371826172,0.3146221160888672
0.3898624420166015,0.3127098083496094
0.3898624420166015,0.3127098083496094
0.3937746047973633,0.3124122619628906
0.3937746047973633,0.3124122619628906
0.3914211273193359,0.3132562637329102
0.3914211273193359,0.3132562637329102
0.3865447998046875,0.3027391433715820
0.3865447998046875,0.3027391433715820
0.3846948623657226,0.2985912322998047
0.3846948623657226,0.2985912322998047
0.3776979446411133,0.2903778076171875
0.3759412765502930,0.2861635208129883
0.3759412765502930,0.2861635208129883
0.3724731445312500,0.2860879898071289
0.3724731445312500,0.2860879898071289
0.3692991256713867,0.2789566040039063
0.3692991256713867,0.2789566040039063
0.3717493057250976,0.2812385559082031
0.3717493057250976,0.2812385559082031
0.3658121109008789,0.2777349472045899
0.3658121109008789,0.2777349472045899
0.3688625335693359,0.2765321731567383
0.3688625335693359,0.2765321731567383
0.3675733566284179,0.2791889190673828
0.3675733566284179,0.2791889190673828
0.3659643173217773,0.2744796752929687
0.3659643173217773,0.2744796752929687
0.3699022293090820,0.2788175582885742
0.3699022293090820,0.2788175582885742
0.3651288986206054,0.2771244049072266
0.3651288986206054,0.2771244049072266
0.3693614959716797,0.2773097991943359
0.3693614959716797,0.2773097991943359
0.3689672470092774,0.2811378479003906
0.3689672470092774,0.2811378479003906
0.3680025100708008,0.2774677276611328
0.3680025100708008,0.2774677276611328
0.3724817276000976,0.2825975418090820
0.3724817276000976,0.2825975418090820
0.3684511184692383,0.2817586898803711
0.3684511184692383,0.2817586898803711
0.3731735229492187,0.2827388763427734
0.3731735229492187,0.2827388763427734
0.3733160018920899,0.2873554229736328
0.3733160018920899,0.2873554229736328
0.3726247787475586,0.2843856811523438
0.3726247787475586,0.2843856811523438
0.3776756286621094,0.2899795532226562
0.3776756286621094,0.2899795532226562
0.3737548828125000,0.2896030426025391
0.3737548828125000,0.2896030426025391
0.3785791397094727,0.2905963897705078
0.3785791397094727,0.2905963897705078
0.3785871505737304,0.2951402664184570
0.3785871505737304,0.2951402664184570
0.3777379989624023,0.2916521072387695
0.3777379989624023,0.2916521072387695
0.3823305130004883,0.2965135574340820
0.3823305130004883,0.2965135574340820
0.3777305603027344,0.2951940536499023
0.3777305603027344,0.2951940536499023
0.3816061019897461,0.2948524475097656
0.3816061019897461,0.2948524475097656
0.3810327529907226,0.2981637954711914
0.3810327529907226,0.2981637954711914
0.3791959762573242,0.2935501098632812
0.3791959762573242,0.2935501098632812
0.3830331802368164,0.2975984573364258
0.3830331802368164,0.2975984573364258
0.3780567169189453,0.2957193374633789
0.3780567169189453,0.2957193374633789
0.3817869186401367,0.2952672958374024
0.3817869186401367,0.2952672958374024
0.3814035415649414,0.2988281250000000
0.3814035415649414,0.2988281250000000
0.3798030853271484,0.2946876525878906
0.3798030853271484,0.2946876525878906
0.3839612960815429,0.2991703033447266
0.3839612960815429,0.2991703033447266
0.3796033859252930,0.2979326248168945
0.3796033859252930,0.2979326248168945
0.3836826324462890,0.2980751037597656
0.3836826324462890,0.2980751037597656
0.3837392807006836,0.3021823883056641
0.3837392807006836,0.3021823883056641
0.3822023391723633,0.2985466003417969
0.3822023391723633,0.2985466003417969
0.3868761062622070,0.3033428192138672
0.3868761062622070,0.3033428192138672
0.3826795578002929,0.3025068283081054
0.3826795578002929,0.3025068283081054
0.3867736816406250,0.3027122497558594
0.3867736816406250,0.3027122497558594
0.3867954254150390,0.3068424224853515
0.3867954254150390,0.3068424224853515
0.3854461669921875,0.3030893325805664
0.3854461669921875,0.3030893325805664
0.3899562835693359,0.3078369140625000
0.3899562835693359,0.3078369140625000
0.3856590270996094,0.3069219589233398
0.3856590270996094,0.3069219589233398
0.3895483016967773,0.3068550109863281
0.3895483016967773,0.3068550109863281
0.3897537231445312,0.3108598709106445
0.3897537231445312,0.3108598709106445
0.3881618499755859,0.3069763183593750
0.3881618499755859,0.3069763183593750
0.3925615310668945,0.3116180419921875
0.3925615310668945,0.3116180419921875
0.3880359649658203,0.3105554580688477
0.3927206039428711,0.3105554580688477
0.3920597076416015,0.3104478836059570
0.3920597076416015,0.3104478836059570
0.3923177719116211,0.3145156860351562
0.3923177719116211,0.3145156860351562
0.3905427932739258,0.3105485916137695
0.3905427932739258,0.3105485916137695
0.3946260452270507,0.3146690368652343
0.3946260452270507,0.3146690368652343
0.3894813537597656,0.3120019912719726
0.3894813537597656,0.3120019912719726
0.3908174514770508,0.3073945999145508
0.3908174514770508,0.3073945999145508
0.3858976364135742,0.3031602859497070
0.3858976364135742,0.3031602859497070
0.3779994964599609,0.2911479949951172
0.3779994964599609,0.2911479949951172
0.3783531188964844,0.2901575088500977
0.3783531188964844,0.2901575088500977
0.3708314895629883,0.2850357055664062
0.3708314895629883,0.2850357055664062
0.3721069335937500,0.2812894821166992
0.3721069335937500,0.2812894821166992
0.3703422546386719,0.2823904037475586
0.3703422546386719,0.2823904037475586
0.3668483734130859,0.2759313583374023
0.3668483734130859,0.2759313583374023
0.3699623107910156,0.2787923812866211
0.3699623107910156,0.2787923812866211
0.3645961761474609,0.2764165878295898
0.3645961761474609,0.2764165878295898
0.3675401687622070,0.2750684738159180
0.3675401687622070,0.2750684738159180
0.3675373077392578,0.2784650802612305
0.3675373077392578,0.2784650802612305
0.3653160095214844,0.2739664077758789
0.3653160095214844,0.2739664077758789
0.3695806503295898,0.2782768249511718
0.3695806503295898,0.2782768249511718
0.3650779724121094,0.2771387100219727
0.3650779724121094,0.2771387100219727
0.3687818527221680,0.2768497467041016
0.3687818527221680,0.2768497467041016
0.3694559097290039,0.2811052322387695
0.3694559097290039,0.2811052322387695
0.3678131103515625,0.2774957656860351
0.3678131103515625,0.2774957656860351
0.3725503921508789,0.2825408935546875
0.3725503921508789,0.2825408935546875
0.3687543869018555,0.2823183059692383
0.3687543869018555,0.2823183059692383
0.3729366302490234,0.2827051162719726
0.3729366302490234,0.2827051162719726
0.3741834640502930,0.2877239227294922
0.3756168365478516,0.2860931396484375
0.3776298522949219,0.2890497207641601
0.3776298522949219,0.2901351928710937
0.3750188827514648,0.2868238449096679
0.3750188827514648,0.2868238449096679
0.3786283493041992,0.2926214218139648
0.3786283493041992,0.2926214218139648
0.3748037338256836,0.2890136718750000
0.3748037338256836,0.2890136718750000
0.3799026489257812,0.2920995712280273
0.3799026489257812,0.2920995712280273
0.3776144027709961,0.2943162918090820
0.3776144027709961,0.2943162918090820
0.3782152175903320,0.2915451049804688
0.3782152175903320,0.2915451049804688
0.3814922332763672,0.2963001251220703
0.3814922332763672,0.2963001251220703
0.3771200180053711,0.2921962738037109
0.3771200180053711,0.2921962738037109
0.3817176818847656,0.2946533203125000
0.3817176818847656,0.2946533203125000
0.3791713714599609,0.2966468811035156
0.3791713714599609,0.2966468811035156
0.3794752120971679,0.2930723190307617
0.3794752120971679,0.2930723190307617
0.3824827194213867,0.2977901458740234
0.3824827194213867,0.2977901458740234
0.3781745910644531,0.2937721252441406
0.3781745910644531,0.2937721252441406
0.3827991485595703,0.2964740753173828
0.3827991485595703,0.2964740753173828
0.3805555343627929,0.2985385894775390
0.3805555343627929,0.2985385894775390
0.3810453414916992,0.2953462600708008
0.3810453414916992,0.2953462600708008
0.3844779968261718,0.3005023956298828
0.3844779968261718,0.3005023956298828
0.3803014755249023,0.2970760345458984
0.3803014755249023,0.2970760345458984
0.3851646423339843,0.2998558044433594
0.3851646423339843,0.2998558044433594
0.3831705093383789,0.3023094177246093
0.3831705093383789,0.3023094177246093
0.3837141036987304,0.2993654251098632
0.3837141036987304,0.2993654251098632
0.3872709274291992,0.3049879074096680
0.3872709274291992,0.3049879074096680
0.3833599090576172,0.3014642715454102
0.3833599090576172,0.3014642715454102
0.3882579803466797,0.3043836593627929
0.3882579803466797,0.3043836593627929
0.3864475250244140,0.3070941925048828
0.3899974822998047,0.3070941925048828
0.3869510650634765,0.3042892456054687
0.3869510650634765,0.3042892456054687
0.3905101776123047,0.3096084594726562
0.3905101776123047,0.3096084594726562
0.3865390777587890,0.3062799453735351
0.3865390777587890,0.3062799453735351
0.3914669036865234,0.3092153549194336
0.3914669036865234,0.3092153549194336
0.3897474288940430,0.3122297286987304
0.3897474288940430,0.3122297286987304
0.3903179168701172,0.3092176437377930
0.3903179168701172,0.3092176437377930
0.3940818786621094,0.3150981903076172
0.3940818786621094,0.3150981903076172
0.3902875900268555,0.3120477676391601
0.3902875900268555,0.3120477676391601
0.3951690673828125,0.3149322509765625
0.3951690673828125,0.3149322509765625
0.3929254531860352,0.3162609100341797
0.3929254531860352,0.3162609100341797
0.3909250259399414,0.3087484359741211
0.3909250259399414,0.3087484359741211
0.3891735076904297,0.3054513931274414
0.3891735076904297,0.3054513931274414
0.3779869079589844,0.2923301696777343
0.3779869079589844,0.2923301696777343
0.3776584625244140,0.2882646560668945
0.3776584625244140,0.2882646560668945
0.3724794387817383,0.2862527847290039
0.3724794387817383,0.2862527847290039
0.3699480056762695,0.2790493011474609
0.3699480056762695,0.2790493011474609
0.3711845397949219,0.2813346862792969
0.3711845397949219,0.2813346862792969
0.3651351928710938,0.2751674652099609
0.3651351928710938,0.2751674652099609
0.3682216644287109,0.2754541397094726
0.3682216644287109,0.2754541397094726
0.3654945373535156,0.2764863967895508
0.3654945373535156,0.2764863967895508
0.3646728515625000,0.2719282150268554
0.3646728515625000,0.2719282150268554
0.3675876617431640,0.2763050079345703
0.3662384033203125,0.2763050079345703
0.3630872726440429,0.2723407745361328
0.3630872726440429,0.2723407745361328
0.3672191619873047,0.2741077423095703
0.3672191619873047,0.2741077423095703
0.3655603408813476,0.2767313003540039
0.3655603408813476,0.2767313003540039
0.3654172897338867,0.2728517532348633
0.3654172897338867,0.2728517532348633
0.3689798355102539,0.2782213211059570
0.3689798355102539,0.2782213211059570
0.3650945663452148,0.2751932144165039
0.3650945663452148,0.2751932144165039
0.3698163986206054,0.2778842926025391
0.3698163986206054,0.2778842926025391
0.3687274932861328,0.2812528610229492
0.3687274932861328,0.2812528610229492
0.3692865371704102,0.2784399032592773
0.3692865371704102,0.2784399032592773
0.3735443115234375,0.2847616195678711
0.3735443115234375,0.2847616195678711
0.3702644348144531,0.2828916549682617
0.3702644348144531,0.2828916549682617
0.3754434585571289,0.2858522415161133
0.3754434585571289,0.2858522415161133
0.3747041702270508,0.2897741317749024
0.3747041702270508,0.2897741317749024
0.3753152847290039,0.2870258331298828
0.3753152847290039,0.2870258331298828
0.3794002532958984,0.2931507110595703
0.3794002532958984,0.2931507110595703
0.3756145477294922,0.2902456283569336
0.3756145477294922,0.2902456283569336
0.3800645828247070,0.2920852661132812
0.3800645828247070,0.2920852661132812
0.3784154891967773,0.2945943832397461
0.3784154891967773,0.2945943832397461
0.3778518676757812,0.2904905319213867
0.3778518676757812,0.2904905319213867
0.3810344696044922,0.2948822021484375
0.3810344696044922,0.2948822021484375
0.3763532638549805,0.2911920547485352
0.3763532638549805,0.2911920547485352
0.3802419662475586,0.2922964096069336
0.3767692565917969,0.2922964096069336
0.3784584045410156,0.2948862075805664
0.3784584045410156,0.2948862075805664
0.3778661727905273,0.2905557632446289
0.3778661727905273,0.2905557632446289
0.3814395904541015,0.2956220626831055
0.3814395904541015,0.2956220626831055
0.3772001266479492,0.2926151275634766
0.3772001266479492,0.2926151275634766
0.3815093994140625,0.2943454742431640
0.3815093994140625,0.2943454742431640
0.3802745819091797,0.2973964691162109
0.3802745819091797,0.2973964691162109
0.3800085067749023,0.2937131881713867
0.3800085067749023,0.2937131881713867
0.3839000701904297,0.2992126464843750
0.3839000701904297,0.2992126464843750
0.3798757553100586,0.2968219757080078
0.3798757553100586,0.2968219757080078
0.3843584060668945,0.2983715057373047
0.3843584060668945,0.2983715057373047
0.3833341598510742,0.3019008636474609
0.3833341598510742,0.3019008636474609
0.3830961227416992,0.2982919692993164
0.3830961227416992,0.2982919692993164
0.3870735168457031,0.3040678024291992
0.3870735168457031,0.3040678024291992
0.3831521987915039,0.3015415191650391
0.3831521987915039,0.3015415191650391
0.3875988006591797,0.3032850265502929
0.3875988006591797,0.3032850265502929
0.3867364883422851,0.3068910598754883
0.3867364883422851,0.3068910598754883
0.3865287780761719,0.3036140441894531
0.3865287780761719,0.3036140441894531
0.3906578063964843,0.3091804504394531
0.3906578063964843,0.3091804504394531
0.3867462158203125,0.3070976257324219
0.3867462158203125,0.3070976257324219
0.3914239883422851,0.3088451385498047
0.3914239883422851,0.3088451385498047
0.3905536651611328,0.3127790451049804
0.3905536651611328,0.3127790451049804
0.3903751373291016,0.3092565536499023
0.3903751373291016,0.3092565536499023
0.3944217681884766,0.3148143768310547
0.3944217681884766,0.3148143768310547
0.3903539657592773,0.3124494552612305
0.3903539657592773,0.3124494552612305
0.3942712783813476,0.3127435684204101
0.3942712783813476,0.3127435684204101
0.3909816741943359,0.3117994308471679
0.3909816741943359,0.3117994308471679
0.3852087020874023,0.2995559692382813
0.3852087020874023,0.2995559692382813
0.3822795867919922,0.2951150894165039
0.3822795867919922,0.2951150894165039
0.3729206085205078,0.2864593505859375
0.3729206085205078,0.2864593505859375
0.3738573074340820,0.2826358795166016
0.3738573074340820,0.2826358795166016
0.3699508666992187,0.2821786880493164
0.3699508666992187,0.2821786880493164
0.3669994354248047,0.2750942230224609
0.3669994354248047,0.2750942230224609
0.3690290451049805,0.2777938842773438
0.3666515350341797,0.2777938842773438
0.3632869720458984,0.2733455657958984
0.3665033340454101,0.2733455657958984
0.3664598464965820,0.2726760864257812
0.3664598464965820,0.2726760864257812
0.3645240783691406,0.2748973846435547
0.3645240783691406,0.2748973846435547
0.3632835388183593,0.2702917098999023
0.3617660522460938,0.2702917098999023
0.3668088912963867,0.2746633529663086
0.3649663925170898,0.2746633529663086
0.3621528625488281,0.2719911575317382
0.3621528625488281,0.2719911575317382
0.3662858963012695,0.2726583480834961
0.3662858963012695,0.2726583480834961
0.3652107238769531,0.2761287689208984
0.3652107238769531,0.2761287689208984
0.3644205093383789,0.2720340728759765
0.3644205093383789,0.2720340728759765
0.3685993194580078,0.2772542953491211
0.3685993194580078,0.2772542953491211
0.3645589828491211,0.2756280899047852
0.3645589828491211,0.2756280899047852
0.3693197250366211,0.2771827697753906
0.3693197250366211,0.2771827697753906
0.3690387725830078,0.2814142227172852
0.3690387725830078,0.2814142227172852
0.3688882827758789,0.2785091400146484
0.3688882827758789,0.2785091400146484
0.3737548828125000,0.2846643447875977
0.3737548828125000,0.2846643447875977
0.3702243804931640,0.2841773986816406
0.3702243804931640,0.2841773986816406
0.3754463195800781,0.2859386444091797
0.3754463195800781,0.2859386444091797
0.3753541946411132,0.2905179977416992
0.3753541946411132,0.2905179977416992
0.3750932693481445,0.2874526977539062
0.3750932693481445,0.2874526977539062
0.3796262741088867,0.2930265426635742
0.3796262741088867,0.2930265426635742
0.3754360198974609,0.2912435531616211
0.3754360198974609,0.2912435531616211
0.3795902252197266,0.2915571212768555
0.3795902252197266,0.2915571212768555
0.3786426544189453,0.2947036743164063
0.3786426544189453,0.2947036743164063
0.3771995544433593,0.2903097152709961
0.3771995544433593,0.2903097152709961
0.3808364868164062,0.2942413330078125
0.3788057327270508,0.2942413330078125
0.3759109497070313,0.2918609619140625
0.3798631668090820,0.2918609619140625
0.3797533035278320,0.2918300628662109
0.3797533035278320,0.2918300628662109
0.3786815643310547,0.2951980590820312
0.3786815643310547,0.2951980590820312
0.3775440216064453,0.2908304214477539
0.3775440216064453,0.2908304214477539
0.3815603256225586,0.2955127716064453
0.3815603256225586,0.2955127716064453
0.3771406173706054,0.2938711166381836
0.3771406173706054,0.2938711166381836
0.3814258575439453,0.2945377349853516
0.3814258575439453,0.2945377349853516
0.3808364868164062,0.2981391906738281
0.3808364868164062,0.2981391906738281
0.3799369812011719,0.2944307327270508
0.3799369812011719,0.2944307327270508
0.3843452453613281,0.2994781494140625
0.3843452453613281,0.2994781494140625
0.3800628662109375,0.2983469009399414
0.3800628662109375,0.2983469009399414
0.3844968795776367,0.2988607406616211
0.3844968795776367,0.2988607406616211
0.3841278076171875,0.3030092239379883
0.3841278076171875,0.3030092239379883
0.3832351684570313,0.2993923187255859
0.3832351684570313,0.2993923187255859
0.3878185272216797,0.3047510147094726
0.3878185272216797,0.3047510147094726
0.3836917877197266,0.3037679672241211
0.3836917877197266,0.3037679672241211
0.3881967544555664,0.3046073913574219
0.3881967544555664,0.3046073913574219
0.3882511138916016,0.3090934753417969
0.3882511138916016,0.3090934753417969
0.3875284194946289,0.3060499191284179
0.3875284194946289,0.3060499191284179
0.3923435211181641,0.3113313674926758
0.3923435211181641,0.3113313674926758
0.3882333755493164,0.3107305526733398
0.3882333755493164,0.3107305526733398
0.3897102355957031,0.3105154037475586
0.3897102355957031,0.3111865997314453
0.3897102355957031,0.3111865997314453
0.3952365875244140,0.3148464202880859
0.3922925949096679,0.3148464202880859
0.3921483993530273,0.3168605804443359
0.3921483993530273,0.3168605804443359
0.3943971633911132,0.3150552749633789
0.3943971633911132,0.3150552749633789
0.3972324371337890,0.3201622009277343
0.3972324371337890,0.3201622009277343
0.3928710937500000,0.3152240753173828
0.3928710937500000,0.3152240753173828
0.3955163955688477,0.3137689590454101
0.3955163955688477,0.3137689590454101
0.3865036010742187,0.3060510635375976
0.3865036010742187,0.3060510635375976
0.3806070327758789,0.2929944992065430
0.3806070327758789,0.2929944992065430
0.3776802062988281,0.2908281326293945
0.3776802062988281,0.2908281326293945
0.3700681686401367,0.2822393417358398
0.3700681686401367,0.2822393417358398
0.3724628448486328,0.2814399719238281
0.3724628448486328,0.2814399719238281
0.3669027328491211,0.2798830032348633
0.3669027328491211,0.2798830032348633
0.3667499542236328,0.2751468658447265
0.3667499542236328,0.2751468658447265
0.3678852081298828,0.2779563903808593
0.3678852081298828,0.2779563903808593
0.3630002975463867,0.2727493286132812
0.3630002975463867,0.2727493286132812
0.3672952651977539,0.2747217178344726
0.3672952651977539,0.2747217178344726
0.3636148452758789,0.2756509780883789
0.3636148452758789,0.2756509780883789
0.3646757125854492,0.2727109909057617
0.3624155044555664,0.2727109909057617
0.3674737930297852,0.2772994995117187
0.3674737930297852,0.2772994995117187
0.3633733749389648,0.2735263824462891
0.3633733749389648,0.2735263824462891
0.3685472488403320,0.2764606475830078
0.3685472488403320,0.2764606475830078
0.3655220031738281,0.2784765243530273
0.3655220031738281,0.2784765243530273
0.3673604965209961,0.2764526367187500
0.3673604965209961,0.2764526367187500
0.3707302093505859,0.2821008682250977
0.3707302093505859,0.2821008682250977
0.3674114227294922,0.2794172286987305
0.3674114227294922,0.2794172286987305
0.3732072830200195,0.2834558486938477
0.3732072830200195,0.2834558486938477
0.3713882446289062,0.2866504669189453
0.3713882446289062,0.2866504669189453
0.3735477447509766,0.2856027603149414
0.3735477447509766,0.2856027603149414
0.3775852203369141,0.2919822692871094
0.3775852203369141,0.2919822692871094
0.3744569778442383,0.2895074844360351
0.3744569778442383,0.2895074844360351
0.3802597045898438,0.2932971954345703
0.3802597045898438,0.2932971954345703
0.3780086517333984,0.2959018707275390
0.3780086517333984,0.2959018707275390
0.3793487548828125,0.2936319351196289
0.3793487548828125,0.2936319351196289
0.3823493957519531,0.2983966827392578
0.3823493957519531,0.2983966827392578
0.3781579971313476,0.2941165924072265
0.3781579971313476,0.2941165924072265
0.3827241897583007,0.2964649200439453
0.3827241897583007,0.2964649200439453
0.3795301437377930,0.2976167678833008
0.3795301437377930,0.2976167678833008
0.3798276901245117,0.2942567825317383
0.3798276901245117,0.2942567825317383
0.3825628280639649,0.2984710693359375
0.3825628280639649,0.2984710693359375
0.3780738830566406,0.2942533493041992
0.3780738830566406,0.2942533493041992
0.3828037261962891,0.2967390060424804
0.3828037261962891,0.2967390060424804
0.3799341201782226,0.2985483169555664
0.3799341201782226,0.2985483169555664
0.3807460784912109,0.2956546783447265
0.3807460784912109,0.2956546783447265
0.3839584350585937,0.3006505966186523
0.3839584350585937,0.3006505966186523
0.3799455642700195,0.2971675872802734
0.3799455642700195,0.2971675872802734
0.3849506378173828,0.3001041412353516
0.3849506378173828,0.3001041412353516
0.3827608108520508,0.3025388717651367
0.3827608108520508,0.3025388717651367
0.3836872100830078,0.3000492095947265
0.3836872100830078,0.3000492095947265
0.3871759414672851,0.3054067611694336
0.3871759414672851,0.3054067611694336
0.3832437515258789,0.3020484924316406
0.3832437515258789,0.3020484924316406
0.3884078979492188,0.3051298141479492
0.3884078979492188,0.3051298141479492
0.3863021850585938,0.3076784133911133
0.3900192260742187,0.3076784133911133
0.3870969772338867,0.3051486968994140
0.3870969772338867,0.3051486968994140
0.3905364990234375,0.3104793548583984
0.3905364990234375,0.3104793548583984
0.3867444992065430,0.3071697235107422
0.3867444992065430,0.3071697235107422
0.3916969299316406,0.3102779388427734
0.3916969299316406,0.3102779388427734
0.3897771835327148,0.3129341125488281
0.3897771835327148,0.3129341125488281
0.3904317855834961,0.3101497650146484
0.3904317855834961,0.3101497650146484
0.3940967559814453,0.3156206130981445
0.3934055328369140,0.3156206130981445
0.3902303695678711,0.3123996734619141
0.3902303695678711,0.3123996734619141
0.3951982498168945,0.3154415130615234
0.3951982498168945,0.3154415130615234
0.3933717727661133,0.3181566238403320
0.3933717727661133,0.3181566238403320
0.3939783096313477,0.3152235031127930
0.3939783096313477,0.3152235031127930
0.3974813461303711,0.3206789016723633
0.3974813461303711,0.3206789016723633
0.3933917999267578,0.3168548583984375
0.3933917999267578,0.3168548583984375
0.3970315933227539,0.3175025939941406
0.3970315933227539,0.3175025939941406
0.3917976379394531,0.3138822555541992
0.3917976379394531,0.3138822555541992
0.3857511520385742,0.3008943557739258
0.3857511520385742,0.3008943557739258
0.3818138122558594,0.2961301803588867
0.3818138122558594,0.2961301803588867
0.3726779937744141,0.2862951278686524
0.3726779937744141,0.2862951278686524
0.3739637374877929,0.2842838287353516
0.3739637374877929,0.2842838287353516
0.3695474624633789,0.2832075119018554
0.3695474624633789,0.2832075119018554
0.3676202774047851,0.2769430160522461
0.3676202774047851,0.2769430160522461
0.3693889617919922,0.2799213409423828
0.3693889617919922,0.2799213409423828
0.3640697479248047,0.2746576309204101
0.3640697479248047,0.2746576309204101
0.3676597595214844,0.2758483886718750
0.3676597595214844,0.2758483886718750
0.3652627944946289,0.2774963378906250
0.3652627944946289,0.2774963378906250
0.3648822784423828,0.2734142303466797
0.3648822784423828,0.2734142303466797
0.3682319641113281,0.2783849716186523
0.3682319641113281,0.2783849716186523
0.3640056610107422,0.2748321533203125
0.3672060012817382,0.2748321533203125
0.3686576843261719,0.2772748947143555
0.3686576843261719,0.2772748947143555
0.3670669555664062,0.2800260543823242
0.3670669555664062,0.2800260543823242
0.3674766540527344,0.2768989562988281
0.3674766540527344,0.2768989562988281
0.3714694976806641,0.2830158233642578
0.3714694976806641,0.2830158233642578
0.3679939270019531,0.2805587768554688
0.3679939270019531,0.2805587768554688
0.3731597900390625,0.2839868545532226
0.3731597900390625,0.2839868545532226
0.3725824356079102,0.2878944396972656
0.3725824356079102,0.2878944396972656
0.3736467361450195,0.2858362197875977
0.3736467361450195,0.2858362197875977
0.3781179428100586,0.2926031112670898
0.3781179428100586,0.2926031112670898
0.3748231887817383,0.2905660629272461
0.3748231887817383,0.2905660629272461
0.3801572799682617,0.2936399459838867
0.3801572799682617,0.2936399459838867
0.3792428970336914,0.2971830368041992
0.3792428970336914,0.2971830368041992
0.3793436050415039,0.2937704086303711
0.3778730392456054,0.2937704086303711
0.3828397750854492,0.2990793228149414
0.3828397750854492,0.2990793228149414
0.3785430908203125,0.2954235076904297
0.3785430908203125,0.2954235076904297
0.3824781417846679,0.2967350006103516
0.3824781417846679,0.2967350006103516
0.3805664062500000,0.2988492965698242
0.3805664062500000,0.2988492965698242
0.3796800613403320,0.2942647933959961
0.3796800613403320,0.2942647933959961
0.3828203201293945,0.2987319946289063
0.3828203201293945,0.2987319946289063
0.3781419754028320,0.2951293945312500
0.3781419754028320,0.2951293945312500
0.3822784423828125,0.2964363098144531
0.3822784423828125,0.2964363098144531
0.3805240631103515,0.2990381240844727
0.3805240631103515,0.2990381240844727
0.3802505493164062,0.2950098037719727
0.3802505493164062,0.2950098037719727
0.3837644577026367,0.3002712249755859
0.3837644577026367,0.3002712249755859
0.3797292709350586,0.2974084854125976
0.3797292709350586,0.2974084854125976
0.3840373992919922,0.2990959167480469
0.3840373992919922,0.2990959167480469
0.3827928543090820,0.3022481918334961
0.3827928543090820,0.3022481918334961
0.3825616836547852,0.2986146926879883
0.3825616836547852,0.2986146926879883
0.3864704132080078,0.3041542053222656
0.3864704132080078,0.3041542053222656
0.3823534011840820,0.3014928817749024
0.3823534011840820,0.3014928817749024
0.3869379043579101,0.3032701492309570
0.3869379043579101,0.3032701492309570
0.3858650207519531,0.3068040847778320
0.3858650207519531,0.3068040847778320
0.3857379913330078,0.3032896041870117
0.3857379913330078,0.3032896041870117
0.3896810531616211,0.3089527130126953
0.3896810531616211,0.3089527130126953
0.3857803344726562,0.3065517425537109
0.3857803344726562,0.3065517425537109
0.3903470993041992,0.3083169937133789
0.3903470993041992,0.3083169937133789
0.3893239974975586,0.3119985580444336
0.3893239974975586,0.3119985580444336
0.3891340255737304,0.3085052490234375
0.3891340255737304,0.3085052490234375
0.3931526184082031,0.3141901016235352
0.3931526184082031,0.3141901016235352
0.3894029617309570,0.3120786666870117
0.3894029617309570,0.3120786666870117
0.3940195083618164,0.3138462066650390
0.3940195083618164,0.3138462066650390
0.3930101394653320,0.3175655364990234
0.3930101394653320,0.3175655364990234
0.3928464889526367,0.3139188766479492
0.3928464889526367,0.3139188766479492
0.3968078613281250,0.3194458007812500
0.3968078613281250,0.3194458007812500
0.3926662445068359,0.3168445587158203
0.3926662445068359,0.3168445587158203
0.3963392257690430,0.3168439865112305
0.3963392257690430,0.3168439865112305
0.3930896759033203,0.3161092758178711
0.3930896759033203,0.3161092758178711
0.3872217178344726,0.3036426544189453
0.3872217178344726,0.3036426544189453
0.3837862014770508,0.2982044219970703
0.3837862014770508,0.2982044219970703
0.3737211227416992,0.2885181427001953
0.3755138397216797,0.2885181427001953
0.3744140625000000,0.2846534729003906
0.3744140625000000,0.2846534729003906
0.3705883026123047,0.2842987060546875
0.3705883026123047,0.2842987060546875
0.3677696228027343,0.2772491455078125
0.3677696228027343,0.2772491455078125
0.3697666168212890,0.2798406600952149
0.3697666168212890,0.2798406600952149
0.3640834808349609,0.2754901885986328
0.3640834808349609,0.2754901885986328
0.3673387527465820,0.2749174118041992
0.3673387527465820,0.2749174118041992
0.3655288696289062,0.2773246765136719
0.3655288696289062,0.2773246765136719
0.3642505645751953,0.2726297378540039
0.3642505645751953,0.2726297378540039
0.3679630279541016,0.2770895004272461
0.3679630279541016,0.2770895004272461
0.3633699417114258,0.2747303009033203
0.3633699417114258,0.2747303009033203
0.3675928115844727,0.2753185272216797
0.3675928115844727,0.2753185272216797
0.3666246414184570,0.2787969589233398
0.3666246414184570,0.2787969589233398
0.3659780502319336,0.2749225616455078
0.3659780502319336,0.2749225616455078
0.3702020645141602,0.2802446365356445
0.3702020645141602,0.2802446365356445
0.3662801742553711,0.2788415908813476
0.3662801742553711,0.2788415908813476
0.3710477828979492,0.2803104400634766
0.3710477828979492,0.2803104400634766
0.3709293365478515,0.2847867965698242
0.3709293365478515,0.2847867965698242
0.3708950042724609,0.2820745468139648
0.3708950042724609,0.2820745468139648
0.3758789062500000,0.2883230209350586
0.3758789062500000,0.2883230209350586
0.3771715164184570,0.2920612335205078
0.3771715164184570,0.2920612335205078
0.3746200561523437,0.2892911911010742
0.3746200561523437,0.2892911911010742
0.3803186416625977,0.2937469482421875
0.3803186416625977,0.2937469482421875
0.3770896911621094,0.2954343795776367
0.3770896911621094,0.2954343795776367
0.3796491622924805,0.2935861587524414
0.3796491622924805,0.2935861587524414
0.3817554473876953,0.2983234405517578
0.3817554473876953,0.2983234405517578
0.3781414031982422,0.2942138671875000
0.3781414031982422,0.2942138671875000
0.3795450210571289,0.2967596054077148
0.3795450210571289,0.2967596054077148
0.3785768508911133,0.2972980499267578
0.3828477859497070,0.2972980499267578
0.3803535461425781,0.2944524765014648
0.3803535461425781,0.2944524765014648
0.3821949005126953,0.2989305496215820
0.3821949005126953,0.2989305496215820
0.3782506942749023,0.2943958282470703
0.3801858901977539,0.2943958282470703
0.3831533432006836,0.2972700119018555
0.3800960540771484,0.2972700119018555
0.3794151306152344,0.2984550476074219
0.3837844848632813,0.2984550476074219
0.3814939498901367,0.2963790893554688
0.3814939498901367,0.2963790893554688
0.3838594436645508,0.3011020660400390
0.3838594436645508,0.3011020660400390
0.3802705764770508,0.2973695755004883
0.3825044631958008,0.2973695755004883
0.3854564666748047,0.3006277084350586
0.3854564666748047,0.3006277084350586
0.3820152282714844,0.3024593353271484
0.3820152282714844,0.3024593353271484
0.3842605590820312,0.3003267288208007
0.3842605590820312,0.3003267288208007
0.3868618011474609,0.3054794311523437
0.3868618011474609,0.3054794311523437
0.3832775115966797,0.3019077301025391
0.3832775115966797,0.3019077301025391
0.3886156082153320,0.3054794311523437
0.3886156082153320,0.3054794311523437
0.3853523254394531,0.3070512771606445
0.3853523254394531,0.3070512771606445
0.3874603271484375,0.3052671432495117
0.3874603271484375,0.3052671432495117
0.3903001785278320,0.3105239868164062
0.3903001785278320,0.3105239868164062
0.3867599487304688,0.3072315216064453
0.3867599487304688,0.3072315216064453
0.3921724319458008,0.3105543136596680
0.3921724319458008,0.3105543136596680
0.3890596389770508,0.3125724792480469
0.3890596389770508,0.3125724792480469
0.3912334442138672,0.3108243942260742
0.3912334442138672,0.3108243942260742
0.3942037582397461,0.3164434432983398
0.3942037582397461,0.3164434432983398
0.3907711029052734,0.3131166458129883
0.3907711029052734,0.3131166458129883
0.3961584091186524,0.3166025161743164
0.3961584091186524,0.3166025161743164
0.3932853698730469,0.3186738967895508
0.3975219726562500,0.3186738967895508
0.3951021194458008,0.3167787551879883
0.3951021194458008,0.3167787551879883
0.3975317001342774,0.3207115173339843
0.3975317001342774,0.3207115173339843
0.3917392730712890,0.3133529663085937
0.3917392730712890,0.3133529663085937
0.3921134948730469,0.3084268569946289
0.3921134948730469,0.3084268569946289
0.3819477081298828,0.2996315002441406
0.3819477081298828,0.2996315002441406
0.3769844055175781,0.2886932373046875
0.3769844055175781,0.2886932373046875
0.3756683349609375,0.2881513595581054
0.3756683349609375,0.2881513595581054
0.3687566757202148,0.2803144454956055
0.3687566757202148,0.2803144454956055
0.3714260101318359,0.2800060272216797
0.3714260101318359,0.2800060272216797
0.3664363861083984,0.2788822174072266
0.3664363861083984,0.2788822174072266
0.3661554336547851,0.2741563796997070
0.3661554336547851,0.2741563796997070
0.3679121017456055,0.2773698806762695
0.3679121017456055,0.2773698806762695
0.3630168914794922,0.2725908279418945
0.3630168914794922,0.2725908279418945
0.3675344467163086,0.2743886947631836
0.3675344467163086,0.2743886947631836
0.3642036437988281,0.2756772994995117
0.3679126739501953,0.2756772994995117
0.3651369094848633,0.2727081298828125
0.3651369094848633,0.2727081298828125
0.3680265426635742,0.2774997711181640
0.3675596237182617,0.2774997711181640
0.3638780593872070,0.2735498428344726
0.3638780593872070,0.2735498428344726
0.3689815521240234,0.2764600753784179
0.3689815521240234,0.2764600753784179
0.3664106369018554,0.2785406112670898
0.3664106369018554,0.2785406112670898
0.3676849365234375,0.2765316009521484
0.3676849365234375,0.2765316009521484
0.3712417602539063,0.2819938659667969
0.3712417602539063,0.2819938659667969
0.3678033828735351,0.2791580200195312
0.3678033828735351,0.2791580200195312
0.3735443115234375,0.2831502914428711
0.3735443115234375,0.2831502914428711
0.3718597412109375,0.2867300033569336
0.3718597412109375,0.2867300033569336
0.3737623214721680,0.2852983474731445
0.3737623214721680,0.2852983474731445
0.3778976440429687,0.2917556762695312
0.3778976440429687,0.2917556762695312
0.3748432159423828,0.2893198013305664
0.3748432159423828,0.2893198013305664
0.3805452346801758,0.2933401107788086
0.3805452346801758,0.2933401107788086
0.3785951614379883,0.2960083007812500
0.3785951614379883,0.2960083007812500
0.3797109603881836,0.2936090469360351
0.3797109603881836,0.2936090469360351
0.3829799652099609,0.2985643386840820
0.3829799652099609,0.2985643386840820
0.3787090301513672,0.2947540283203125
0.3787090301513672,0.2947540283203125
0.3832328796386719,0.2968030929565429
0.3832328796386719,0.2968030929565429
0.3804170608520508,0.2982662200927734
0.3804170608520508,0.2982662200927734
0.3806241989135742,0.2946567535400391
0.3806241989135742,0.2946567535400391
0.3834274291992187,0.2991634368896484
0.3834274291992187,0.2991634368896484
0.3788749694824219,0.2948118209838867
0.3788749694824219,0.2948118209838867
0.3834423065185547,0.2972076416015625
0.3834423065185547,0.2972076416015625
0.3811265945434570,0.2992435455322265
0.3845838546752929,0.2992435455322265
0.3816192626953125,0.2963138580322265
0.3816192626953125,0.2963138580322265
0.3849632263183594,0.3012903213500976
0.3849632263183594,0.3012903213500976
0.3808908462524414,0.2977798461914062
0.3808908462524414,0.2977798461914062
0.3857374191284180,0.3006465911865234
0.3857374191284180,0.3006465911865234
0.3838685989379882,0.3034063339233398
0.3838685989379882,0.3034063339233398
0.3844556808471680,0.3004051208496094
0.3844556808471680,0.3004051208496094
0.3880165100097656,0.3058467864990234
0.3880165100097656,0.3058467864990234
0.3841478347778320,0.3026784896850586
0.3841478347778320,0.3026784896850586
0.3890802383422852,0.3058027267456054
0.3890802383422852,0.3058027267456054
0.3872995376586914,0.3084623336791992
0.3908964157104492,0.3084623336791992
0.3879140853881836,0.3056510925292968
0.3879140853881836,0.3056510925292968
0.3916030883789062,0.3112844467163086
0.3916030883789062,0.3112844467163086
0.3877721786499023,0.3082998275756836
0.3877721786499023,0.3082998275756836
0.3925981521606445,0.3110429763793945
0.3925981521606445,0.3110429763793945
0.3910554885864257,0.3138547897338867
0.3910554885864257,0.3138547897338867
0.3914983749389648,0.3109113693237305
0.3914983749389648,0.3109113693237305
0.3951730728149414,0.3167398452758789
0.3951730728149414,0.3167398452758789
0.3912569046020508,0.3134696960449219
0.3912569046020508,0.3134696960449219
0.3960783004760742,0.3162117004394531
0.3960783004760742,0.3162117004394531
0.3946380615234375,0.3191579818725586
0.3946380615234375,0.3191579818725586
0.3949224472045899,0.3161579132080078
0.3949224472045899,0.3161579132080078
0.3982778549194336,0.3209907531738281
0.3982778549194336,0.3209907531738281
0.3932464599609375,0.3155782699584961
0.3932464599609375,0.3155782699584961
0.3944005966186523,0.3118532180786133
0.3944005966186523,0.3118532180786133
0.3863645553588867,0.3045667648315429
0.3863645553588867,0.3045667648315429
0.3789402008056640,0.2905054092407227
0.3789402008056640,0.2905054092407227
0.3774192810058594,0.2893220901489258
0.3774192810058594,0.2893220901489258
0.3699234008789062,0.2814411163330078
0.3699234008789062,0.2814411163330078
0.3717830657958984,0.2799911499023438
0.3717830657958984,0.2799911499023438
0.3680007934570312,0.2795648574829102
0.3680007934570312,0.2795648574829102
0.3661382675170898,0.2734153747558594
0.3661382675170898,0.2734153747558594
0.3683607101440430,0.2768697738647461
0.3683607101440430,0.2768697738647461
0.3632228851318359,0.2724025726318359
0.3632228851318359,0.2724025726318359
0.3669101715087891,0.2731481552124023
0.3669101715087891,0.2731481552124023
0.3649646759033203,0.2752916336059570
0.3679138183593750,0.2752916336059570
0.3644353866577149,0.2710115432739258
0.3627136230468750,0.2710115432739258
0.3665285110473633,0.2761259078979492
0.3660432815551758,0.2761259078979492
0.3635107040405273,0.2727705001831054
0.3635107040405273,0.2727705001831054
0.3678176879882812,0.2744739532470703
0.3678176879882812,0.2744739532470703
0.3665679931640625,0.2774929046630859
0.3665679931640625,0.2774929046630859
0.3664936065673828,0.2742141723632812
0.3652307510375977,0.2742141723632812
0.3704612731933594,0.2798389434814453
0.3704612731933594,0.2798389434814453
0.3670000076293945,0.2776811599731445
0.3670000076293945,0.2776811599731445
0.3720239639282226,0.2803705215454101
0.3720239639282226,0.2803705215454101
0.3715106964111328,0.2847890853881836
0.3715106964111328,0.2847890853881836
0.3719810485839843,0.2821586608886719
0.3719810485839843,0.2821586608886719
0.3767200469970703,0.2888929367065430
0.3758371353149414,0.2888929367065430
0.3735923767089844,0.2874435424804687
0.3735923767089844,0.2874435424804687
0.3787113189697265,0.2902141571044922
0.3787113189697265,0.2902141571044922
0.3781196594238281,0.2941417694091797
0.3781196594238281,0.2941417694091797
0.3781929016113281,0.2907995223999023
0.3769048690795898,0.2907995223999023
0.3821714401245117,0.2962497711181640
0.3821714401245117,0.2962497711181640
0.3779090881347656,0.2935787200927734
0.3779090881347656,0.2935787200927734
0.3820426940917969,0.2943414688110351
0.3820426940917969,0.2943414688110351
0.3804187774658203,0.2970256805419922
0.3804187774658203,0.2970256805419922
0.3795593261718750,0.2924972534179687
0.3795593261718750,0.2924972534179687
0.3828855514526367,0.2973455429077148
0.3828855514526367,0.2973455429077148
0.3783634185791016,0.2942213058471679
0.3783634185791016,0.2942213058471679
0.3824420928955078,0.2950727462768555
0.3824420928955078,0.2950727462768555
0.3811689376831054,0.2982370376586914
0.3811689376831054,0.2982370376586914
0.3806207656860351,0.2944919586181641
0.3806207656860351,0.2944919586181641
0.3846296310424804,0.2996383666992187
0.3843292236328125,0.2975297927856445
0.3849723815917969,0.2989414215087891
0.3818384170532226,0.2989414215087891
0.3841415405273437,0.3028999328613281
0.3841415405273437,0.3028999328613281
0.3839178085327148,0.2993396759033203
0.3839178085327148,0.2993396759033203
0.3881526947021484,0.3050233840942383
0.3881526947021484,0.3050233840942383
0.3841993331909180,0.3032621383666992
0.3841993331909180,0.3032621383666992
0.3888822555541992,0.3048809051513672
0.3888822555541992,0.3048809051513672
0.3881521224975586,0.3086580276489257
0.3881521224975586,0.3086580276489257
0.3877286911010742,0.3051715850830078
0.3877286911010742,0.3051715850830078
0.3920099258422852,0.3107728958129883
0.3920099258422852,0.3107728958129883
0.3880187988281250,0.3092617034912109
0.3880187988281250,0.3092617034912109
0.3926347732543945,0.3103300094604492
0.3926347732543945,0.3103300094604492
0.3919212341308594,0.3142330169677734
0.3919212341308594,0.3142330169677734
0.3909072875976562,0.3146060943603515
0.3957275390625000,0.3146060943603515
0.3936641693115234,0.3131000518798828
0.3936641693115234,0.3131000518798828
0.3958803176879883,0.3182338714599609
0.3958803176879883,0.3182338714599609
0.3929580688476562,0.3147817611694336
0.3929580688476562,0.3147817611694336
0.3980180740356445,0.3186195373535156
0.3980180740356445,0.3186195373535156
0.3945230484008789,0.3200986862182617
0.3945230484008789,0.3200986862182617
0.3970378875732422,0.3182779312133789
0.3970378875732422,0.3182779312133789
0.3991086959838867,0.3226381301879883
0.3991086959838867,0.3226381301879883
0.3947170257568359,0.3168096542358398
0.3947170257568359,0.3168096542358398
0.3962488174438477,0.3139961242675781
0.3962488174438477,0.3139961242675781
0.3859228134155273,0.3048242568969726
0.3859228134155273,0.3048242568969726
0.3807008743286133,0.2919553756713867
0.3807008743286133,0.2919553756713867
0.3775177001953125,0.2898948669433594
0.3775177001953125,0.2898948669433594
0.3704475402832031,0.2814050674438476
0.3704475402832031,0.2814050674438476
0.3727827072143555,0.2808815002441406
0.3727827072143555,0.2808815002441406
0.3669719696044922,0.2790487289428711
0.3669719696044922,0.2790487289428711
0.3674463272094726,0.2745214462280273
0.3674463272094726,0.2745214462280273
0.3684099197387695,0.2773996353149414
0.3684099197387695,0.2773996353149414
0.3636320114135742,0.2721822738647461
0.3636320114135742,0.2721822738647461
0.3680076599121094,0.2741941452026367
0.3680076599121094,0.2741941452026367
0.3639072418212890,0.2749202728271484
0.3639072418212890,0.2749202728271484
0.3656839370727539,0.2723173141479492
0.3656839370727539,0.2723173141479492
0.3679012298583984,0.2768325805664062
0.3679012298583984,0.2768325805664062
0.3640588760375976,0.2727476119995117
0.3640588760375976,0.2727476119995117
0.3692453384399414,0.2758844375610351
0.3692453384399414,0.2758844375610351
0.3658681869506836,0.2775695800781250
0.3658681869506836,0.2775695800781250
0.3681369781494140,0.2757476806640625
0.3681369781494140,0.2757476806640625
0.3710861206054688,0.2812145233154297
0.3710861206054688,0.2812145233154297
0.3679361343383789,0.2784353256225586
0.3679361343383789,0.2784353256225586
0.3737903594970703,0.2825477600097656
0.3737903594970703,0.2825477600097656
0.3712726593017578,0.2853641510009766
0.3712726593017578,0.2853641510009766
0.3741176605224609,0.2845235824584961
0.3741176605224609,0.2845235824584961
0.3777288436889648,0.2909139633178711
0.3777288436889648,0.2909139633178711
0.3749216079711914,0.2886096954345703
0.3749216079711914,0.2886096954345703
0.3808055877685547,0.2926860809326172
0.3808055877685547,0.2926860809326172
0.3782712936401367,0.2950796127319336
0.3782712936401367,0.2950796127319336
0.3802951812744140,0.2933097839355469
0.3802951812744140,0.2933097839355469
0.3831768035888672,0.2983171463012695
0.3829730987548828,0.2983171463012695
0.3790735244750976,0.2942647933959961
0.3790735244750976,0.2942647933959961
0.3838943481445312,0.2966114044189453
0.3838943481445312,0.2966114044189453
0.3802900314331055,0.2977066040039062
0.3802900314331055,0.2977066040039062
0.3812089920043945,0.2944707870483398
0.3812089920043945,0.2944707870483398
0.3835189819335937,0.2986324310302734
0.3829313278198242,0.2986324310302734
0.3815116882324219,0.2942098617553711
0.3815116882324219,0.2942098617553711
0.3806230545043945,0.2967247009277343
0.3803604125976562,0.2967247009277343
0.3806436538696289,0.2982284545898438
0.3806436538696289,0.2982284545898438
0.3817388534545899,0.2955636978149414
0.3817388534545899,0.2955636978149414
0.3847915649414063,0.3004034042358398
0.3847915649414063,0.3004034042358398
0.3807718276977539,0.2968597412109375
0.3807718276977539,0.2968597412109375
0.3859640121459961,0.2999799728393555
0.3859640121459961,0.2999799728393555
0.3832609176635742,0.3020799636840820
0.3832609176635742,0.3020799636840820
0.3846181869506836,0.2997722625732422
0.3846181869506836,0.2997722625732422
0.3879507064819336,0.3051469802856445
0.3879507064819336,0.3051469802856445
0.3841203689575195,0.3018785476684570
0.3841203689575195,0.3018785476684570
0.3893960952758789,0.3051578521728516
0.3893960952758789,0.3051578521728516
0.3871570587158203,0.3076875686645508
0.3871570587158203,0.3076875686645508
0.3884948730468750,0.3056550979614258
0.3884948730468750,0.3056550979614258
0.3920013427734375,0.3111505508422852
0.3920013427734375,0.3111505508422852
0.3881864547729492,0.3079141616821289
0.3881864547729492,0.3079141616821289
0.3935068130493164,0.3112043380737304
0.3935068130493164,0.3112043380737304
0.3912014007568359,0.3137969970703125
0.3912014007568359,0.3137969970703125
0.3924184799194336,0.3116632461547851
0.3924184799194336,0.3116632461547851
0.3959981918334961,0.3172273635864258
0.3959981918334961,0.3172273635864258
0.3923103332519531,0.3141740798950195
0.3923103332519531,0.3141740798950195
0.3978000640869140,0.3177938461303711
0.3978000640869140,0.3177938461303711
0.3957738876342773,0.3205312728881836
0.3957738876342773,0.3205312728881836
0.3967855453491211,0.3182727813720703
0.3950609207153320,0.3182727813720703
0.4004991531372070,0.3237545013427734
0.3999504089355468,0.3237545013427734
0.3967071533203125,0.3205873489379883
0.3967071533203125,0.3205873489379883
0.4014009475708007,0.3230375289916992
0.4014009475708007,0.3230375289916992
0.3979763031005859,0.3229557037353515
0.3979763031005859,0.3229557037353515
0.3949241638183594,0.3132940292358398
0.3949241638183594,0.3132940292358398
0.3912134170532227,0.3073780059814453
0.3912134170532227,0.3073780059814453
0.3792829513549805,0.2927118301391601
0.3792829513549805,0.2927118301391601
0.3784532546997070,0.2883630752563476
0.3784532546997070,0.2883630752563476
0.3729572296142578,0.2860479354858398
0.3729572296142578,0.2860479354858398
0.3708824157714843,0.2794824600219726
0.3708824157714843,0.2794824600219726
0.3723043441772461,0.2818462371826172
0.3723043441772461,0.2818462371826172
0.3664981842041016,0.2761293411254883
0.3664981842041016,0.2761293411254883
0.3700853347778320,0.2769882202148438
0.3664283752441406,0.2769882202148438
0.3672563552856445,0.2782745361328125
0.3672563552856445,0.2782745361328125
0.3670658111572265,0.2742033004760742
0.3670658111572265,0.2742033004760742
0.3700527191162109,0.2789474487304687
0.3700527191162109,0.2789474487304687
0.3658349990844726,0.2751153945922851
0.3658349990844726,0.2751153945922851
0.3704000473022461,0.2776565551757812
0.3704000473022461,0.2776565551757812
0.3687063217163086,0.2802738189697265
0.3687063217163086,0.2802738189697265
0.3690547943115234,0.2771301269531250
0.3690547943115234,0.2771301269531250
0.3729154586791992,0.2828836441040039
0.3729154586791992,0.2828836441040039
0.3694238662719727,0.2803207397460937
0.3694238662719727,0.2803207397460937
0.3746669769287109,0.2838317871093750
0.3746669769287109,0.2838317871093750
0.3738252639770508,0.2876964569091797
0.3776641845703125,0.2876964569091797
0.3749650955200195,0.2857435226440430
0.3749650955200195,0.2857435226440430
0.3796308517456055,0.2927289962768554
0.3796308517456055,0.2927289962768554
0.3766965866088867,0.2910404205322266
0.3766965866088867,0.2910404205322266
0.3819568634033203,0.2946825027465820
0.3819568634033203,0.2946825027465820
0.3813549041748047,0.2983743667602539
0.3813549041748047,0.2983743667602539
0.3818401336669922,0.2955848693847656
0.3818401336669922,0.2955848693847656
0.3856922149658203,0.3011981964111328
0.3856922149658203,0.3011981964111328
0.3816226959228515,0.2979354858398438
0.3816226959228515,0.2979354858398438
0.3858352661132812,0.2996006011962891
0.3858352661132812,0.2996006011962891
0.3840196609497070,0.3018350601196289
0.3840196609497070,0.3018350601196289
0.3833702087402344,0.2975166320800781
0.3833702087402344,0.2975166320800781
0.3864109039306641,0.3020931243896484
0.3864109039306641,0.3020931243896484
0.3820266723632812,0.2982851028442383
0.3820266723632812,0.2982851028442383
0.3859405517578125,0.2997968673706055
0.3859405517578125,0.2997968673706055
0.3842582702636719,0.3023672103881836
0.3842582702636719,0.3023672103881836
0.3838714599609375,0.2985151290893555
0.3838714599609375,0.2985151290893555
0.3875827789306641,0.3037399291992187
0.3875827789306641,0.3037399291992187
0.3836065292358398,0.3010282516479492
0.3836065292358398,0.3010282516479492
0.3879798889160156,0.3029325485229492
0.3879798889160156,0.3029325485229492
0.3868228912353516,0.3061769485473633
0.3868228912353516,0.3061769485473633
0.3867622375488281,0.3028032302856445
0.3867622375488281,0.3028032302856445
0.3906955718994141,0.3084880828857422
0.3906955718994141,0.3084880828857422
0.3869035720825195,0.3061357498168945
0.3869035720825195,0.3061357498168945
0.3913776397705078,0.3080560684204102
0.3913776397705078,0.3080560684204102
0.3904672622680664,0.3115013122558594
0.3904672622680664,0.3115013122558594
0.3903488159179687,0.3082511901855469
0.3903488159179687,0.3082511901855469
0.3942712783813476,0.3138244628906250
0.3942712783813476,0.3138244628906250
0.3902618408203125,0.3115333557128906
0.3902618408203125,0.3115333557128906
0.3949081420898438,0.3130599975585938
0.3949081420898438,0.3130599975585938
0.3938999176025391,0.3167953491210938
0.3938999176025391,0.3167953491210938
0.3936555862426758,0.3133277893066406
0.3936555862426758,0.3133277893066406
0.3975849151611328,0.3189319610595703
0.3975849151611328,0.3189319610595703
0.3937963485717773,0.3167169570922851
0.3937963485717773,0.3167169570922851
0.3982904434204101,0.3184741973876953
0.3982904434204101,0.3184741973876953
0.3975757598876953,0.3222742080688477
0.3975757598876953,0.3222742080688477
0.3971918106079101,0.3189262390136718
0.3971918106079101,0.3189262390136718
0.4013980865478515,0.3243810653686524
0.4013980865478515,0.3243810653686524
0.3974395751953125,0.3224092483520508
0.3974395751953125,0.3224092483520508
