REDsignal,IRsignal
0.5376228332519531,0.7569305419921875
0.5376228332519531,0.7569305419921875
0.5399333953857421,0.7561403274536133
0.5399333953857421,0.7561403274536133
0.5411647796630860,0.7608346939086914
0.5411647796630860,0.7608346939086914
0.5392616271972656,0.7590133666992187
0.5392616271972656,0.7590133666992187
0.5430707931518555,0.7626337051391602
0.5430707931518555,0.7626337051391602
0.5414737701416016,0.7644985198974609
0.5414737701416016,0.7644985198974609
0.5427080154418945,0.7635583877563477
0.5427080154418945,0.7635583877563477
0.5445207595825196,0.7696701049804687
0.5445207595825196,0.7696701049804687
0.5434301376342773,0.7673440933227539
0.5434301376342773,0.7673440933227539
0.5473068237304687,0.7713249206542968
0.5473068237304687,0.7713249206542968
0.5446083068847656,0.7729328155517577
0.5446083068847656,0.7729328155517577
0.5457527160644531,0.7721780776977539
0.5457527160644531,0.7721780776977539
0.5482051849365234,0.7768827438354492
0.5482051849365234,0.7768827438354492
0.5467512130737304,0.7745246887207031
0.5467512130737304,0.7745246887207031
0.5496974945068359,0.7776180267333984
0.5496974945068359,0.7776180267333984
0.5471477508544922,0.7798215866088867
0.5471477508544922,0.7798215866088867
0.5489553451538086,0.7782348632812500
0.5489553451538086,0.7782348632812500
0.5511817932128906,0.7825241088867188
0.5511817932128906,0.7825241088867188
0.5486629486083984,0.7799016952514648
0.5486629486083984,0.7799016952514648
0.5513414382934571,0.7830802917480468
0.5513414382934571,0.7830802917480468
0.5492689132690429,0.7838876724243163
0.5492689132690429,0.7838876724243163
0.5505489349365235,0.7825126647949219
0.5505489349365235,0.7825126647949219
0.5520372390747070,0.7858583450317382
0.5520372390747070,0.7858583450317382
0.5491321563720702,0.7826808929443360
0.5491321563720702,0.7826808929443360
0.5516532897949219,0.7840970993041992
0.5516532897949219,0.7840970993041992
0.5486228942871093,0.7828136444091797
0.5486228942871093,0.7828136444091797
0.5480134963989257,0.7780895233154297
0.5480134963989257,0.7780895233154297
0.5479516983032227,0.7787990570068359
0.5479516983032227,0.7787990570068359
0.5441236495971680,0.7715394973754882
0.5441236495971680,0.7715394973754882
0.5448595046997070,0.7687036514282226
0.5448595046997070,0.7687036514282226
0.5398767471313476,0.7641540527343750
0.5398767471313476,0.7641540527343750
0.5387832641601562,0.7585636138916015
0.5387832641601562,0.7585636138916015
0.5394802093505859,0.7593755722045898
0.5394802093505859,0.7593755722045898
0.5365407943725585,0.7548025131225585
0.5365407943725585,0.7548025131225585
0.5387363433837891,0.7559743881225586
0.5387363433837891,0.7559743881225586
0.5362781524658203,0.7567171096801758
0.5362781524658203,0.7567171096801758
0.5378019332885742,0.7547458648681641
0.5378019332885742,0.7547458648681641
0.5401205062866211,0.7588062286376953
0.5401205062866211,0.7588062286376953
0.5380685806274413,0.7559829711914062
0.5380685806274413,0.7559829711914062
0.5410783767700195,0.7591209411621094
0.5410783767700195,0.7591209411621094
0.5394464492797851,0.7606510162353516
0.5394464492797851,0.7606510162353516
0.5410211563110351,0.7592336654663085
0.5410211563110351,0.7592336654663085
0.5431274414062500,0.7638936996459961
0.5431274414062500,0.7638936996459961
0.5407075881958008,0.7621204376220703
0.5430364608764648,0.7621204376220703
0.5446380615234375,0.7655525207519531
0.5446380615234375,0.7655525207519531
0.5427858352661132,0.7674665451049805
0.5427858352661132,0.7674665451049805
0.5440109252929687,0.7661138534545898
0.5440109252929687,0.7661138534545898
0.5462179183959961,0.7709981918334960
0.5462179183959961,0.7709981918334960
0.5441585540771484,0.7687889099121094
0.5441585540771484,0.7687889099121094
0.5479494094848633,0.7715509414672851
0.5479494094848633,0.7715509414672851
0.5451587677001953,0.7732955932617187
0.5451587677001953,0.7732955932617187
0.5461818695068359,0.7720275878906250
0.5461818695068359,0.7720275878906250
0.5489027023315429,0.7759798049926757
0.5489027023315429,0.7759798049926757
0.5463026046752929,0.7738386154174804
0.5463026046752929,0.7738386154174804
0.5496019363403321,0.7759740829467773
0.5496019363403321,0.7759740829467773
0.5469274520874023,0.7779018402099609
0.5469274520874023,0.7779018402099609
0.5481817245483398,0.7756530761718750
0.5481817245483398,0.7756530761718750
0.5506542205810546,0.7795303344726562
0.5506542205810546,0.7795303344726562
0.5474510192871094,0.7771476745605469
0.5474510192871094,0.7771476745605469
0.5506130218505859,0.7797197341918946
0.5506130218505859,0.7797197341918946
0.5486206054687500,0.7809442520141602
0.5486206054687500,0.7809442520141602
0.5497364044189453,0.7793197631835938
0.5497364044189453,0.7793197631835938
0.5518449783325196,0.7827644348144531
0.5518449783325196,0.7827644348144531
0.5487018585205078,0.7807388305664062
0.5487018585205078,0.7807388305664062
0.5511371612548828,0.7810873031616211
0.5511371612548828,0.7810873031616211
0.5527193069458007,0.7831907272338867
0.5506507873535156,0.7831907272338867
0.5481765747070312,0.7829212188720703
0.5481765747070312,0.7829212188720703
0.5512796401977539,0.7823890686035156
0.5512796401977539,0.7823890686035156
0.5524040222167969,0.7846956253051758
0.5524040222167969,0.7846956253051758
0.5478355407714843,0.7783979415893555
0.5478355407714843,0.7783979415893555
0.5503709793090820,0.7798822402954101
0.5503709793090820,0.7798822402954101
0.5444618225097656,0.7749481201171875
0.5444618225097656,0.7749481201171875
0.5471448898315430,0.7694761276245117
0.5471448898315430,0.7694761276245117
0.5422994613647460,0.7658334732055664
0.5422994613647460,0.7658334732055664
0.5377738952636718,0.7582082748413086
0.5377738952636718,0.7582082748413086
0.5391740798950195,0.7570741653442382
0.5391740798950195,0.7570741653442382
0.5343549728393554,0.7524484634399414
0.5343549728393554,0.7524484634399414
0.5344133377075195,0.7487794876098632
0.5344133377075195,0.7487794876098632
0.5329439163208007,0.7500497817993164
0.5329439163208007,0.7500497817993164
0.5299472808837891,0.7451087951660156
0.5299472808837891,0.7451087951660156
0.5339115142822265,0.7473306655883789
0.5339115142822265,0.7473306655883789
0.5289693832397461,0.7454927444458007
0.5289693832397461,0.7454927444458007
0.5316032409667969,0.7454263687133789
0.5316032409667969,0.7454263687133789
0.5317411422729492,0.7487382888793945
0.5317411422729492,0.7487382888793945
0.5306179046630859,0.7457885742187500
0.5306179046630859,0.7457885742187500
0.5339389801025390,0.7491165161132812
0.5339389801025390,0.7491165161132812
0.5307621002197266,0.7502426147460938
0.5307621002197266,0.7502426147460938
0.5346593856811523,0.7516204833984375
0.5346593856811523,0.7516204833984375
0.5367559432983399,0.7566415786743164
0.5367559432983399,0.7566415786743164
0.5352693557739258,0.7548082351684570
0.5352693557739258,0.7548082351684570
0.5405290603637695,0.7605056762695312
0.5405290603637695,0.7605056762695312
0.5377367019653320,0.7615270614624023
0.5377367019653320,0.7615270614624023
0.5430330276489258,0.7628631591796875
0.5430330276489258,0.7628631591796875
0.5426141738891601,0.7661064147949218
0.5445013046264648,0.7661064147949218
0.5409090042114257,0.7638776779174804
0.5409090042114257,0.7638776779174804
0.5451524734497070,0.7678962707519531
0.5451524734497070,0.7678962707519531
0.5435606002807617,0.7676347732543946
0.5435606002807617,0.7676347732543946
0.5444343566894531,0.7662672042846680
0.5444343566894531,0.7662672042846680
0.5447113037109375,0.7705776214599609
0.5447113037109375,0.7705776214599609
0.5429489135742187,0.7674362182617187
0.5429489135742187,0.7674362182617187
0.5487922668457031,0.7707389831542969
0.5487922668457031,0.7707389831542969
0.5431297302246093,0.7693130493164062
0.5431297302246093,0.7693130493164062
0.5456748962402344,0.7702297210693360
0.5456748962402344,0.7702297210693360
0.5463243484497070,0.7736978530883789
0.5463243484497070,0.7736978530883789
0.5465801239013671,0.7712408065795898
0.5465801239013671,0.7712408065795898
0.5484237670898438,0.7736377716064453
0.5484237670898438,0.7736377716064453
0.5450826644897461,0.7746414184570313
0.5450826644897461,0.7746414184570313
0.5474658966064453,0.7749950408935546
0.5474658966064453,0.7749950408935546
0.5501340866088867,0.7786102294921875
0.5501340866088867,0.7786102294921875
0.5466396331787109,0.7753520965576172
0.5466396331787109,0.7753520965576172
0.5502582550048828,0.7797294616699219
0.5502582550048828,0.7797294616699219
0.5470647811889648,0.7797821044921874
0.5470647811889648,0.7797821044921874
0.5511783599853516,0.7800762176513671
0.5511783599853516,0.7800762176513671
0.5502187728881835,0.7823730468750000
0.5502187728881835,0.7823730468750000
0.5481164932250976,0.7799680709838867
0.5481164932250976,0.7799680709838867
0.5511611938476563,0.7819644927978515
0.5511611938476563,0.7819644927978515
0.5487756729125977,0.7796859741210938
0.5487756729125977,0.7796859741210938
0.5481056213378906,0.7755105972290038
0.5481056213378906,0.7755105972290038
0.5470018386840820,0.7754802703857422
0.5470018386840820,0.7754802703857422
0.5430421829223633,0.7670671463012695
0.5430421829223633,0.7670671463012695
0.5460147857666016,0.7653636932373047
0.5415544509887695,0.7653636932373047
0.5390110015869141,0.7602052688598633
0.5390110015869141,0.7602052688598633
0.5397932052612304,0.7569911956787109
0.5397932052612304,0.7569911956787109
0.5388290405273437,0.7572143554687499
0.5388290405273437,0.7572143554687499
0.5371484756469727,0.7511833190917968
0.5371484756469727,0.7511833190917968
0.5378631591796875,0.7514104843139648
0.5378631591796875,0.7514104843139648
0.5335773468017578,0.7501419067382812
0.5335773468017578,0.7501419067382812
0.5353883743286133,0.7486415863037109
0.5353883743286133,0.7486415863037109
0.5371192932128906,0.7512748718261718
0.5371192932128906,0.7512748718261718
0.5333095550537109,0.7469856262207031
0.5333095550537109,0.7469856262207031
0.5367301940917969,0.7509063720703125
0.5367301940917969,0.7509063720703125
0.5336791992187500,0.7511003494262695
0.5336791992187500,0.7511003494262695
0.5375558853149414,0.7512199401855468
0.5375558853149414,0.7512199401855468
0.5374683380126953,0.7548683166503906
0.5374683380126953,0.7548683166503906
0.5361076354980469,0.7537673950195313
0.5361076354980469,0.7537673950195313
0.5404323577880860,0.7589069366455078
0.5404323577880860,0.7589069366455078
0.5399562835693359,0.7605285644531250
0.5399562835693359,0.7605285644531250
0.5414314270019531,0.7604249954223633
0.5414314270019531,0.7604249954223633
0.5430152893066406,0.7661664962768554
0.5430152893066406,0.7661664962768554
0.5416797637939453,0.7641632080078125
0.5416797637939453,0.7641632080078125
0.5481101989746093,0.7688478469848633
0.5481101989746093,0.7688478469848633
0.5430793762207031,0.7681097030639649
0.5430793762207031,0.7681097030639649
0.5457595825195313,0.7690727233886718
0.5457595825195313,0.7690727233886718
0.5470024108886719,0.7733654022216797
0.5470024108886719,0.7733654022216797
0.5475831985473633,0.7703550338745117
0.5475831985473633,0.7703550338745117
0.5489181518554688,0.7730627059936523
0.5489181518554688,0.7730627059936523
0.5460033416748047,0.7742763519287109
0.5460033416748047,0.7742763519287109
0.5482246398925781,0.7736022949218749
0.5482246398925781,0.7736022949218749
0.5517814636230468,0.7775167465209961
0.5517814636230468,0.7775167465209961
0.5470727920532227,0.7727708816528320
0.5470727920532227,0.7727708816528320
0.5505449295043945,0.7775968551635742
0.5505449295043945,0.7775968551635742
0.5476043701171874,0.7775814056396484
0.5476043701171874,0.7775814056396484
0.5522546768188477,0.7768964767456055
0.5522546768188477,0.7768964767456055
0.5507555007934570,0.7797122955322265
0.5507555007934570,0.7797122955322265
0.5487773895263671,0.7778291702270508
0.5487773895263671,0.7778291702270508
0.5522981643676758,0.7818420410156249
0.5522981643676758,0.7818420410156249
0.5518678665161133,0.7823215484619140
0.5518678665161133,0.7823215484619140
0.5516933441162110,0.7805551528930664
0.5516933441162110,0.7805551528930664
0.5528223037719726,0.7861301422119140
0.5528223037719726,0.7861301422119140
0.5506977081298828,0.7827495574951172
0.5506977081298828,0.7827495574951172
0.5561519622802734,0.7861135482788085
0.5561519622802734,0.7861135482788085
0.5505214691162109,0.7835100173950195
0.5505214691162109,0.7835100173950195
0.5514163970947266,0.7812492370605468
0.5514163970947266,0.7812492370605468
0.5508853912353515,0.7817722320556640
0.5508853912353515,0.7817722320556640
0.5487733840942383,0.7727514266967773
0.5487733840942383,0.7727514266967773
0.5469514846801757,0.7688072204589843
0.5469514846801757,0.7688072204589843
0.5414073944091796,0.7643617630004883
0.5414073944091796,0.7643617630004883
0.5415052413940430,0.7587724685668945
0.5415052413940430,0.7587724685668945
0.5426542282104492,0.7586494445800781
0.5426542282104492,0.7586494445800781
0.5363193511962890,0.7497797012329102
0.5363193511962890,0.7497797012329102
0.5382556915283203,0.7511793136596679
0.5382556915283203,0.7511793136596679
0.5338611602783203,0.7486141204833984
0.5338611602783203,0.7486141204833984
0.5363061904907226,0.7449829101562500
0.5363061904907226,0.7449829101562500
0.5343006134033202,0.7462354660034179
0.5343006134033202,0.7462354660034179
0.5307661056518554,0.7415473937988281
0.5307661056518554,0.7415473937988281
0.5330514907836914,0.7435861587524414
0.5330514907836914,0.7435861587524414
0.5307907104492188,0.7428028106689453
0.5307907104492188,0.7428028106689453
0.5307306289672852,0.7404356002807617
0.5307306289672852,0.7404356002807617
0.5315671920776367,0.7449028015136718
0.5315671920776367,0.7449028015136718
0.5294729232788086,0.7418609619140625
0.5294729232788086,0.7418609619140625
0.5338062286376953,0.7462028503417969
0.5338062286376953,0.7462028503417969
0.5308725357055664,0.7471487045288085
0.5308725357055664,0.7471487045288085
0.5331224441528321,0.7475624084472656
0.5331224441528321,0.7475624084472656
0.5351028442382812,0.7531173706054687
0.5351028442382812,0.7531173706054687
0.5344802856445312,0.7508228302001952
0.5344802856445312,0.7508228302001952
0.5372989654541015,0.7547636032104492
0.5372989654541015,0.7547636032104492
0.5355360031127929,0.7567445755004882
0.5355360031127929,0.7567445755004882
0.5378957748413086,0.7565076828002929
0.5378957748413086,0.7565076828002929
0.5410120010375976,0.7615488052368163
0.5410120010375976,0.7615488052368163
0.5383186340332031,0.7582145690917969
0.5383186340332031,0.7582145690917969
0.5420305252075195,0.7626451492309571
0.5420305252075195,0.7626451492309571
0.5398996353149413,0.7635641098022461
0.5398996353149413,0.7635641098022461
0.5432184219360351,0.7625501632690429
0.5432184219360351,0.7625501632690429
0.5433975219726562,0.7661533355712891
0.5433975219726562,0.7661533355712891
0.5415092468261719,0.7637969970703125
0.5415092468261719,0.7637969970703125
0.5449338912963867,0.7675306320190429
0.5449338912963867,0.7675306320190429
0.5446380615234375,0.7684232711791992
0.5446380615234375,0.7684232711791992
0.5445476531982422,0.7659141540527343
0.5445476531982422,0.7659141540527343
0.5461183547973633,0.7716333389282226
0.5461183547973633,0.7716333389282226
0.5443227767944335,0.7683351516723632
0.5443227767944335,0.7683351516723632
0.5500711441040039,0.7722164154052734
0.5500711441040039,0.7722164154052734
0.5453939437866211,0.7717008590698242
0.5453939437866211,0.7717008590698242
0.5470195770263672,0.7716173171997071
0.5470195770263672,0.7716173171997071
0.5485330581665039,0.7763734817504883
0.5485330581665039,0.7763734817504883
0.5495744705200195,0.7734375000000000
0.5495744705200195,0.7734375000000000
0.5493616104125977,0.7745738983154297
0.5493616104125977,0.7745738983154297
0.5468399047851562,0.7757984161376953
0.5468399047851562,0.7757984161376953
0.5473154067993163,0.7722604751586913
0.5473154067993163,0.7722604751586913
0.5500150680541992,0.7729047775268555
0.5500150680541992,0.7729047775268555
0.5433843612670898,0.7634536743164062
0.5433843612670898,0.7634536743164062
0.5440549850463867,0.7630313873291016
0.5440549850463867,0.7630313873291016
0.5400770187377929,0.7597761154174805
0.5400770187377929,0.7597761154174805
0.5419601440429688,0.7541891098022461
0.5419601440429688,0.7541891098022461
0.5394018173217773,0.7526670455932617
0.5394018173217773,0.7526670455932617
0.5375318527221680,0.7491651535034179
0.5371044158935546,0.7491651535034179
0.5344717025756835,0.7434614181518554
0.5344717025756835,0.7434614181518554
0.5367668151855468,0.7446641921997070
0.5367668151855468,0.7446641921997070
0.5321794509887695,0.7416395187377930
0.5321794509887695,0.7416395187377930
0.5342193603515625,0.7412269592285156
0.5342193603515625,0.7412269592285156
0.5333976745605469,0.7429149627685546
0.5333976745605469,0.7429149627685546
0.5326011657714843,0.7392213821411132
0.5326011657714843,0.7392213821411132
0.5350793838500977,0.7420629501342774
0.5350793838500977,0.7420629501342774
0.5308519363403320,0.7409265518188476
0.5308519363403320,0.7409265518188476
0.5344305038452148,0.7412595748901367
0.5344305038452148,0.7412595748901367
0.5337530136108398,0.7443506240844726
0.5337530136108398,0.7443506240844726
0.5326372146606445,0.7417963027954101
0.5326372146606445,0.7417963027954101
0.5353317260742188,0.7464162826538085
0.5353317260742188,0.7464162826538085
0.5324907302856445,0.7458732604980468
0.5385818481445312,0.7458732604980468
0.5361934661865234,0.7475624084472656
0.5361934661865234,0.7475624084472656
0.5358798980712890,0.7516954421997070
0.5358798980712890,0.7516954421997070
0.5353992462158202,0.7505081176757812
0.5353992462158202,0.7505081176757812
0.5393697738647460,0.7553386688232422
0.5393697738647460,0.7553386688232422
0.5368812561035156,0.7554903030395508
0.5368812561035156,0.7554903030395508
0.5404014587402344,0.7575262069702148
0.5404014587402344,0.7575262069702148
0.5402217864990234,0.7619808197021484
0.5402217864990234,0.7619808197021484
0.5405668258666992,0.7601016998291016
0.5405668258666992,0.7601016998291016
0.5443239212036133,0.7648309707641602
0.5443239212036133,0.7648309707641602
0.5411127090454101,0.7642261505126953
0.5411127090454101,0.7642261505126953
0.5445419311523437,0.7661470413208008
0.5445419311523437,0.7661470413208008
0.5449241638183594,0.7698526382446289
0.5449241638183594,0.7698526382446289
0.5450374603271484,0.7674985885620117
0.5450374603271484,0.7674985885620117
0.5478755950927734,0.7716419219970703
0.5478755950927734,0.7716419219970703
0.5441316604614258,0.7711246490478515
0.5441316604614258,0.7711246490478515
0.5480752944946289,0.7716682434082031
0.5480752944946289,0.7716682434082031
0.5481101989746093,0.7750156402587890
0.5481101989746093,0.7750156402587890
0.5467758178710938,0.7718427658081054
0.5467758178710938,0.7718427658081054
0.5494337081909180,0.7761754989624023
0.5494337081909180,0.7761754989624023
0.5468587875366211,0.7750104904174805
0.5468587875366211,0.7750104904174805
0.5504459381103516,0.7757080078124999
0.5471277236938477,0.7757080078124999
0.5496305465698242,0.7789947509765625
0.5496305465698242,0.7789947509765625
0.5479619979858398,0.7766212463378906
0.5479619979858398,0.7766212463378906
0.5516475677490235,0.7794067382812500
0.5516475677490235,0.7794067382812500
0.5482143402099610,0.7778944015502930
0.5482143402099610,0.7778944015502930
0.5503921508789062,0.7762189865112304
0.5503921508789062,0.7762189865112304
0.5484924316406250,0.7776906967163085
0.5484924316406250,0.7776906967163085
0.5465332031250000,0.7707406997680664
0.5465332031250000,0.7707406997680664
0.5481142044067383,0.7691099166870117
0.5481142044067383,0.7691099166870117
0.5420482635498046,0.7639257431030273
0.5420482635498046,0.7639257431030273
0.5429414749145508,0.7610664367675781
0.5429414749145508,0.7610664367675781
0.5419366836547851,0.7606126785278320
0.5419366836547851,0.7606126785278320
0.5394418716430663,0.7545284271240235
0.5394418716430663,0.7545284271240235
0.5412294387817382,0.7545524597167969
0.5412294387817382,0.7545524597167969
0.5360155105590820,0.7518842697143554
0.5360155105590820,0.7518842697143554
0.5390705108642578,0.7501070022583007
0.5390705108642578,0.7501070022583007
0.5385435104370117,0.7515249252319336
0.5385435104370117,0.7515249252319336
0.5357986450195312,0.7472957611083985
0.5357986450195312,0.7472957611083985
0.5380027770996093,0.7498123168945312
0.5380027770996093,0.7498123168945312
0.5345186233520508,0.7477048873901367
0.5345186233520508,0.7477048873901367
0.5376800537109375,0.7473844528198242
0.5376800537109375,0.7473844528198242
0.5365013122558594,0.7498197555541992
0.5365013122558594,0.7498197555541992
0.5344551086425781,0.7472768783569336
0.5344551086425781,0.7472768783569336
0.5385000228881835,0.7505281448364257
0.5385000228881835,0.7505281448364257
0.5348613739013671,0.7496601104736328
0.5348613739013671,0.7496601104736328
0.5374288558959961,0.7502574920654297
0.5374288558959961,0.7502574920654297
0.5363370895385742,0.7541673660278320
0.5363370895385742,0.7541673660278320
0.5350496292114257,0.7508737564086914
0.5350496292114257,0.7508737564086914
0.5383867263793946,0.7544494628906250
0.5383867263793946,0.7544494628906250
0.5339698791503906,0.7533061981201171
0.5339698791503906,0.7533061981201171
0.5364263534545898,0.7538400650024414
0.5364263534545898,0.7538400650024414
0.5361963272094726,0.7567548751831055
0.5361963272094726,0.7567548751831055
0.5344167709350586,0.7538394927978516
0.5344167709350586,0.7538394927978516
0.5376874923706054,0.7571977615356446
0.5376874923706054,0.7571977615356446
0.5336803436279297,0.7567577362060547
0.5336803436279297,0.7567577362060547
0.5372245788574218,0.7572618484497070
0.5372245788574218,0.7572618484497070
0.5376857757568360,0.7612592697143554
0.5376857757568360,0.7612592697143554
0.5365413665771485,0.7589921951293945
0.5365413665771485,0.7589921951293945
0.5406532287597656,0.7633930206298828
0.5406532287597656,0.7633930206298828
0.5380880355834960,0.7638101577758789
0.5380880355834960,0.7638101577758789
0.5421043395996094,0.7647239685058593
0.5421043395996094,0.7647239685058593
0.5426250457763672,0.7690029144287109
0.5426250457763672,0.7690029144287109
0.5413427352905273,0.7669578552246094
0.5413427352905273,0.7669578552246094
0.5460657119750977,0.7707498550415038
0.5460657119750977,0.7707498550415038
0.5427291870117187,0.7707475662231446
0.5427291870117187,0.7707475662231446
0.5463014602661133,0.7709037780761718
0.5463014602661133,0.7709037780761718
0.5462533950805664,0.7752857208251953
0.5462533950805664,0.7752857208251953
0.5452239990234374,0.7720996856689453
0.5452239990234374,0.7720996856689453
0.5497982025146484,0.7757595062255859
0.5497982025146484,0.7757595062255859
0.5451719284057617,0.7746940612792969
0.5451719284057617,0.7746940612792969
0.5474178314208984,0.7735342025756836
0.5438833236694336,0.7735342025756836
0.5474321365356445,0.7744903564453125
0.5474321365356445,0.7744903564453125
0.5442455291748046,0.7671552658081054
0.5442455291748046,0.7671552658081054
0.5456422805786133,0.7646364212036133
0.5456422805786133,0.7646364212036133
0.5392702102661132,0.7603694915771484
0.5392702102661132,0.7603694915771484
0.5414743423461914,0.7565958023071289
0.5414743423461914,0.7565958023071289
0.5409158706665039,0.7566181182861328
0.5409158706665039,0.7566181182861328
0.5369562149047852,0.7504245758056640
0.5369562149047852,0.7504245758056640
0.5389022827148438,0.7511741638183593
0.5389022827148438,0.7511741638183593
0.5347824096679688,0.7481483459472656
0.5347824096679688,0.7481483459472656
0.5370454788208008,0.7462188720703125
0.5370454788208008,0.7462188720703125
0.5362638473510742,0.7475812911987304
0.5362638473510742,0.7475812911987304
0.5334016799926757,0.7443752288818359
0.5334016799926757,0.7443752288818359
0.5373647689819335,0.7461513519287110
0.5373647689819335,0.7461513519287110
0.5341306686401367,0.7452850341796875
0.5341306686401367,0.7452850341796875
0.5358335494995117,0.7446704864501953
0.5358335494995117,0.7446704864501953
0.5355308532714843,0.7479429244995117
0.5355308532714843,0.7479429244995117
0.5343887329101562,0.7446933746337890
0.5343887329101562,0.7446933746337890
0.5381933212280273,0.7480648040771484
0.5381933212280273,0.7480648040771484
0.5342388153076172,0.7474073410034180
0.5342388153076172,0.7474073410034180
0.5365499496459961,0.7483428955078125
0.5365499496459961,0.7483428955078125
0.5377178192138672,0.7518888473510742
0.5377178192138672,0.7518888473510742
0.5364160537719727,0.7491365432739258
0.5364160537719727,0.7491365432739258
0.5395528793334960,0.7526750564575195
0.5395528793334960,0.7526750564575195
0.5352115631103516,0.7528358459472656
0.5352115631103516,0.7528358459472656
0.5386276245117188,0.7527191162109375
0.5386276245117188,0.7527191162109375
0.5388605117797851,0.7561071395874023
0.5388605117797851,0.7561071395874023
0.5362844467163086,0.7522178649902344
0.5362844467163086,0.7522178649902344
0.5392776489257812,0.7561552047729492
0.5392776489257812,0.7561552047729492
0.5358444213867187,0.7551858901977538
0.5422096252441406,0.7551858901977538
0.5384862899780273,0.7547624588012695
0.5384862899780273,0.7547624588012695
0.5382036209106446,0.7578546524047851
0.5382036209106446,0.7578546524047851
0.5354558944702148,0.7546514511108399
0.5354558944702148,0.7546514511108399
0.5392370223999023,0.7576681137084961
0.5392370223999023,0.7576681137084961
0.5356904983520507,0.7573534011840820
0.5356904983520507,0.7573534011840820
0.5379701614379883,0.7571199417114257
0.5379701614379883,0.7571199417114257
0.5383758544921875,0.7614864349365235
0.5383758544921875,0.7614864349365235
0.5374580383300781,0.7593395233154296
0.5374580383300781,0.7593395233154296
0.5420270919799804,0.7638502120971680
0.5420270919799804,0.7638502120971680
0.5393051147460938,0.7651920318603516
0.5393051147460938,0.7651920318603516
0.5425266265869141,0.7666700363159179
0.5425266265869141,0.7666700363159179
0.5445934295654297,0.7712659835815430
0.5445934295654297,0.7712659835815430
0.5438735961914062,0.7697204589843750
0.5438735961914062,0.7697204589843750
0.5482246398925781,0.7741819381713867
0.5482246398925781,0.7741819381713867
0.5452274322509766,0.7756948471069336
0.5452274322509766,0.7756948471069336
0.5488981246948242,0.7758636474609375
0.5488981246948242,0.7758636474609375
0.5505826950073242,0.7794593811035156
0.5505826950073242,0.7794593811035156
0.5476009368896484,0.7753566741943360
0.5476009368896484,0.7753566741943360
0.5498685836791992,0.7773393630981446
0.5498685836791992,0.7773393630981446
0.5463924407958984,0.7737442016601562
0.5463924407958984,0.7737442016601562
0.5469903945922852,0.7679477691650390
0.5469903945922852,0.7679477691650390
0.5448526382446289,0.7652423858642577
0.5448526382446289,0.7652423858642577
0.5402223587036132,0.7590745925903321
0.5402223587036132,0.7590745925903321
0.5443902969360351,0.7582780838012695
0.5392593383789063,0.7547344207763672
0.5392593383789063,0.7547344207763672
0.5393428802490234,0.7512022018432617
0.5393428802490234,0.7512022018432617
0.5383043289184570,0.7527070999145508
0.5383043289184570,0.7527070999145508
0.5365310668945312,0.7479743957519531
0.5365310668945312,0.7479743957519531
0.5398767471313476,0.7503410339355469
0.5398767471313476,0.7503410339355469
0.5365133285522461,0.7491617202758789
0.5365133285522461,0.7491617202758789
0.5370883941650391,0.7490352630615235
0.5370883941650391,0.7490352630615235
0.5391454696655273,0.7520118713378906
0.5391454696655273,0.7520118713378906
0.5379592895507812,0.7491605758666992
0.5379592895507812,0.7491605758666992
0.5401313781738281,0.7525669097900390
0.5401313781738281,0.7525669097900390
0.5366374969482421,0.7537267684936523
0.5366374969482421,0.7537267684936523
0.5427789688110352,0.7545547485351562
0.5427789688110352,0.7545547485351562
0.5391345977783203,0.7547744750976563
0.5392072677612304,0.7547744750976563
0.5408912658691406,0.7603643417358398
0.5408912658691406,0.7603643417358398
0.5413827896118164,0.7596141815185546
0.5413827896118164,0.7596141815185546
0.5487190246582031,0.7642313003540039
0.5487190246582031,0.7642313003540039
0.5415590286254882,0.7610166549682617
0.5415590286254882,0.7610166549682617
0.5449069976806641,0.7654220581054687
0.5449069976806641,0.7654220581054687
0.5436727523803710,0.7686441421508788
0.5436727523803710,0.7686441421508788
0.5476089477539062,0.7667587280273437
0.5476089477539062,0.7667587280273437
0.5465663909912110,0.7686710357666016
0.5465663909912110,0.7686710357666016
0.5430324554443359,0.7680936813354492
0.5430324554443359,0.7680936813354492
0.5459632873535156,0.7696300506591797
0.5459632873535156,0.7696300506591797
0.5471895217895507,0.7717987060546875
0.5471895217895507,0.7717987060546875
0.5435594558715821,0.7673126220703125
0.5435594558715821,0.7673126220703125
0.5454471588134765,0.7709535598754883
0.5454471588134765,0.7709535598754883
0.5409307479858398,0.7676782608032227
0.5409307479858398,0.7676782608032227
0.5449476242065430,0.7677886962890624
0.5449476242065430,0.7677886962890624
0.5409084320068359,0.7684793472290039
0.5409084320068359,0.7684793472290039
0.5400844573974609,0.7661458969116210
0.5400844573974609,0.7661458969116210
0.5426147460937499,0.7691940307617188
0.5426147460937499,0.7691940307617188
0.5405782699584961,0.7675088882446289
0.5405782699584961,0.7675088882446289
0.5422599792480468,0.7683580398559570
0.5422599792480468,0.7683580398559570
0.5415555953979492,0.7721151351928711
0.5415555953979492,0.7721151351928711
0.5419589996337890,0.7707990646362305
0.5419589996337890,0.7707990646362305
0.5469715118408203,0.7752199172973633
0.5469715118408203,0.7752199172973633
0.5429889678955078,0.7734935760498046
0.5429889678955078,0.7734935760498046
0.5467231750488281,0.7763854980468750
0.5467231750488281,0.7763854980468750
0.5463701248168945,0.7792533874511719
0.5463701248168945,0.7792533874511719
0.5482154846191406,0.7760725021362305
0.5482154846191406,0.7760725021362305
0.5487905502319336,0.7765050888061523
0.5487905502319336,0.7765050888061523
0.5445173263549804,0.7724338531494140
0.5445173263549804,0.7724338531494140
0.5458333969116210,0.7686847686767578
0.5413272857666015,0.7686847686767578
0.5438032150268555,0.7649442672729492
0.5430421829223633,0.7649442672729492
0.5396095275878906,0.7559766769409180
0.5396095275878906,0.7559766769409180
0.5411001205444336,0.7571599960327148
0.5411001205444336,0.7571599960327148
0.5364372253417968,0.7521377563476562
0.5364372253417968,0.7521377563476562
0.5413112640380859,0.7507043838500976
0.5413112640380859,0.7507043838500976
0.5364933013916016,0.7495101928710938
0.5364933013916016,0.7495101928710938
0.5355606079101562,0.7467172622680663
0.5339984893798828,0.7467172622680663
0.5383060455322265,0.7495038986206054
0.5383060455322265,0.7495038986206054
0.5380285263061523,0.7469570159912109
0.5380285263061523,0.7469570159912109
0.5374036788940429,0.7458606719970703
0.5374036788940429,0.7458606719970703
0.5364961624145508,0.7499536514282227
0.5364961624145508,0.7499536514282227
0.5362209320068360,0.7477621078491211
0.5362209320068360,0.7477621078491211
0.5431640624999999,0.7517126083374023
0.5431640624999999,0.7517126083374023
0.5362318038940429,0.7486095428466797
0.5362318038940429,0.7486095428466797
0.5390682220458984,0.7518115997314453
0.5390682220458984,0.7518115997314453
0.5386510848999023,0.7554702758789062
0.5386510848999023,0.7554702758789062
0.5423509597778320,0.7540889739990234
0.5423509597778320,0.7540889739990234
0.5419967651367187,0.7563068389892578
0.5419967651367187,0.7563068389892578
0.5389434814453125,0.7570753097534180
0.5389434814453125,0.7570753097534180
0.5417215347290039,0.7585893630981445
0.5417215347290039,0.7585893630981445
0.5448520660400390,0.7622714996337890
0.5448520660400390,0.7622714996337890
0.5411676406860352,0.7588405609130859
0.5411676406860352,0.7588405609130859
0.5439954757690429,0.7640893936157226
0.5439954757690429,0.7640893936157226
0.5411275863647461,0.7632373809814453
0.5411275863647461,0.7632373809814453
0.5472312927246094,0.7641632080078125
0.5472312927246094,0.7641632080078125
0.5430135726928711,0.7650976181030273
0.5430135726928711,0.7650976181030273
0.5424087524414062,0.7641780853271484
0.5424087524414062,0.7641780853271484
0.5450860977172851,0.7673927307128906
0.5450860977172851,0.7673927307128906
0.5448806762695312,0.7657356262207031
0.5448806762695312,0.7657356262207031
0.5441202163696289,0.7645986557006835
0.5441202163696289,0.7645986557006835
0.5428430557250976,0.7682796478271484
0.5428430557250976,0.7682796478271484
0.5418130874633789,0.7650535583496093
0.5418130874633789,0.7650535583496093
0.5466882705688476,0.7677131652832031
0.5466882705688476,0.7677131652832031
0.5396610260009765,0.7636716842651367
0.5396610260009765,0.7636716842651367
0.5413993835449219,0.7642433166503906
0.5413993835449219,0.7642433166503906
0.5396862030029297,0.7657808303833008
0.5396862030029297,0.7657808303833008
0.5400455474853515,0.7621833801269531
0.5400455474853515,0.7621833801269531
0.5398904800415039,0.7632774353027344
0.5398904800415039,0.7632774353027344
0.5357351303100586,0.7616552352905274
0.5357351303100586,0.7616552352905274
0.5374809265136719,0.7616586685180664
0.5374809265136719,0.7616586685180664
0.5381143569946288,0.7642095565795898
0.5381143569946288,0.7642095565795898
0.5362569808959960,0.7610137939453124
0.5362569808959960,0.7610137939453124
0.5387758255004883,0.7639715194702148
0.5387758255004883,0.7639715194702148
0.5358135223388671,0.7618371963500976
0.5358135223388671,0.7618371963500976
0.5392192840576172,0.7604272842407226
0.5392192840576172,0.7604272842407226
0.5371822357177735,0.7596090316772460
0.5371822357177735,0.7596090316772460
0.5358781814575195,0.7545925140380859
0.5358781814575195,0.7545925140380859
0.5382911682128906,0.7557849884033203
0.5382911682128906,0.7557849884033203
0.5373624801635742,0.7535871505737305
0.5373624801635742,0.7535871505737305
0.5381240844726562,0.7512044906616211
0.5381240844726562,0.7512044906616211
0.5375650405883788,0.7535442352294922
0.5375650405883788,0.7535442352294922
0.5366146087646484,0.7495817184448242
0.5366146087646484,0.7495817184448242
0.5424448013305664,0.7517274856567383
0.5424448013305664,0.7517274856567383
0.5357357025146484,0.7476963043212891
0.5357357025146484,0.7476963043212891
0.5385389328002930,0.7493494033813476
0.5385389328002930,0.7493494033813476
0.5379346847534180,0.7521612167358398
0.5379346847534180,0.7521612167358398
0.5414039611816406,0.7492063522338867
0.5414039611816406,0.7492063522338867
0.5401817321777344,0.7503793716430663
0.5401817321777344,0.7503793716430663
0.5368068695068359,0.7510980606079102
0.5368068695068359,0.7510980606079102
0.5398647308349609,0.7517841339111327
0.5369871139526367,0.7517841339111327
0.5442718505859375,0.7556459426879882
0.5442718505859375,0.7556459426879882
0.5391391754150391,0.7512611389160156
0.5391391754150391,0.7512611389160156
0.5423389434814453,0.7575531005859375
0.5423389434814453,0.7575531005859375
0.5394510269165039,0.7579702377319336
0.5394510269165039,0.7579702377319336
0.5478618621826171,0.7593000411987304
0.5478618621826171,0.7593000411987304
0.5428396224975586,0.7610612869262695
0.5428396224975586,0.7610612869262695
0.5424533843994140,0.7619739532470703
0.5424533843994140,0.7619739532470703
0.5460405349731445,0.7665939331054688
0.5460405349731445,0.7665939331054688
0.5484889984130860,0.7671930313110351
0.5484889984130860,0.7671930313110351
0.5466087341308593,0.7659902572631836
0.5466087341308593,0.7659902572631836
0.5465137481689453,0.7722742080688476
0.5465137481689453,0.7722742080688476
0.5458585739135742,0.7705942153930664
0.5458585739135742,0.7705942153930664
0.5541080474853516,0.7746837615966796
0.5541080474853516,0.7746837615966796
0.5456972122192383,0.7712007522583008
0.5456972122192383,0.7712007522583008
0.5487659454345702,0.7738483428955077
0.5487659454345702,0.7738483428955077
0.5481096267700195,0.7772872924804687
0.5481096267700195,0.7772872924804687
0.5518060684204101,0.7746105194091797
0.5518060684204101,0.7746105194091797
0.5501895904541015,0.7759048461914062
0.5501895904541015,0.7759048461914062
0.5461269378662109,0.7767253875732422
0.5461269378662109,0.7767253875732422
0.5490629196166992,0.7771522521972656
0.5490629196166992,0.7771522521972656
0.5527530670166015,0.7798622131347656
0.5527530670166015,0.7798622131347656
0.5463930130004883,0.7739439010620117
0.5463930130004883,0.7739439010620117
0.5488666534423828,0.7783744812011718
0.5488666534423828,0.7783744812011718
0.5441545486450196,0.7761039733886719
0.5441545486450196,0.7761039733886719
0.5497896194458007,0.7752902984619140
0.5497896194458007,0.7752902984619140
0.5447313308715820,0.7757085800170899
0.5447313308715820,0.7757085800170899
0.5428510665893554,0.7734243392944335
0.5428510665893554,0.7734243392944335
0.5457201004028320,0.7764244079589844
0.5457201004028320,0.7764244079589844
0.5439857482910156,0.7747810363769531
0.5439857482910156,0.7747810363769531
0.5442512512207031,0.7729253768920898
0.5442512512207031,0.7729253768920898
0.5432653427124023,0.7757331848144531
0.5432653427124023,0.7757331848144531
0.5412815093994140,0.7706176757812500
0.5412815093994140,0.7706176757812500
0.5459209442138672,0.7715143203735352
0.5459209442138672,0.7715143203735352
0.5389348983764648,0.7663862228393554
0.5389348983764648,0.7663862228393554
0.5405765533447265,0.7633134841918945
0.5405765533447265,0.7633134841918945
0.5386230468750000,0.7621067047119140
0.5386230468750000,0.7621067047119140
0.5382631301879882,0.7557872772216797
0.5382631301879882,0.7557872772216797
0.5390024185180664,0.7559114456176758
0.5390024185180664,0.7559114456176758
0.5349849700927735,0.7549186706542969
0.5349849700927735,0.7549186706542969
0.5382179260253906,0.7542766571044922
0.5382179260253906,0.7542766571044922
0.5409347534179687,0.7568973541259766
0.5409347534179687,0.7568973541259766
0.5362930297851562,0.7513767242431640
0.5362930297851562,0.7513767242431640
0.5397188186645507,0.7555280685424804
0.5397188186645507,0.7555280685424804
0.5355525970458984,0.7542737960815430
0.5355525970458984,0.7542737960815430
0.5424030303955077,0.7543241500854492
0.5424030303955077,0.7543241500854492
0.5386905670166016,0.7555875778198242
0.5386905670166016,0.7555875778198242
0.5372760772705077,0.7543041229248046
0.5372760772705077,0.7543041229248046
0.5413255691528320,0.7579942703247070
0.5413255691528320,0.7579942703247070
0.5419715881347656,0.7580646514892578
0.5419715881347656,0.7580646514892578
0.5413135528564453,0.7566398620605469
0.5413135528564453,0.7566398620605469
0.5416316986083984,0.7624494552612304
0.5416316986083984,0.7624494552612304
0.5403270721435547,0.7607437133789062
0.5403270721435547,0.7607437133789062
0.5486337661743164,0.7645740509033203
0.5486337661743164,0.7645740509033203
0.5410337448120117,0.7624431610107422
0.5410337448120117,0.7624431610107422
0.5439743041992188,0.7651971817016602
0.5439743041992188,0.7651971817016602
0.5442174911499024,0.7688026428222656
0.5442174911499024,0.7688026428222656
0.5470882415771484,0.7669418334960937
0.5470882415771484,0.7669418334960937
0.5465360641479492,0.7683368682861328
0.5465360641479492,0.7683368682861328
0.5434249877929688,0.7702915191650390
0.5456045150756835,0.7732521057128906
0.5461372375488281,0.7707206726074218
0.5433803558349609,0.7707206726074218
0.5504533767700195,0.7742156982421875
0.5504533767700195,0.7742156982421875
0.5449922561645507,0.7697731018066406
0.5449922561645507,0.7697731018066406
0.5485713958740234,0.7745990753173828
0.5485713958740234,0.7745990753173828
0.5453104019165039,0.7745109558105469
0.5453104019165039,0.7745109558105469
0.5520212173461914,0.7747707366943359
0.5520212173461914,0.7747707366943359
0.5479539871215821,0.7756793975830077
0.5479539871215821,0.7756793975830077
0.5461961746215820,0.7748485565185547
0.5461961746215820,0.7748485565185547
0.5497936248779297,0.7780820846557617
0.5497936248779297,0.7780820846557617
0.5504196166992187,0.7776002883911133
0.5504196166992187,0.7776002883911133
0.5487882614135742,0.7753526687622070
0.5487882614135742,0.7753526687622070
0.5487842559814453,0.7803136825561523
0.5487842559814453,0.7803136825561523
0.5468044281005859,0.7771373748779297
0.5468044281005859,0.7771373748779297
0.5540748596191406,0.7802370071411132
0.5540748596191406,0.7802370071411132
0.5458322525024414,0.7767276763916016
0.5458322525024414,0.7767276763916016
0.5475265502929687,0.7763145446777343
0.5475265502929687,0.7763145446777343
0.5462448120117187,0.7769920349121093
0.5462448120117187,0.7769920349121093
0.5458276748657226,0.7703430175781250
0.5458276748657226,0.7703430175781250
0.5440778732299805,0.7668949127197265
0.5440778732299805,0.7668949127197265
0.5377470016479492,0.7619287490844726
0.5377470016479492,0.7619287490844726
0.5381103515625000,0.7572006225585938
0.5381103515625000,0.7572006225585938
0.5393383026123046,0.7571376800537110
0.5393383026123046,0.7571376800537110
0.5339750289916992,0.7502546310424805
0.5339750289916992,0.7502546310424805
0.5365705490112305,0.7526069641113281
0.5365705490112305,0.7526069641113281
0.5329713821411133,0.7509990692138672
0.5329713821411133,0.7509990692138672
0.5378013610839844,0.7502883911132813
0.5378013610839844,0.7502883911132813
0.5360349655151367,0.7518316268920898
0.5360349655151367,0.7518316268920898
0.5349660873413086,0.7505699157714844
0.5349660873413086,0.7505699157714844
0.5391025543212891,0.7540214538574218
0.5391025543212891,0.7540214538574218
0.5400094985961914,0.7541971206665039
0.5400094985961914,0.7541971206665039
0.5393754959106445,0.7522893905639648
0.5393754959106445,0.7522893905639648
0.5399551391601562,0.7575210571289063
0.5399551391601562,0.7575210571289063
0.5384233474731445,0.7550634384155274
0.5384233474731445,0.7550634384155274
0.5473949432373046,0.7589149475097656
0.5473949432373046,0.7589149475097656
0.5395105361938476,0.7566919326782227
0.5395105361938476,0.7566919326782227
0.5423051834106445,0.7593423843383789
0.5423051834106445,0.7593423843383789
0.5431234359741210,0.7633935928344726
0.5431234359741210,0.7633935928344726
0.5472455978393554,0.7614595413208007
0.5472455978393554,0.7614595413208007
0.5455593109130860,0.7623853683471680
0.5455593109130860,0.7623853683471680
0.5425552368164063,0.7653871536254883
0.5425552368164063,0.7653871536254883
0.5451478958129883,0.7663444519042969
0.5451478958129883,0.7663444519042969
0.5527141571044921,0.7703172683715820
0.5527141571044921,0.7703172683715820
0.5447891235351562,0.7650352478027344
0.5452274322509766,0.7650352478027344
0.5483213424682617,0.7715240478515625
0.5483213424682617,0.7715240478515625
0.5457521438598633,0.7724035263061523
0.5457521438598633,0.7724035263061523
0.5560060501098633,0.7734392166137695
0.5560060501098633,0.7734392166137695
0.5494749069213867,0.7732452392578125
0.5494749069213867,0.7732452392578125
0.5478292465209961,0.7750442504882812
0.5478292465209961,0.7750442504882812
0.5513048171997070,0.7794067382812500
0.5513048171997070,0.7794067382812500
0.5569433212280274,0.7804458618164062
0.5569433212280274,0.7804458618164062
0.5513500213623047,0.7768438339233398
0.5513500213623047,0.7768438339233398
0.5523124694824219,0.7838281631469727
0.5523124694824219,0.7838281631469727
0.5505529403686523,0.7818706512451171
0.5505529403686523,0.7818706512451171
0.5618980407714843,0.7858205795288086
0.5618980407714843,0.7858205795288086
0.5513214111328125,0.7822231292724610
0.5513214111328125,0.7822231292724610
0.5534528732299805,0.7855058670043945
0.5534528732299805,0.7855058670043945
0.5541458129882812,0.7894495010375976
0.5541458129882812,0.7894495010375976
0.5599674224853516,0.7866365432739257
0.5599674224853516,0.7866365432739257
0.5555654525756836,0.7861930847167968
0.5555654525756836,0.7861930847167968
0.5522609710693359,0.7891839981079102
0.5522609710693359,0.7891839981079102
0.5542900085449218,0.7886587142944336
0.5542900085449218,0.7886587142944336
0.5618705749511719,0.7919506072998047
0.5618705749511719,0.7919506072998047
0.5520675659179687,0.7839488983154297
0.5520675659179687,0.7839488983154297
0.5545223236083984,0.7884704589843750
0.5545223236083984,0.7884704589843750
0.5495000839233398,0.7852186203002930
0.5495000839233398,0.7852186203002930
0.5559877395629883,0.7801094055175781
0.5559877395629883,0.7801094055175781
0.5475357055664062,0.7746007919311523
0.5475357055664062,0.7746007919311523
0.5416465759277344,0.7660652160644531
0.5416465759277344,0.7660652160644531
0.5413570404052734,0.7623670578002929
0.5413570404052734,0.7623670578002929
0.5399127960205078,0.7571783065795898
0.5399127960205078,0.7571783065795898
0.5353328704833984,0.7499925613403320
0.5353328704833984,0.7499925613403320
0.5339584350585938,0.7513154983520508
0.5339584350585938,0.7513154983520508
0.5299432754516601,0.7447334289550781
0.5299432754516601,0.7447334289550781
0.5349706649780274,0.7450578689575195
0.5349706649780274,0.7450578689575195
0.5272407531738281,0.7411788940429688
0.5272407531738281,0.7411788940429688
0.5282140731811523,0.7397369384765625
0.5282140731811523,0.7397369384765625
0.5281139373779297,0.7420068740844726
0.5281139373779297,0.7420068740844726
0.5282855987548828,0.7383499145507812
0.5282855987548828,0.7383499145507812
0.5290294647216797,0.7403863906860352
0.5290294647216797,0.7403863906860352
0.5268081665039063,0.7422546386718750
0.5268081665039063,0.7422546386718750
0.5289018630981445,0.7425653457641601
0.5289018630981445,0.7425653457641601
0.5336236953735352,0.7470880508422851
0.5336236953735352,0.7470880508422851
0.5300079345703125,0.7445440292358398
0.5300079345703125,0.7445440292358398
0.5332529067993164,0.7495674133300781
0.5332529067993164,0.7495674133300781
0.5322103500366211,0.7514162063598633
0.5322103500366211,0.7514162063598633
0.5366735458374023,0.7519924163818359
0.5366735458374023,0.7519924163818359
0.5361293792724610,0.7558341979980469
0.5361293792724610,0.7558341979980469
0.5351766586303711,0.7554885864257812
0.5351766586303711,0.7554885864257812
0.5394842147827148,0.7606241226196289
0.5394842147827148,0.7606241226196289
0.5406515121459960,0.7625329971313476
0.5406515121459960,0.7625329971313476
0.5409530639648438,0.7613187789916992
0.5409530639648438,0.7613187789916992
0.5430141448974609,0.7676181793212891
0.5430141448974609,0.7676181793212891
0.5416803359985352,0.7653614044189453
0.5427085876464843,0.7653614044189453
0.5486715316772460,0.7696151733398438
0.5486715316772460,0.7696151733398438
0.5433677673339844,0.7685462951660156
0.5433677673339844,0.7685462951660156
0.5450786590576172,0.7697811126708984
0.5450786590576172,0.7697811126708984
0.5463890075683594,0.7741693496704102
0.5463890075683594,0.7741693496704102
0.5488323211669922,0.7718341827392577
0.5488323211669922,0.7718341827392577
0.5477262496948242,0.7734272003173828
0.5477262496948242,0.7734272003173828
0.5455764770507813,0.7757274627685546
0.5455764770507813,0.7757274627685546
0.5469526290893555,0.7748096466064452
0.5469526290893555,0.7748096466064452
0.5518478393554688,0.7794324874877929
0.5518478393554688,0.7794324874877929
0.5469125747680664,0.7753326416015625
0.5469125747680664,0.7753326416015625
0.5500122070312500,0.7800607681274414
0.5500122070312500,0.7800607681274414
0.5480037689208984,0.7810009002685546
0.5480037689208984,0.7810009002685546
0.5528606414794922,0.7801832199096680
0.5528606414794922,0.7801832199096680
0.5511291503906249,0.7828319549560546
0.5511291503906249,0.7828319549560546
0.5492197036743164,0.7812904357910156
0.5492197036743164,0.7812904357910156
0.5519651412963867,0.7838527679443359
0.5519651412963867,0.7838527679443359
0.5523622512817382,0.7830265045166015
0.5523622512817382,0.7830265045166015
0.5491773605346679,0.7775304794311523
0.5491773605346679,0.7775304794311523
0.5488260269165038,0.7791355133056640
0.5488260269165038,0.7791355133056640
0.5444681167602539,0.7712064743041992
0.5444681167602539,0.7712064743041992
0.5468301773071289,0.7676319122314453
0.5468301773071289,0.7676319122314453
0.5400781631469727,0.7620437622070312
0.5400781631469727,0.7620437622070312
0.5385766983032226,0.7574689865112304
0.5385766983032226,0.7574689865112304
0.5381011962890625,0.7570627212524413
0.5381011962890625,0.7570627212524413
0.5363639831542969,0.7511741638183593
0.5363639831542969,0.7511741638183593
0.5345952987670898,0.7490850448608398
0.5345952987670898,0.7490850448608398
0.5317125320434570,0.7481208801269531
0.5317125320434570,0.7481208801269531
0.5311305999755859,0.7450647354125977
0.5311305999755859,0.7450647354125977
0.5332231521606445,0.7472557067871094
0.5332231521606445,0.7472557067871094
0.5293521881103516,0.7433309555053711
0.5293521881103516,0.7433309555053711
0.5308919906616211,0.7452095031738281
0.5308919906616211,0.7452095031738281
0.5297355651855469,0.7464408874511719
0.5297355651855469,0.7464408874511719
0.5318143844604492,0.7459304809570312
0.5318143844604492,0.7459304809570312
0.5331287384033203,0.7506351470947266
0.5331287384033203,0.7506351470947266
0.5328941345214844,0.7509138107299804
0.5328941345214844,0.7509138107299804
0.5369098663330077,0.7562519073486328
0.5369098663330077,0.7562519073486328
0.5392662048339844,0.7600633621215820
0.5392662048339844,0.7600633621215820
0.5405033111572265,0.7607585906982421
0.5405033111572265,0.7607585906982421
0.5439022064208984,0.7678750991821289
0.5439022064208984,0.7678750991821289
0.5432682037353516,0.7666305541992188
0.5432682037353516,0.7666305541992188
0.5500728607177734,0.7712699890136718
0.5500728607177734,0.7712699890136718
0.5455181121826171,0.7711744308471680
0.5455181121826171,0.7711744308471680
0.5475648880004883,0.7722724914550781
0.5475648880004883,0.7722724914550781
0.5491058349609375,0.7770589828491211
0.5491058349609375,0.7770589828491211
0.5526254653930663,0.7744537353515625
0.5526254653930663,0.7744537353515625
0.5503927230834961,0.7747787475585938
0.5503927230834961,0.7747787475585938
0.5482006072998047,0.7776117324829102
0.5482006072998047,0.7776117324829102
0.5493701934814453,0.7759574890136719
0.5493701934814453,0.7759574890136719
0.5557983398437499,0.7798095703125000
0.5557983398437499,0.7798095703125000
0.5487659454345702,0.7740835189819336
0.5487659454345702,0.7740835189819336
0.5510633468627929,0.7789970397949219
0.5510633468627929,0.7789970397949219
0.5490411758422852,0.7800933837890625
0.5490411758422852,0.7800933837890625
0.5553239822387696,0.7788934707641602
0.5478132247924804,0.7788934707641602
0.5517900466918945,0.7805025100708007
0.5517900466918945,0.7805025100708007
0.5502433776855469,0.7805185317993164
0.5502433776855469,0.7805185317993164
0.5527793884277343,0.7839191436767577
0.5527793884277343,0.7839191436767577
0.5549337387084960,0.7870244979858398
0.5549337387084960,0.7870244979858398
0.5549337387084960,0.7863710403442382
0.5509534835815429,0.7856483459472656
0.5509534835815429,0.7856483459472656
0.5521574020385742,0.7872596740722656
0.5521574020385742,0.7872596740722656
0.5536937713623047,0.7901916503906250
0.5536937713623047,0.7901916503906250
0.5534448623657227,0.7879737854003906
0.5534448623657227,0.7879737854003906
0.5557594299316406,0.7907690048217774
0.5557594299316406,0.7907690048217774
0.5509208679199219,0.7904148101806641
0.5509208679199219,0.7904148101806641
0.5554241180419922,0.7901075363159179
0.5554241180419922,0.7901075363159179
0.5549091339111328,0.7913692474365234
0.5549091339111328,0.7913692474365234
0.5520000457763672,0.7859842300415039
0.5520000457763672,0.7859842300415039
0.5519113540649414,0.7870141983032226
0.5519113540649414,0.7870141983032226
0.5483510971069335,0.7811977386474609
0.5483510971069335,0.7811977386474609
0.5495040893554687,0.7766298294067383
0.5495040893554687,0.7766298294067383
0.5455610275268554,0.7734655380249024
0.5455610275268554,0.7734655380249024
0.5414640426635742,0.7670179367065429
0.5414640426635742,0.7670179367065429
0.5439027786254883,0.7668148040771484
0.5439027786254883,0.7668148040771484
0.5393302917480468,0.7624752044677734
0.5393302917480468,0.7624752044677734
0.5399654388427734,0.7602876663208008
0.5399654388427734,0.7602876663208008
0.5370431900024414,0.7608907699584960
0.5370431900024414,0.7608907699584960
0.5354324340820312,0.7562896728515625
0.5354324340820312,0.7562896728515625
0.5366764068603516,0.7568521499633789
0.5366764068603516,0.7568521499633789
0.5331470489501953,0.7552116394042968
0.5331470489501953,0.7552116394042968
0.5339372634887695,0.7552259445190429
0.5339372634887695,0.7552259445190429
0.5345237731933593,0.7579931259155274
0.5345237731933593,0.7579931259155274
0.5342113494873046,0.7572103500366211
0.5342113494873046,0.7572103500366211
0.5369945526123047,0.7610847473144531
0.5369945526123047,0.7610847473144531
0.5355600357055664,0.7634840011596680
0.5355600357055664,0.7634840011596680
0.5398097991943359,0.7663764953613281
0.5398097991943359,0.7663764953613281
0.5414394378662110,0.7715572357177735
0.5414394378662110,0.7715572357177735
0.5418737411499023,0.7719755172729492
0.5418737411499023,0.7719755172729492
0.5452548980712890,0.7766990661621094
0.5452548980712890,0.7766990661621094
0.5444435119628906,0.7779813766479492
0.5444435119628906,0.7779813766479492
0.5477233886718750,0.7791875839233399
0.5477233886718750,0.7791875839233399
0.5481445312500000,0.7830276489257812
0.5481445312500000,0.7830276489257812
0.5471643447875977,0.7819662094116211
0.5471643447875977,0.7819662094116211
0.5510101318359375,0.7850343704223632
0.5510101318359375,0.7850343704223632
0.5492345809936523,0.7857822418212891
0.5492345809936523,0.7857822418212891
0.5516721725463867,0.7859859466552734
0.5516721725463867,0.7859859466552734
0.5515377044677734,0.7893230438232421
0.5515377044677734,0.7893230438232421
0.5514381408691406,0.7875337600708008
0.5514381408691406,0.7875337600708008
0.5548439025878906,0.7901573181152344
0.5548439025878906,0.7901573181152344
0.5517940521240234,0.7898643493652343
0.5517940521240234,0.7898643493652343
0.5537120819091796,0.7902505874633788
0.5537120819091796,0.7902505874633788
0.5543621063232421,0.7935533523559570
0.5543621063232421,0.7935533523559570
0.5534282684326172,0.7904359817504882
0.5534282684326172,0.7904359817504882
0.5567367553710937,0.7938137054443359
0.5552072525024414,0.7938137054443359
0.5523353576660156,0.7934686660766601
0.5523353576660156,0.7934686660766601
0.5565267562866211,0.7937433242797851
0.5565267562866211,0.7937433242797851
0.5567790985107421,0.7969928741455078
0.5567790985107421,0.7969928741455078
0.5548055648803710,0.7940614700317382
0.5548055648803710,0.7940614700317382
0.5571138381958007,0.7970861434936524
0.5571138381958007,0.7970861434936524
0.5547964096069335,0.7965986251831054
0.5547964096069335,0.7965986251831054
0.5578742980957031,0.7965499877929687
0.5578742980957031,0.7965499877929687
0.5572477340698242,0.7981664657592773
0.5572477340698242,0.7981664657592773
0.5542602539062500,0.7937559127807617
0.5542602539062500,0.7937559127807617
0.5567831039428711,0.7935905456542969
0.5567831039428711,0.7935905456542969
0.5525247573852539,0.7895267486572265
0.5525247573852539,0.7895267486572265
0.5531061172485351,0.7846298217773438
0.5531061172485351,0.7846298217773438
0.5498325347900390,0.7822786331176758
0.5498325347900390,0.7822786331176758
0.5473297119140624,0.7750213623046874
0.5473297119140624,0.7750213623046874
0.5495435714721679,0.7753177642822265
0.5495435714721679,0.7753177642822265
0.5445779800415039,0.7715749740600586
0.5445779800415039,0.7715749740600586
0.5461561203002929,0.7702016830444336
0.5461561203002929,0.7702016830444336
0.5458900451660156,0.7713644027709960
0.5458900451660156,0.7713644027709960
0.5444715499877929,0.7673967361450195
0.5444715499877929,0.7673967361450195
0.5467969894409179,0.7694721221923828
0.5467969894409179,0.7694721221923828
0.5421409606933594,0.7684055328369140
0.5421409606933594,0.7684055328369140
0.5457349777221679,0.7682161331176758
0.5457349777221679,0.7682161331176758
0.5457733154296874,0.7709381103515625
0.5457733154296874,0.7709381103515625
0.5438535690307617,0.7681520462036132
0.5438535690307617,0.7681520462036132
0.5467334747314453,0.7726243972778321
0.5467334747314453,0.7726243972778321
0.5441522598266602,0.7722301483154297
0.5441522598266602,0.7722301483154297
0.5479001998901367,0.7728899002075195
0.5479001998901367,0.7728899002075195
0.5473251342773438,0.7768398284912109
0.5473251342773438,0.7768398284912109
0.5449642181396485,0.7746517181396484
0.5449642181396485,0.7746517181396484
0.5498119354248047,0.7783687591552734
0.5498119354248047,0.7783687591552734
0.5462820053100585,0.7783418655395508
0.5462820053100585,0.7783418655395508
0.5494508743286133,0.7787744522094726
0.5494508743286133,0.7787744522094726
0.5489250183105469,0.7834350585937500
0.5489250183105469,0.7834350585937500
0.5487865447998047,0.7810398101806640
0.5487865447998047,0.7810398101806640
0.5536273956298828,0.7851470947265625
0.5536273956298828,0.7851470947265625
0.5499252319335938,0.7851390838623047
0.5499252319335938,0.7851390838623047
0.5521162033081054,0.7859149932861328
0.5521162033081054,0.7859149932861328
0.5538202285766601,0.7892578124999999
0.5538202285766601,0.7892578124999999
0.5525321960449219,0.7864780426025391
0.5525321960449219,0.7864780426025391
0.5559928894042968,0.7890993118286133
0.5559928894042968,0.7890993118286133
0.5508956909179688,0.7896829605102539
0.5508956909179688,0.7896829605102539
0.5557371139526367,0.7894912719726562
0.5557371139526367,0.7894912719726562
0.5569622039794921,0.7925365447998046
0.5569622039794921,0.7925365447998046
0.5540525436401367,0.7894443511962891
0.5540525436401367,0.7894443511962891
0.5549011230468750,0.7928804397583008
0.5549011230468750,0.7928804397583008
0.5543769836425781,0.7917526245117187
0.5543769836425781,0.7917526245117187
0.5574108123779297,0.7916799545288086
0.5574108123779297,0.7916799545288086
0.5566978454589844,0.7929107666015625
0.5566978454589844,0.7929107666015625
0.5513917922973632,0.7922475814819335
0.5513917922973632,0.7922475814819335
0.5585529327392578,0.7941919326782226
0.5585529327392578,0.7941919326782226
0.5574348449707031,0.7935722351074218
0.5574348449707031,0.7935722351074218
0.5573478698730469,0.7931001663208007
0.5573478698730469,0.7931001663208007
0.5532955169677735,0.7963468551635742
0.5546430587768555,0.7963468551635742
0.5554018020629883,0.7913269042968750
0.5554018020629883,0.7913269042968750
0.5579320907592773,0.7911031723022460
0.5579320907592773,0.7911031723022460
0.5520675659179687,0.7848197937011718
0.5520675659179687,0.7848197937011718
0.5488380432128906,0.7824285507202148
0.5488380432128906,0.7824285507202148
0.5509683609008789,0.7808115005493164
0.5509683609008789,0.7808115005493164
0.5499441146850585,0.7750762939453125
0.5499441146850585,0.7750762939453125
0.5492706298828125,0.7742219924926758
0.5492706298828125,0.7742219924926758
0.5413129806518554,0.7717603683471680
0.5413129806518554,0.7717603683471680
0.5462768554687499,0.7683843612670899
0.5462768554687499,0.7683843612670899
0.5459392547607421,0.7689857482910156
0.5459392547607421,0.7689857482910156
0.5426267623901367,0.7632190704345703
0.5426267623901367,0.7632190704345703
0.5421604156494141,0.7664405822753906
0.5421604156494141,0.7664405822753906
0.5415132522583007,0.7640710830688476
0.5415132522583007,0.7640710830688476
0.5448492050170898,0.7631343841552735
0.5448492050170898,0.7631343841552735
0.5427497863769531,0.7652458190917969
0.5427497863769531,0.7652458190917969
0.5380119323730469,0.7622177124023437
0.5380119323730469,0.7622177124023437
0.5436470031738281,0.7640939712524414
0.5436470031738281,0.7640939712524414
0.5400152206420898,0.7633060455322266
0.5400152206420898,0.7633060455322266
0.5412574768066406,0.7617885589599609
0.5412574768066406,0.7617885589599609
0.5393394470214844,0.7651662826538086
0.5393394470214844,0.7651662826538086
0.5385423660278320,0.7621387481689453
0.5385423660278320,0.7621387481689453
0.5409742355346679,0.7633987426757812
0.5409742355346679,0.7633987426757812
0.5369195938110352,0.7631309509277343
0.5369195938110352,0.7631309509277343
0.5369836807250976,0.7625410079956054
0.5369836807250976,0.7625410079956054
0.5381904602050781,0.7649826049804688
0.5381904602050781,0.7649826049804688
0.5362718582153320,0.7629032135009766
0.5362718582153320,0.7629032135009766
0.5387603759765625,0.7650192260742187
0.5387603759765625,0.7650192260742187
0.5361139297485351,0.7657230377197265
0.5361139297485351,0.7657230377197265
0.5376365661621093,0.7653356552124023
0.5376365661621093,0.7653356552124023
0.5384599685668945,0.7679821014404297
0.5384599685668945,0.7679821014404297
0.5364555358886719,0.7657848358154297
0.5364555358886719,0.7657848358154297
0.5404237747192383,0.7700374603271484
0.5404237747192383,0.7700374603271484
0.5373653411865235,0.7709438323974609
0.5373653411865235,0.7709438323974609
0.5424905776977539,0.7730283737182617
0.5424905776977539,0.7730283737182617
0.5447662353515624,0.7796195983886719
0.5447662353515624,0.7796195983886719
0.5444583892822266,0.7780872344970703
0.5444583892822266,0.7780872344970703
0.5508579254150391,0.7846836090087891
0.5491441726684571,0.7846836090087891
0.5480895996093750,0.7855270385742187
0.5480895996093750,0.7855270385742187
0.5513877868652344,0.7862886428833008
0.5513877868652344,0.7862886428833008
0.5532297134399414,0.7900640487670898
0.5532297134399414,0.7900640487670898
0.5516973495483398,0.7882987976074218
0.5516973495483398,0.7882987976074218
0.5550115585327148,0.7908382415771484
0.5550115585327148,0.7908382415771484
0.5528142929077148,0.7913343429565429
0.5528142929077148,0.7913343429565429
0.5542922973632812,0.7907804489135742
0.5542922973632812,0.7907804489135742
0.5555225372314453,0.7943595886230469
0.5555225372314453,0.7943595886230469
0.5534151077270507,0.7906974792480469
0.5534151077270507,0.7906974792480469
0.5573999404907226,0.7941335678100586
0.5573999404907226,0.7941335678100586
0.5531913757324218,0.7929307937622070
0.5531913757324218,0.7929307937622070
0.5551952362060547,0.7899988174438476
0.5551952362060547,0.7899988174438476
0.5548107147216796,0.7905904769897460
0.5548107147216796,0.7905904769897460
0.5505798339843749,0.7822929382324219
0.5505798339843749,0.7822929382324219
0.5486297607421875,0.7754150390625000
0.5486297607421875,0.7766103744506836
0.5502342224121094,0.7768215179443360
0.5502342224121094,0.7768215179443360
0.5454614639282226,0.7721237182617188
0.5454614639282226,0.7721237182617188
0.5480924606323242,0.7715806961059570
0.5480924606323242,0.7715806961059570
0.5458127975463867,0.7720773696899413
0.5458127975463867,0.7720773696899413
0.5451032638549804,0.7681509017944336
0.5451032638549804,0.7681509017944336
0.5473176956176757,0.7703882217407226
0.5473176956176757,0.7703882217407226
0.5432172775268554,0.7673852920532226
0.5432172775268554,0.7673852920532226
0.5464061737060547,0.7680393218994140
0.5464061737060547,0.7680393218994140
0.5447519302368163,0.7700328826904297
0.5447519302368163,0.7700328826904297
0.5442947387695313,0.7672782897949219
0.5442947387695313,0.7672782897949219
0.5470773696899414,0.7704637527465820
0.5470773696899414,0.7704637527465820
0.5441534042358398,0.7690120697021484
0.5441534042358398,0.7690120697021484
0.5463329315185547,0.7698898315429688
0.5463329315185547,0.7698898315429688
0.5457984924316406,0.7725631713867187
0.5457984924316406,0.7725631713867187
0.5453916549682617,0.7716413497924804
0.5453916549682617,0.7716413497924804
0.5480232238769531,0.7745590209960938
0.5480232238769531,0.7745590209960938
0.5458665847778320,0.7743055343627929
0.5458665847778320,0.7743055343627929
0.5474922180175781,0.7753881454467774
0.5474922180175781,0.7753881454467774
0.5469863891601562,0.7781141281127929
0.5469863891601562,0.7781141281127929
0.5461080551147460,0.7763940811157226
0.5461080551147460,0.7763940811157226
0.5481222152709960,0.7782085418701171
0.5481222152709960,0.7782085418701171
0.5441711425781249,0.7760284423828124
0.5441711425781249,0.7760284423828124
0.5462207794189453,0.7764999389648437
0.5462207794189453,0.7764999389648437
0.5436000823974609,0.7778451919555663
0.5436000823974609,0.7778451919555663
0.5430639266967773,0.7741350173950196
0.5430639266967773,0.7741350173950196
0.5458860397338867,0.7784517288208007
0.5458860397338867,0.7784517288208007
0.5408351898193359,0.7754482269287110
0.5408351898193359,0.7754482269287110
0.5469171524047851,0.7791996002197266
0.5469171524047851,0.7791996002197266
0.5451953887939452,0.7833211898803710
0.5451953887939452,0.7833211898803710
0.5457778930664062,0.7800195693969726
0.5457778930664062,0.7800195693969726
0.5506067276000977,0.7873397827148437
0.5506067276000977,0.7873397827148437
0.5460256576538086,0.7846052169799804
0.5460256576538086,0.7846052169799804
0.5518735885620117,0.7883262634277344
0.5518735885620117,0.7883262634277344
0.5517906188964844,0.7925662994384766
0.5517906188964844,0.7925662994384766
0.5528509140014648,0.7914442062377930
0.5528509140014648,0.7914442062377930
0.5568145751953125,0.7963033676147461
0.5568145751953125,0.7963033676147461
0.5545343399047852,0.7951177597045899
0.5545343399047852,0.7951177597045899
0.5581815719604492,0.7971387863159179
0.5581815719604492,0.7971387863159179
0.5575206756591796,0.8005044937133788
0.5575206756591796,0.8005044937133788
0.5579011917114257,0.7986848831176757
0.5579011917114257,0.7986848831176757
0.5615861892700195,0.8024505615234375
0.5615861892700195,0.8024505615234375
0.5581020355224610,0.8001251220703125
0.5581020355224610,0.8001251220703125
0.5605722427368164,0.8007081985473633
0.5605722427368164,0.8007081985473633
0.5590518951416016,0.8009450912475585
0.5590518951416016,0.8009450912475585
0.5579446792602539,0.7957780838012695
0.5579446792602539,0.7957780838012695
0.5587697982788086,0.7948276519775390
0.5587697982788086,0.7948276519775390
0.5534494400024413,0.7878547668457031
0.5534494400024413,0.7878547668457031
0.5539535522460938,0.7836404800415039
0.5539535522460938,0.7836404800415039
0.5516727447509765,0.7827020645141601
0.5516727447509765,0.7827020645141601
0.5499166488647461,0.7777038574218750
0.5516944885253906,0.7791481018066406
0.5477422714233399,0.7759294509887695
0.5477422714233399,0.7759294509887695
0.5506462097167969,0.7759346008300781
0.5506462097167969,0.7759346008300781
0.5484815597534179,0.7772060394287109
0.5484815597534179,0.7772060394287109
0.5479328155517578,0.7743450164794922
0.5479328155517578,0.7743450164794922
0.5505941390991210,0.7772478103637696
0.5505941390991210,0.7772478103637696
0.5476678848266602,0.7750156402587890
0.5476678848266602,0.7750156402587890
0.5497415542602538,0.7756164550781249
0.5497415542602538,0.7756164550781249
0.5484477996826171,0.7781541824340820
0.5484477996826171,0.7781541824340820
0.5478910446166992,0.7755975723266602
0.5478910446166992,0.7755975723266602
0.5512659072875976,0.7793535232543946
0.5512659072875976,0.7793535232543946
0.5473812103271484,0.7776924133300781
0.5473812103271484,0.7776924133300781
0.5504814147949219,0.7796670913696289
0.5504814147949219,0.7796670913696289
0.5494382858276367,0.7829212188720703
0.5494382858276367,0.7829212188720703
0.5499412536621093,0.7807239532470703
0.5499412536621093,0.7807239532470703
0.5523336410522460,0.7843820571899414
0.5523336410522460,0.7843820571899414
0.5486675262451172,0.7829149246215820
0.5486675262451172,0.7829149246215820
0.5511171340942382,0.7833452224731445
0.5511171340942382,0.7833452224731445
0.5498199462890625,0.7848312377929687
0.5498199462890625,0.7848312377929687
0.5475488662719726,0.7803308486938476
0.5475488662719726,0.7803308486938476
0.5495756149291992,0.7830722808837890
0.5495756149291992,0.7830722808837890
0.5455667495727539,0.7810106277465820
0.5455667495727539,0.7810106277465820
0.5490182876586914,0.7818826675415039
0.5490182876586914,0.7818826675415039
0.5478630065917969,0.7850704193115234
0.5478630065917969,0.7850704193115234
0.5479539871215821,0.7832342147827148
0.5479539871215821,0.7832342147827148
0.5516378402709960,0.7877048492431641
0.5516378402709960,0.7877048492431641
0.5498760223388671,0.7877185821533202
0.5498760223388671,0.7877185821533202
0.5525012969970703,0.7887599945068359
0.5525012969970703,0.7887599945068359
0.5531845092773438,0.7927082061767577
0.5531845092773438,0.7927082061767577
0.5533658981323242,0.7913572311401367
0.5533658981323242,0.7913572311401367
0.5576843261718750,0.7956876754760742
0.5576843261718750,0.7956876754760742
0.5544176101684570,0.7944448471069335
0.5544176101684570,0.7944448471069335
0.5579481124877930,0.7964384078979492
0.5579481124877930,0.7964384078979492
0.5575412750244141,0.7996713638305664
0.5601436614990234,0.7996713638305664
0.5583108901977539,0.7973184585571289
0.5562538146972656,0.7973184585571289
0.5604446411132812,0.8002012252807617
0.5604446411132812,0.8002012252807617
0.5564804077148438,0.7980228424072265
0.5602924346923828,0.7980228424072265
0.5586702346801757,0.7967897415161133
0.5586702346801757,0.7967897415161133
0.5575830459594726,0.7965202331542969
0.5575830459594726,0.7965202331542969
0.5540239334106445,0.7880538940429688
0.5540239334106445,0.7880538940429688
0.5544239044189453,0.7859722137451172
0.5544239044189453,0.7859722137451172
0.5482389450073242,0.7792167663574219
0.5482389450073242,0.7792167663574219
0.5509763717651367,0.7762498855590820
0.5509763717651367,0.7762498855590820
0.5476146697998047,0.7750780105590820
0.5476146697998047,0.7750780105590820
0.5458831787109375,0.7696197509765624
0.5458831787109375,0.7696197509765624
0.5480438232421875,0.7711481094360352
0.5480438232421875,0.7711481094360352
0.5451021194458008,0.7682092666625976
0.5451021194458008,0.7682092666625976
0.5466670989990234,0.7675495147705078
0.5466670989990234,0.7675495147705078
0.5454545974731445,0.7701885223388671
0.5454545974731445,0.7701885223388671
0.5445917129516601,0.7670831680297852
0.5445917129516601,0.7670831680297852
0.5485725402832031,0.7706039428710937
0.5463935852050781,0.7706039428710937
0.5443490982055664,0.7687294006347656
0.5443490982055664,0.7687294006347656
0.5473320007324218,0.7701473236083984
0.5473320007324218,0.7701473236083984
0.5467300415039062,0.7732011795043945
0.5467300415039062,0.7732011795043945
0.5475957870483398,0.7712162017822265
0.5475957870483398,0.7712162017822265
0.5493627548217773,0.7746122360229492
0.5493627548217773,0.7746122360229492
0.5464662551879883,0.7744411468505860
0.5464662551879883,0.7744411468505860
0.5496643066406249,0.7759386062622070
0.5496643066406249,0.7759386062622070
0.5504127502441406,0.7792625427246094
0.5504127502441406,0.7792625427246094
0.5488523483276367,0.7763534545898437
0.5488523483276367,0.7763534545898437
0.5515537261962891,0.7804241180419922
0.5515537261962891,0.7804241180419922
0.5485113143920898,0.7793214797973632
0.5485113143920898,0.7793214797973632
0.5527679443359375,0.7803754806518555
0.5527679443359375,0.7803754806518555
0.5508836746215821,0.7828491210937499
0.5508836746215821,0.7828491210937499
0.5502296447753906,0.7805791854858398
0.5502296447753906,0.7805791854858398
0.5529619216918945,0.7842412948608398
0.5529619216918945,0.7842412948608398
0.5503355026245117,0.7824617385864258
0.5503355026245117,0.7824617385864258
0.5516744613647461,0.7818237304687500
0.5516744613647461,0.7818237304687500
0.5498119354248047,0.7844999313354492
0.5498119354248047,0.7844999313354492
0.5482126235961914,0.7804327011108398
0.5482126235961914,0.7804327011108398
0.5513677597045898,0.7831987380981446
0.5513677597045898,0.7831987380981446
0.5458311080932617,0.7805992126464844
0.5458311080932617,0.7805992126464844
0.5484500885009765,0.7808738708496094
0.5484500885009765,0.7808738708496094
0.5475128173828124,0.7838247299194335
0.5475128173828124,0.7838247299194335
0.5473033905029296,0.7808767318725586
0.5473033905029296,0.7808767318725586
0.5494560241699219,0.7844083786010742
0.5494560241699219,0.7844083786010742
0.5462265014648438,0.7838516235351562
0.5462265014648438,0.7838516235351562
0.5499784469604492,0.7856861114501953
0.5499784469604492,0.7856861114501953
0.5510461807250976,0.7901647567749023
0.5510461807250976,0.7901647567749023
0.5506874084472656,0.7886810302734375
0.5506874084472656,0.7886810302734375
0.5551820755004883,0.7947418212890625
0.5551820755004883,0.7947418212890625
0.5533132553100586,0.7955720901489257
0.5533132553100586,0.7955720901489257
0.5589981079101562,0.7974420547485351
0.5589981079101562,0.7974420547485351
0.5578989028930664,0.8003139495849609
0.5578989028930664,0.8003139495849609
0.5574262619018554,0.7979335784912109
0.5574262619018554,0.7979335784912109
0.5599891662597656,0.7995615005493164
0.5599891662597656,0.7995615005493164
0.5580945968627929,0.7957763671875000
0.5580945968627929,0.7957763671875000
0.5572860717773437,0.7913446426391602
0.5572860717773437,0.7913446426391602
0.5546150207519531,0.7899730682373046
0.5546150207519531,0.7899730682373046
0.5513769149780273,0.7818019866943359
0.5513769149780273,0.7818019866943359
0.5555385589599610,0.7816526412963867
0.5555385589599610,0.7816526412963867
0.5479499816894531,0.7758087158203125
0.5479499816894531,0.7758087158203125
0.5497564315795899,0.7746494293212890
0.5497564315795899,0.7746494293212890
0.5482023239135742,0.7756971359252930
0.5482023239135742,0.7756971359252930
0.5498085021972656,0.7713495254516601
0.5498085021972656,0.7713495254516601
0.5491344451904296,0.7722158432006836
0.5491344451904296,0.7722158432006836
0.5452657699584961,0.7717214584350586
0.5452657699584961,0.7717214584350586
0.5481719970703125,0.7719406127929688
0.5481719970703125,0.7719406127929688
0.5492969512939453,0.7736423492431640
0.5463970184326171,0.7736423492431640
0.5466247558593750,0.7744079589843750
0.5504270553588867,0.7744079589843750
0.5462808609008789,0.7738798141479492
0.5462808609008789,0.7738798141479492
0.5502376556396484,0.7783538818359375
0.5502376556396484,0.7783538818359375
0.5492528915405274,0.7768203735351562
0.5492528915405274,0.7768203735351562
0.5514724731445312,0.7802455902099609
0.5492139816284179,0.7802455902099609
0.5480501174926757,0.7828170776367187
0.5480501174926757,0.7828170776367187
0.5514347076416015,0.7822242736816406
0.5514347076416015,0.7822242736816406
0.5539478302001953,0.7867818832397461
0.5539478302001953,0.7867818832397461
0.5517751693725585,0.7847145080566406
0.5517751693725585,0.7847145080566406
0.5528177261352539,0.7882570266723633
0.5528177261352539,0.7882570266723633
0.5525991439819335,0.7895399093627929
0.5525991439819335,0.7895399093627929
0.5544473648071289,0.7879909515380860
0.5544473648071289,0.7879909515380860
0.5551019668579101,0.7917497634887695
0.5551019668579101,0.7917497634887695
0.5506570816040038,0.7894426345825195
0.5506570816040038,0.7894426345825195
0.5551837921142578,0.7911821365356445
0.5551837921142578,0.7911821365356445
0.5527273178100586,0.7921068191528320
0.5527273178100586,0.7921068191528320
0.5529550552368164,0.7891530990600586
0.5529550552368164,0.7891530990600586
0.5523376464843750,0.7929313659667968
0.5523376464843750,0.7929313659667968
0.5511165618896484,0.7889116287231445
0.5511165618896484,0.7889116287231445
0.5539312362670898,0.7899650573730469
0.5539312362670898,0.7899650573730469
0.5496168136596680,0.7898506164550781
0.5496168136596680,0.7898506164550781
0.5483419418334960,0.7874599456787109
0.5483419418334960,0.7874599456787109
0.5516876220703125,0.7905755996704101
0.5516876220703125,0.7905755996704101
0.5490732192993164,0.7879377365112304
0.5490732192993164,0.7879377365112304
0.5518444061279296,0.7898654937744141
0.5518444061279296,0.7898654937744141
0.5485256195068359,0.7920650482177735
0.5485256195068359,0.7920650482177735
0.5514816284179688,0.7907684326171874
0.5514816284179688,0.7907684326171874
0.5548707962036132,0.7951068878173828
0.5548707962036132,0.7951068878173828
0.5519062042236328,0.7928226470947265
0.5519062042236328,0.7928226470947265
0.5532291412353515,0.7947235107421875
0.5532291412353515,0.7947235107421875
0.5523078918457031,0.7942228317260742
0.5523078918457031,0.7942228317260742
0.5527124404907227,0.7899484634399414
0.5527124404907227,0.7899484634399414
0.5533424377441406,0.7899078369140625
0.5533424377441406,0.7899078369140625
0.5475740432739258,0.7840358734130859
0.5475740432739258,0.7840358734130859
0.5503509521484374,0.7798799514770508
0.5503509521484374,0.7798799514770508
0.5474332809448242,0.7770681381225586
0.5474332809448242,0.7770681381225586
0.5460811614990234,0.7722890853881835
0.5460811614990234,0.7722890853881835
0.5449796676635742,0.7737808227539062
0.5449796676635742,0.7737808227539062
0.5442323684692383,0.7691974639892578
0.5442323684692383,0.7691974639892578
0.5469446182250977,0.7698223114013671
0.5469446182250977,0.7698223114013671
0.5439462661743164,0.7690801620483398
0.5439462661743164,0.7690801620483398
0.5417484283447266,0.7678504943847656
0.5417484283447266,0.7678504943847656
0.5466648101806640,0.7702720642089843
0.5466648101806640,0.7702720642089843
0.5452960968017578,0.7677017211914062
0.5452960968017578,0.7677017211914062
0.5467185974121094,0.7694526672363281
0.5467185974121094,0.7694526672363281
0.5416219711303710,0.7712488174438477
0.5416219711303710,0.7712488174438477
0.5457109451293946,0.7692483901977539
0.5457109451293946,0.7692483901977539
0.5484151840209961,0.7730209350585937
0.5484151840209961,0.7730209350585937
0.5454912185668945,0.7705799102783203
0.5475946426391601,0.7705799102783203
0.5455043792724609,0.7745235443115234
0.5455043792724609,0.7745235443115234
0.5470064163208007,0.7760908126831054
0.5470064163208007,0.7760908126831054
0.5495481491088867,0.7753240585327148
0.5495481491088867,0.7753240585327148
0.5504917144775391,0.7793169021606445
0.5504917144775391,0.7793169021606445
0.5452943801879883,0.7786182403564453
0.5452943801879883,0.7786182403564453
0.5517734527587891,0.7808349609374999
0.5517734527587891,0.7808349609374999
0.5507223129272460,0.7828639984130860
0.5507223129272460,0.7828639984130860
0.5511651992797851,0.7806507110595703
0.5511651992797851,0.7806507110595703
0.5502576828002930,0.7859207153320312
0.5502576828002930,0.7859207153320312
0.5515623092651367,0.7836313247680664
0.5515623092651367,0.7836313247680664
0.5559104919433594,0.7856912612915039
0.5559104919433594,0.7856912612915039
0.5521528244018554,0.7868917465209960
0.5521528244018554,0.7868917465209960
0.5495979309082031,0.7859962463378906
0.5495979309082031,0.7859962463378906
0.5553148269653320,0.7887090682983399
0.5553148269653320,0.7887090682983399
0.5530797958374023,0.7866394042968750
0.5530797958374023,0.7866394042968750
0.5553480148315429,0.7873695373535156
0.5553480148315429,0.7873695373535156
0.5497547149658203,0.7900835037231445
0.5497547149658203,0.7900835037231445
0.5541372299194336,0.7877460479736328
0.5541372299194336,0.7877460479736328
0.5577135086059570,0.7909051895141601
0.5577135086059570,0.7909051895141601
0.5529218673706054,0.7882862091064453
0.5529218673706054,0.7882862091064453
0.5525642395019531,0.7907026290893554
0.5525642395019531,0.7907026290893554
0.5537469863891601,0.7916204452514648
0.5537469863891601,0.7916204452514648
0.5546064376831055,0.7896251678466797
0.5546064376831055,0.7896251678466797
0.5561325073242187,0.7918939590454102
0.5561325073242187,0.7918939590454102
0.5498079299926758,0.7906082153320312
0.5498079299926758,0.7906082153320312
0.5558486938476562,0.7910139083862304
0.5558486938476562,0.7910139083862304
0.5542001724243164,0.7905670166015625
0.5542001724243164,0.7905670166015625
0.5520515441894531,0.7851236343383788
0.5520515441894531,0.7851236343383788
0.5492277145385742,0.7840890884399414
0.5492277145385742,0.7840890884399414
0.5477943420410156,0.7771345138549804
0.5477943420410156,0.7771345138549804
0.5498428344726562,0.7756559371948242
0.5498428344726562,0.7756559371948242
0.5459672927856445,0.7727251052856445
0.5459672927856445,0.7727251052856445
0.5417936325073242,0.7697095870971680
0.5417936325073242,0.7697095870971680
0.5470281600952148,0.7700077056884765
0.5470281600952148,0.7700077056884765
0.5454071044921874,0.7661836624145507
0.5454071044921874,0.7661836624145507
0.5459300994873046,0.7663393020629883
0.5459300994873046,0.7663393020629883
0.5395208358764648,0.7675672531127929
0.5428167343139648,0.7675672531127929
0.5442810058593750,0.7645391464233399
0.5442810058593750,0.7645391464233399
0.5469703674316406,0.7670997619628906
0.5469703674316406,0.7670997619628906
0.5431863784790039,0.7632774353027344
0.5431863784790039,0.7632774353027344
0.5413930892944335,0.7668754577636718
0.5413930892944335,0.7668754577636718
0.5446208953857422,0.7675512313842773
0.5446208953857422,0.7675512313842773
0.5473079681396484,0.7660806655883788
0.5473079681396484,0.7660806655883788
0.5473131179809571,0.7691076278686523
0.5473131179809571,0.7691076278686523
0.5393268585205078,0.7685411453247070
0.5393268585205078,0.7685411453247070
0.5482486724853516,0.7701295852661133
0.5482486724853516,0.7701295852661133
0.5473096847534179,0.7725259780883789
0.5473096847534179,0.7725259780883789
0.5471357345581055,0.7700197219848632
0.5471357345581055,0.7700197219848632
0.5442798614501952,0.7763935089111328
0.5442798614501952,0.7763935089111328
0.5476987838745117,0.7746505737304688
0.5476987838745117,0.7746505737304688
0.5536182403564452,0.7772014617919921
0.5536182403564452,0.7772014617919921
0.5492906570434570,0.7795549392700195
0.5492906570434570,0.7795549392700195
0.5443794250488281,0.7798788070678710
0.5443794250488281,0.7798788070678710
0.5531284332275390,0.7827884674072265
0.5531284332275390,0.7827884674072265
0.5511777877807617,0.7816537857055664
0.5511777877807617,0.7816537857055664
0.5531982421875000,0.7820566177368163
0.5531982421875000,0.7820566177368163
0.5458745956420898,0.7863779067993164
0.5458745956420898,0.7863779067993164
0.5525539398193359,0.7846504211425781
0.5613229751586913,0.7846504211425781
0.5575424194335937,0.7878450393676758
0.5575424194335937,0.7878450393676758
0.5519268035888671,0.7859224319458008
0.5519268035888671,0.7859224319458008
0.5489227294921875,0.7887634277343750
0.5489227294921875,0.7887634277343750
0.5534185409545899,0.7898603439331054
0.5534185409545899,0.7898603439331054
0.5546007156372070,0.7886741638183593
0.5546007156372070,0.7886741638183593
0.5559270858764648,0.7900131225585937
0.5559270858764648,0.7900131225585937
0.5471769332885742,0.7907684326171874
0.5471769332885742,0.7907684326171874
0.5563241958618164,0.7917303085327149
0.5563241958618164,0.7917303085327149
0.5570085525512695,0.7935298919677735
0.5570085525512695,0.7935298919677735
0.5544811248779297,0.7919242858886718
0.5544811248779297,0.7919242858886718
0.5510776519775390,0.7959554672241210
0.5510776519775390,0.7959554672241210
0.5540559768676757,0.7932809829711914
0.5540559768676757,0.7932809829711914
0.5574228286743164,0.7947154998779297
0.5574228286743164,0.7947154998779297
0.5542139053344727,0.7942749023437500
0.5542139053344727,0.7942749023437500
0.5486417770385742,0.7938629150390625
0.5486417770385742,0.7938629150390625
0.5558366775512695,0.7946966171264648
0.5558366775512695,0.7946966171264648
0.5537544250488281,0.7901201248168945
0.5537544250488281,0.7901201248168945
0.5530420303344726,0.7883508682250976
0.5530420303344726,0.7883508682250976
0.5453556060791015,0.7872808456420898
0.5453556060791015,0.7872808456420898
0.5479654312133789,0.7799074172973632
0.5479654312133789,0.7799074172973632
0.5486515045166015,0.7772117614746094
0.5486515045166015,0.7772117614746094
0.5427234649658202,0.7696964263916015
0.5427234649658202,0.7696964263916015
0.5412929534912109,0.7697576522827149
0.5412929534912109,0.7697576522827149
0.5420534133911132,0.7686246871948242
0.5420534133911132,0.7686246871948242
0.5430593490600586,0.7651433944702148
0.5430593490600586,0.7651433944702148
0.5435199737548828,0.7665561676025391
0.5435199737548828,0.7665561676025391
0.5368234634399414,0.7637157440185547
0.5368234634399414,0.7637157440185547
0.5432241439819335,0.7642684936523437
0.5432241439819335,0.7642684936523437
0.5417455673217774,0.7658506393432617
0.5417455673217774,0.7658506393432617
0.5416391372680663,0.7629936218261718
0.5416391372680663,0.7629936218261718
0.5413536071777344,0.7675037384033203
0.5413536071777344,0.7675037384033203
0.5420436859130859,0.7654918670654297
0.5420436859130859,0.7654918670654297
0.5472341537475586,0.7675380706787109
0.5472341537475586,0.7675380706787109
0.5441579818725586,0.7699184417724609
0.5441579818725586,0.7699184417724609
0.5411544799804687,0.7693908691406249
0.5411544799804687,0.7693908691406249
0.5481485366821289,0.7730289459228515
0.5481485366821289,0.7730289459228515
0.5459815979003906,0.7720676422119140
0.5459815979003906,0.7720676422119140
0.5487785339355469,0.7734031677246094
0.5487785339355469,0.7734031677246094
0.5437597274780274,0.7777364730834960
0.5437597274780274,0.7777364730834960
0.5483345031738281,0.7761463165283203
0.5483345031738281,0.7761463165283203
0.5531106948852539,0.7800951004028320
0.5531106948852539,0.7800951004028320
0.5483362197875976,0.7785381317138672
0.5483362197875976,0.7785381317138672
0.5492546081542968,0.7795515060424805
0.5502828598022461,0.7795515060424805
0.5593757629394531,0.7832204818725585
0.5593757629394531,0.7832204818725585
0.5493387222290039,0.7797872543334960
0.5493387222290039,0.7797872543334960
0.5517957687377929,0.7822025299072265
0.5517957687377929,0.7822025299072265
0.5523536682128906,0.7854211807250976
0.5523536682128906,0.7854211807250976
0.5567991256713867,0.7828022003173828
0.5567991256713867,0.7828022003173828
0.5539587020874023,0.7829738616943359
0.5539587020874023,0.7829738616943359
0.5507812500000000,0.7851110458374023
0.5549732208251953,0.7851110458374023
0.5528423309326171,0.7850337982177734
0.5528423309326171,0.7850337982177734
0.5599599838256836,0.7884201049804688
0.5599599838256836,0.7884201049804688
0.5518014907836913,0.7822517395019531
0.5518014907836913,0.7822517395019531
0.5551036834716797,0.7881065368652344
0.5551036834716797,0.7881065368652344
0.5521385192871093,0.7880321502685547
0.5521385192871093,0.7880321502685547
0.5608371734619141,0.7879714965820312
0.5608371734619141,0.7879714965820312
0.5550418853759765,0.7880018234252929
0.5550418853759765,0.7880018234252929
0.5528285980224609,0.7871932983398438
0.5528285980224609,0.7871932983398438
0.5555105209350586,0.7896526336669921
0.5555105209350586,0.7896526336669921
0.5577587127685547,0.7870645523071289
0.5577587127685547,0.7870645523071289
0.5520103454589843,0.7792396545410156
0.5520103454589843,0.7792396545410156
0.5503086090087891,0.7799182891845703
0.5503086090087891,0.7799182891845703
0.5457778930664062,0.7721454620361328
0.5457778930664062,0.7721454620361328
0.5528921127319336,0.7716321945190430
0.5528921127319336,0.7716321945190430
0.5421901702880859,0.7642696380615234
0.5421901702880859,0.7642696380615234
0.5422937393188476,0.7619916915893554
0.5422937393188476,0.7619916915893554
0.5412460327148437,0.7621341705322265
0.5412460327148437,0.7621341705322265
0.5424236297607422,0.7560882568359375
0.5424236297607422,0.7560882568359375
0.5398441314697265,0.7552236557006836
0.5398441314697265,0.7552236557006836
0.5359468460083008,0.7552368164062500
0.5359468460083008,0.7552368164062500
0.5376371383666992,0.7536832809448242
0.5376371383666992,0.7536832809448242
0.5423675537109375,0.7569734573364257
0.5423675537109375,0.7569734573364257
0.5360521316528321,0.7513017654418945
0.5360521316528321,0.7513017654418945
0.5394796371459961,0.7564201354980469
0.5394796371459961,0.7564201354980469
0.5368280410766602,0.7571502685546875
0.5368280410766602,0.7571502685546875
0.5441648483276367,0.7572063446044922
0.5441648483276367,0.7572063446044922
0.5408918380737304,0.7591415405273437
0.5408918380737304,0.7591415405273437
0.5395832061767578,0.7590734481811523
0.5395832061767578,0.7590734481811523
0.5434078216552735,0.7637638092041016
0.5434078216552735,0.7637638092041016
0.5473205566406250,0.7652315139770508
0.5473205566406250,0.7652315139770508
0.5443313598632812,0.7625009536743164
0.5443313598632812,0.7625009536743164
0.5456949234008789,0.7694469451904297
0.5456949234008789,0.7694469451904297
0.5439182281494140,0.7670831680297852
0.5439182281494140,0.7670831680297852
0.5543483734130860,0.7711418151855468
0.5543483734130860,0.7711418151855468
0.5451044082641602,0.7683551788330077
0.5451044082641602,0.7683551788330077
0.5473926544189452,0.7703905105590820
0.5473926544189452,0.7703905105590820
0.5481954574584961,0.7743925094604492
0.5481954574584961,0.7743925094604492
0.5530162811279297,0.7715217590332031
0.5530162811279297,0.7715217590332031
0.5497432708740234,0.7719045639038086
0.5497432708740234,0.7719045639038086
0.5468095779418946,0.7746631622314453
0.5468095779418946,0.7746631622314453
0.5486869812011719,0.7742397308349609
0.5486869812011719,0.7742397308349609
0.5568208694458008,0.7783733367919922
0.5568208694458008,0.7783733367919922
0.5476890563964844,0.7715091705322266
0.5476890563964844,0.7715091705322266
0.5510839462280274,0.7782182693481445
0.5510839462280274,0.7782182693481445
0.5479305267333984,0.7784946441650390
0.5479305267333984,0.7784946441650390
0.5573925018310547,0.7782789230346679
0.5573925018310547,0.7782789230346679
0.5514358520507813,0.7789770126342773
0.5514358520507813,0.7789770126342773
0.5492568969726562,0.7787429809570312
0.5492568969726562,0.7787429809570312
0.5525121688842773,0.7829406738281249
0.5525121688842773,0.7829406738281249
0.5571670532226562,0.7835346221923828
0.5571670532226562,0.7835346221923828
0.5521579742431640,0.7792499542236327
0.5521579742431640,0.7792499542236327
0.5529573440551757,0.7860620498657226
0.5529573440551757,0.7860620498657226
0.5507761001586914,0.7829893112182617
0.5513723373413085,0.7829893112182617
0.5611289978027344,0.7869152069091797
0.5611289978027344,0.7869152069091797
0.5512195587158203,0.7830945968627929
0.5512195587158203,0.7830945968627929
0.5524681091308593,0.7837863922119140
0.5524681091308593,0.7837863922119140
0.5521144866943359,0.7854394912719727
0.5521144866943359,0.7854394912719727
0.5555110931396484,0.7778251647949218
0.5555110931396484,0.7778251647949218
0.5492832183837890,0.7728830337524414
0.5492832183837890,0.7728830337524414
0.5444114685058593,0.7709650039672852
0.5444114685058593,0.7709650039672852
0.5442049026489257,0.7658386230468750
0.5442049026489257,0.7658386230468750
0.5499481201171875,0.7663530349731446
0.5499481201171875,0.7663530349731446
0.5396581649780273,0.7560567855834961
0.5396581649780273,0.7560567855834961
0.5410228729248047,0.7587032318115234
0.5410228729248047,0.7587032318115234
0.5368526458740234,0.7565872192382812
0.5368526458740234,0.7565872192382812
0.5433603286743164,0.7534692764282226
0.5433603286743164,0.7534692764282226
0.5379306793212890,0.7532752990722656
0.5379306793212890,0.7532752990722656
0.5351491928100586,0.7507570266723632
0.5351491928100586,0.7507570266723632
0.5379730224609375,0.7536666870117187
0.5379730224609375,0.7536666870117187
0.5402040481567383,0.7535242080688477
0.5402040481567383,0.7535242080688477
0.5367410659790038,0.7498186111450195
0.5367410659790038,0.7498186111450195
0.5378683090209960,0.7560247421264649
0.5378683090209960,0.7560247421264649
0.5357156753540039,0.7530447006225586
0.5357156753540039,0.7530447006225586
0.5446237564086914,0.7576423645019531
0.5446237564086914,0.7576423645019531
0.5372966766357422,0.7561740875244141
0.5372966766357422,0.7561740875244141
0.5397869110107422,0.7579685211181640
0.5397869110107422,0.7579685211181640
0.5413158416748046,0.7636516571044921
0.5413158416748046,0.7636516571044921
0.5454277038574219,0.7617010116577149
0.5454277038574219,0.7617010116577149
0.5440423965454101,0.7639898300170899
0.5440423965454101,0.7639898300170899
0.5417678833007812,0.7672445297241210
0.5417678833007812,0.7672445297241210
0.5440561294555664,0.7673280715942382
0.5440561294555664,0.7673280715942382
0.5511989593505859,0.7725437164306640
0.5511989593505859,0.7725437164306640
0.5439594268798827,0.7666357040405273
0.5439594268798827,0.7666357040405273
0.5475814819335937,0.7732658386230469
0.5475814819335937,0.7732658386230469
0.5450935363769531,0.7741779327392578
0.5450935363769531,0.7741779327392578
0.5533321380615234,0.7736320495605469
0.5533321380615234,0.7736320495605469
0.5487796783447265,0.7753377914428711
0.5487796783447265,0.7753377914428711
0.5468793869018554,0.7746133804321289
0.5468793869018554,0.7746133804321289
0.5500860214233398,0.7787086486816406
0.5500860214233398,0.7787086486816406
0.5546968460083007,0.7796041488647460
0.5546968460083007,0.7796041488647460
0.5498834609985351,0.7751775741577148
0.5498834609985351,0.7751775741577148
0.5510993957519531,0.7825372695922851
0.5510993957519531,0.7825372695922851
0.5490869522094727,0.7792911529541016
0.5490869522094727,0.7792911529541016
0.5596366882324219,0.7836553573608398
0.5596366882324219,0.7836553573608398
0.5500871658325195,0.7807823181152344
0.5500871658325195,0.7807823181152344
0.5518026351928711,0.7827758789062500
0.5518026351928711,0.7827758789062500
0.5530340194702148,0.7875984191894531
0.5530340194702148,0.7875984191894531
0.5582359313964843,0.7846223831176757
0.5582359313964843,0.7846223831176757
0.5546092987060547,0.7852981567382812
0.5546092987060547,0.7852981567382812
0.5523365020751952,0.7885574340820313
0.5523365020751952,0.7885574340820313
0.5538002014160156,0.7872287750244140
0.5538002014160156,0.7872287750244140
0.5618499755859375,0.7911043167114258
0.5618499755859375,0.7911043167114258
0.5524892807006836,0.7825721740722656
0.5524892807006836,0.7825721740722656
0.5542945861816406,0.7857221603393555
0.5542945861816406,0.7857221603393555
0.5495796203613281,0.7813293457031250
0.5495796203613281,0.7813293457031250
0.5554864883422851,0.7744005203247070
0.5554864883422851,0.7744005203247070
0.5478286743164062,0.7706760406494141
0.5478286743164062,0.7706760406494141
0.5437694549560547,0.7655199050903320
0.5437694549560547,0.7655199050903320
0.5449790954589844,0.7649271011352539
0.5449790954589844,0.7649271011352539
0.5471071243286133,0.7619974136352539
0.5471071243286133,0.7619974136352539
0.5411647796630860,0.7546863555908203
0.5411647796630860,0.7546863555908203
0.5408683776855469,0.7588834762573242
0.5408683776855469,0.7588834762573242
0.5374013900756835,0.7533485412597656
0.5374013900756835,0.7533485412597656
0.5447616577148438,0.7546211242675781
0.5447616577148438,0.7546211242675781
0.5355199813842774,0.7506397247314452
0.5355199813842774,0.7506397247314452
0.5360761642456054,0.7497848510742188
0.5360761642456054,0.7497848510742188
0.5363096237182617,0.7528633117675781
0.5363096237182617,0.7528633117675781
0.5377727508544922,0.7487571716308593
0.5377727508544922,0.7487571716308593
0.5365671157836914,0.7500120162963867
0.5365671157836914,0.7500120162963867
0.5339183807373047,0.7521537780761719
0.5339183807373047,0.7521537780761719
0.5356052398681640,0.7517051696777344
0.5356052398681640,0.7517051696777344
0.5414772033691406,0.7573030471801757
0.5414772033691406,0.7573030471801757
0.5365516662597656,0.7536231994628906
0.5365516662597656,0.7536231994628906
0.5404947280883788,0.7604112625122070
0.5404947280883788,0.7604112625122070
0.5393445968627929,0.7626588821411132
0.5393445968627929,0.7626588821411132
0.5465566635131835,0.7634748458862305
0.5465566635131835,0.7634748458862305
0.5445190429687500,0.7665384292602538
0.5445190429687500,0.7665384292602538
0.5432796478271484,0.7662969589233398
0.5432796478271484,0.7662969589233398
0.5465457916259765,0.7702795028686523
0.5465457916259765,0.7702795028686523
0.5508190155029297,0.7715526580810547
0.5508190155029297,0.7715526580810547
0.5464771270751952,0.7670614242553710
0.5464771270751952,0.7670614242553710
0.5476438522338867,0.7736286163330078
0.5476438522338867,0.7736286163330078
0.5455009460449218,0.7702886581420898
0.5455009460449218,0.7702886581420898
0.5557554244995117,0.7738065719604492
0.5557554244995117,0.7738065719604492
0.5461858749389649,0.7705375671386718
0.5461858749389649,0.7705375671386718
0.5471969604492187,0.7716825485229492
0.5471969604492187,0.7716825485229492
0.5481399536132813,0.7756977081298828
0.5481399536132813,0.7756977081298828
0.5530740737915039,0.7721151351928711
0.5530740737915039,0.7721151351928711
0.5487150192260742,0.7715898513793945
0.5487150192260742,0.7715898513793945
0.5461927413940429,0.7748743057250976
0.5461927413940429,0.7748743057250976
0.5472478866577148,0.7732698440551757
0.5472478866577148,0.7732698440551757
0.5558166503906250,0.7751117706298828
0.5504350662231445,0.7751117706298828
0.5492397308349609,0.7777765274047851
0.5492397308349609,0.7775997161865235
0.5424757003784180,0.7759895324707031
0.5424757003784180,0.7759895324707031
0.5498205184936523,0.7787984848022461
0.5498205184936523,0.7787984848022461
0.5464857101440429,0.7766921997070312
0.5464857101440429,0.7766921997070312
0.5480152130126953,0.7747484207153320
0.5480152130126953,0.7747484207153320
0.5422920227050781,0.7753286361694336
0.5422920227050781,0.7753286361694336
0.5436784744262695,0.7679082870483398
0.5436784744262695,0.7679082870483398
0.5459575653076172,0.7670591354370117
0.5459575653076172,0.7670591354370117
0.5395271301269531,0.7615528106689453
0.5395271301269531,0.7615528106689453
0.5369585037231445,0.7586133956909179
0.5369585037231445,0.7586133956909179
0.5384656906127929,0.7571239471435547
0.5384656906127929,0.7571239471435547
0.5370346069335937,0.7512296676635742
0.5370346069335937,0.7512296676635742
0.5380125045776367,0.7509927749633789
0.5364269256591797,0.7509927749633789
0.5306980133056640,0.7488487243652343
0.5306980133056640,0.7488487243652343
0.5363914489746093,0.7475961685180664
0.5363914489746093,0.7475961685180664
0.5362054824829101,0.7489946365356445
0.5362054824829101,0.7489946365356445
0.5339693069458008,0.7453302383422852
0.5339693069458008,0.7453302383422852
0.5333879470825195,0.7484258651733399
0.5333879470825195,0.7484258651733399
0.5328054428100586,0.7459865570068359
0.5328054428100586,0.7459865570068359
0.5355817794799804,0.7464969635009765
0.5355817794799804,0.7464969635009765
0.5341438293457031,0.7484315872192383
0.5341438293457031,0.7484315872192383
0.5313159942626953,0.7462640762329101
0.5313159942626953,0.7462640762329101
0.5359600067138671,0.7495450973510742
0.5359600067138671,0.7495450973510742
0.5335390090942382,0.7487995147705078
0.5335390090942382,0.7487995147705078
0.5354032516479492,0.7498495101928710
0.5354032516479492,0.7498495101928710
0.5339841842651367,0.7535253524780273
0.5339841842651367,0.7535253524780273
0.5349409103393554,0.7523260116577148
0.5349409103393554,0.7523260116577148
0.5377773284912110,0.7554948806762695
0.5377773284912110,0.7554948806762695
0.5355491638183594,0.7554811477661133
0.5355491638183594,0.7554811477661133
0.5364194869995117,0.7564962387084960
0.5364194869995117,0.7564962387084960
0.5379638671875000,0.7595603942871093
0.5379638671875000,0.7595603942871093
0.5376371383666992,0.7578489303588867
0.5376371383666992,0.7578489303588867
0.5394252777099610,0.7601697921752929
0.5394252777099610,0.7601697921752929
0.5353019714355468,0.7597915649414062
0.5353019714355468,0.7597915649414062
0.5388885498046875,0.7599597930908203
0.5388885498046875,0.7599597930908203
0.5387008666992187,0.7628494262695312
0.5387008666992187,0.7628494262695312
0.5379770278930663,0.7602018356323242
0.5379770278930663,0.7602018356323242
0.5404031753540038,0.7648286819458008
0.5404031753540038,0.7648286819458008
0.5382265090942383,0.7640087127685546
0.5382265090942383,0.7640087127685546
0.5421243667602539,0.7652046203613281
0.5421243667602539,0.7652046203613281
0.5417289733886719,0.7693456649780274
0.5417289733886719,0.7693456649780274
0.5405038833618164,0.7674385070800781
0.5405038833618164,0.7674385070800781
0.5452360153198242,0.7718416213989258
0.5452360153198242,0.7718416213989258
0.5424356460571289,0.7713764190673827
0.5424356460571289,0.7713764190673827
0.5456983566284179,0.7721025466918945
0.5456983566284179,0.7721025466918945
0.5435800552368164,0.7761028289794921
0.5435800552368164,0.7761028289794921
0.5450586318969727,0.7735284805297852
0.5450586318969727,0.7735284805297852
0.5490262985229492,0.7777736663818359
0.5490262985229492,0.7777736663818359
0.5448818206787109,0.7768867492675781
0.5493432998657226,0.7768867492675781
0.5460783004760742,0.7780763626098632
0.5431800842285156,0.7780763626098632
0.5480792999267577,0.7809888839721679
0.5538476943969727,0.7809888839721679
0.5474658966064453,0.7773456573486328
0.5460382461547851,0.7773456573486328
0.5495389938354492,0.7786325454711914
0.5476781845092773,0.7786325454711914
0.5424310684204101,0.7747472763061524
0.5424310684204101,0.7747472763061524
0.5461904525756835,0.7700654983520507
0.5461904525756835,0.7700654983520507
0.5439525604248047,0.7681262969970702
0.5439525604248047,0.7681262969970702
0.5404243469238281,0.7610069274902344
0.5404243469238281,0.7610069274902344
0.5394475936889648,0.7611825942993163
0.5394475936889648,0.7611825942993163
0.5368354797363281,0.7560871124267577
0.5368354797363281,0.7560871124267577
0.5388599395751953,0.7535636901855468
0.5388599395751953,0.7535636901855468
0.5368829727172851,0.7539304733276367
0.5368829727172851,0.7539304733276367
0.5334148406982422,0.7503227233886719
0.5334148406982422,0.7503227233886719
0.5385761260986328,0.7529937744140625
0.5403007507324219,0.7529937744140625
0.5357065200805664,0.7507627487182617
0.5357065200805664,0.7507627487182617
0.5377201080322266,0.7507478713989257
0.5377201080322266,0.7507478713989257
0.5346227645874023,0.7536672592163086
0.5346227645874023,0.7536672592163086
0.5363645553588867,0.7505207061767578
0.5363645553588867,0.7505207061767578
0.5393697738647460,0.7539281845092773
0.5393697738647460,0.7539281845092773
0.5356893539428711,0.7524095535278320
0.5356893539428711,0.7524095535278320
0.5362981796264649,0.7540140151977539
0.5362981796264649,0.7540140151977539
0.5383918762207031,0.7571680068969726
0.5383918762207031,0.7571680068969726
0.5386041641235352,0.7551229476928710
0.5386041641235352,0.7551229476928710
0.5402584075927734,0.7585887908935547
0.5402584075927734,0.7585887908935547
0.5345666885375976,0.7578746795654296
0.5345666885375976,0.7578746795654296
0.5390207290649414,0.7579856872558594
0.5390207290649414,0.7579856872558594
0.5382265090942383,0.7608690261840820
0.5382265090942383,0.7608690261840820
0.5368486404418945,0.7581544876098633
0.5368486404418945,0.7581544876098633
0.5381875991821289,0.7618320465087890
0.5381875991821289,0.7618320465087890
0.5361167907714843,0.7604404449462890
0.5361167907714843,0.7604404449462890
0.5388576507568359,0.7606023788452149
0.5388576507568359,0.7606023788452149
0.5377761840820312,0.7634170532226562
0.5377761840820312,0.7634170532226562
0.5359416961669922,0.7611408233642578
0.5359416961669922,0.7611408233642578
0.5399007797241211,0.7650529861450195
0.5399007797241211,0.7650529861450195
0.5375553131103515,0.7652669906616211
0.5375553131103515,0.7652669906616211
0.5412591934204102,0.7669046401977538
0.5412591934204102,0.7669046401977538
0.5408266067504882,0.7721626281738281
0.5408266067504882,0.7721626281738281
0.5428670883178711,0.7714096069335937
0.5428670883178711,0.7714096069335937
0.5478549957275390,0.7766859054565429
0.5478549957275390,0.7766859054565429
0.5454608917236328,0.7773622512817383
0.5454608917236328,0.7773622512817383
0.5472970962524414,0.7791881561279297
0.5472970962524414,0.7791881561279297
0.5496929168701171,0.7825807571411133
0.5496929168701171,0.7825807571411133
0.5491830825805664,0.7800968170166015
0.5491830825805664,0.7800968170166015
0.5517911911010742,0.7829738616943359
0.5517911911010742,0.7829738616943359
0.5521602630615234,0.7852186203002930
0.5521602630615234,0.7852186203002930
0.5530826568603515,0.7830648422241211
0.5530826568603515,0.7830648422241211
0.5506422042846679,0.7809219360351562
0.5506422042846679,0.7809219360351562
0.5460668563842773,0.7691722869873047
0.5460668563842773,0.7691722869873047
0.5460668563842773,0.7684089660644531
0.5390556335449218,0.7640567779541015
0.5418983459472656,0.7639572143554687
0.5403820037841797,0.7568567276000976
0.5403820037841797,0.7576515197753906
0.5403820037841797,0.7576515197753906
0.5401926040649414,0.7548934936523437
0.5401926040649414,0.7548934936523437
0.5343532562255859,0.7559349060058593
0.5343532562255859,0.7559349060058593
0.5370798110961914,0.7512382507324219
0.5370798110961914,0.7512382507324219
0.5400318145751953,0.7531820297241211
0.5400318145751953,0.7531820297241211
0.5355783462524414,0.7502065658569336
0.5355783462524414,0.7502065658569336
0.5339452743530273,0.7511489868164062
0.5339452743530273,0.7511489868164062
0.5377721786499023,0.7531660079956054
0.5377721786499023,0.7531660079956054
0.5382350921630860,0.7501567840576172
0.5382350921630860,0.7501567840576172
0.5391912460327148,0.7527437210083008
0.5391912460327148,0.7527437210083008
0.5315677642822265,0.7520553588867187
0.5315677642822265,0.7520553588867187
0.5387197494506836,0.7517629623413086
0.5387197494506836,0.7517629623413086
0.5383523941040039,0.7547893524169922
0.5383523941040039,0.7547893524169922
0.5367341995239258,0.7514934539794922
0.5367341995239258,0.7514934539794922
0.5354988098144531,0.7561546325683594
0.5354988098144531,0.7561546325683594
0.5361705780029297,0.7549341201782226
0.5361705780029297,0.7549341201782226
0.5362318038940429,0.7555864334106445
0.5378866195678711,0.7584102630615234
0.5378866195678711,0.7584102630615234
0.5331642150878906,0.7559680938720703
0.5331642150878906,0.7559680938720703
0.5393640518188476,0.7588399887084961
0.5393640518188476,0.7588399887084961
0.5357568740844726,0.7571611404418945
0.5357568740844726,0.7571611404418945
0.5376085281372071,0.7567668914794922
0.5376085281372071,0.7567668914794922
0.5347434997558593,0.7602567672729492
0.5347434997558593,0.7602567672729492
0.5359233856201172,0.7575685501098632
0.5359233856201172,0.7575685501098632
0.5395729064941406,0.7610349655151367
0.5395729064941406,0.7610349655151367
0.5356103897094726,0.7602756500244140
0.5356103897094726,0.7602756500244140
0.5371330261230468,0.7611722946166992
0.5371330261230468,0.7611722946166992
0.5385898590087891,0.7644510269165039
0.5385898590087891,0.7644510269165039
0.5377590179443359,0.7622262954711914
0.5377590179443359,0.7622262954711914
0.5410875320434571,0.7656961441040039
0.5410875320434571,0.7656961441040039
0.5362300872802734,0.7660863876342773
0.5362300872802734,0.7660863876342773
0.5418313980102539,0.7672948837280273
0.5418313980102539,0.7672948837280273
0.5430473327636719,0.7715623855590820
0.5430473327636719,0.7715623855590820
0.5419498443603515,0.7697261810302735
0.5419498443603515,0.7697261810302735
0.5440057754516602,0.7741104125976562
0.5440057754516602,0.7741104125976562
0.5431417465209961,0.7736434936523438
0.5431417465209961,0.7736434936523438
0.5466688156127929,0.7743736267089844
0.5466688156127929,0.7743736267089844
0.5463432312011719,0.7773262023925781
0.5463432312011719,0.7773262023925781
0.5429048538208008,0.7756050109863281
0.5429048538208008,0.7756050109863281
0.5489227294921875,0.7782428741455077
0.5489227294921875,0.7782428741455077
0.5458820343017577,0.7761531829833984
0.5458820343017577,0.7761531829833984
0.5471008300781249,0.7737848281860351
0.5433952331542968,0.7737848281860351
0.5423343658447265,0.7724035263061523
0.5453544616699219,0.7724035263061523
0.5416088104248047,0.7633443832397461
0.5416088104248047,0.7633443832397461
0.5432270050048827,0.7620122909545898
0.5432270050048827,0.7620122909545898
0.5374929428100585,0.7560636520385742
0.5374929428100585,0.7560636520385742
0.5357019424438476,0.7535619735717773
0.5364086151123046,0.7500503540039062
0.5376010894775390,0.7533536911010742
0.5438146591186523,0.7533536911010742
0.5365842819213867,0.7484579086303711
0.5365842819213867,0.7484579086303711
0.5379375457763672,0.7499599456787109
0.5379375457763672,0.7499599456787109
0.5303306579589844,0.7483285903930664
0.5303306579589844,0.7483285903930664
0.5368068695068359,0.7477077484130860
0.5368068695068359,0.7477077484130860
0.5365659713745117,0.7501642227172851
0.5365659713745117,0.7501642227172851
0.5345357894897461,0.7462446212768554
0.5345357894897461,0.7462446212768554
0.5341318130493163,0.7504491806030273
0.5341318130493163,0.7504491806030273
0.5345077514648438,0.7492149353027343
0.5345077514648438,0.7492149353027343
0.5387466430664062,0.7496337890625000
0.5387466430664062,0.7496337890625000
0.5370117187500000,0.7527551651000977
0.5370117187500000,0.7527551651000977
0.5322057723999023,0.7508646011352539
0.5322057723999023,0.7508646011352539
0.5393520355224609,0.7541324615478515
0.5393520355224609,0.7541324615478515
0.5363777160644531,0.7542028427124023
0.5363777160644531,0.7542028427124023
0.5392261505126953,0.7546285629272461
0.5392261505126953,0.7546285629272461
0.5359731674194336,0.7596496582031250
0.5359731674194336,0.7596496582031250
0.5387248992919922,0.7577722549438476
0.5387248992919922,0.7577722549438476
0.5437540054321289,0.7621879577636719
0.5437540054321289,0.7621879577636719
0.5395477294921874,0.7623430252075195
0.5395477294921874,0.7623430252075195
0.5394842147827148,0.7639348983764648
0.5368886947631836,0.7639348983764648
0.5430662155151367,0.7673870086669922
0.5430662155151367,0.7673870086669922
0.5421998977661132,0.7653820037841796
0.5421998977661132,0.7653820037841796
0.5451581954956054,0.7681875228881836
0.5451581954956054,0.7681875228881836
0.5383541107177734,0.7683557510375977
0.5383541107177734,0.7683557510375977
0.5444337844848632,0.7683666229248046
0.5444337844848632,0.7683666229248046
0.5448480606079101,0.7711624145507813
0.5448480606079101,0.7711624145507813
0.5420305252075195,0.7682928085327149
0.5420305252075195,0.7682928085327149
0.5424058914184570,0.7715595245361327
0.5424058914184570,0.7715595245361327
0.5414720535278320,0.7703453063964844
0.5414720535278320,0.7703453063964844
0.5444395065307617,0.7701725006103516
0.5444395065307617,0.7701725006103516
0.5434364318847656,0.7725797653198242
0.5434364318847656,0.7725797653198242
0.5394001007080078,0.7703916549682617
0.5394001007080078,0.7703916549682617
0.5453264236450195,0.7734786987304687
0.5453264236450195,0.7734786987304687
0.5427045822143555,0.7729448318481446
0.5427045822143555,0.7729448318481446
0.5451364517211914,0.7737979888916016
0.5451364517211914,0.7737979888916016
0.5434375762939453,0.7783098220825195
0.5434375762939453,0.7783098220825195
0.5452686309814453,0.7766710281372070
0.5452686309814453,0.7766710281372070
0.5500665664672851,0.7814243316650390
0.5500665664672851,0.7814243316650390
0.5472484588623047,0.7815113067626953
0.5472484588623047,0.7815113067626953
0.5486457824707031,0.7835437774658203
0.5486457824707031,0.7835437774658203
0.5517574310302734,0.7869318008422851
0.5517574310302734,0.7869318008422851
0.5514627456665039,0.7835706710815430
0.5514627456665039,0.7835706710815430
0.5533779144287109,0.7852449417114258
0.5533779144287109,0.7852449417114258
0.5454013824462890,0.7820886611938477
0.5454013824462890,0.7820886611938477
0.5502696990966797,0.7776580810546875
0.5502696990966797,0.7776580810546875
0.5476598739624023,0.7744153976440430
0.5476598739624023,0.7744153976440430
0.5427972793579101,0.7646776199340820
0.5427972793579101,0.7646776199340820
0.5410938262939453,0.7640104293823242
0.5410938262939453,0.7640104293823242
0.5386693954467773,0.7583959579467773
0.5386693954467773,0.7583959579467773
0.5412717819213867,0.7545410156250000
0.5412717819213867,0.7545410156250000
0.5384599685668945,0.7547304153442382
0.5384599685668945,0.7547304153442382
0.5327510833740234,0.7500154495239257
0.5327510833740234,0.7500154495239257
0.5392873764038085,0.7517938613891602
0.5392873764038085,0.7517938613891602
0.5352516174316406,0.7500286102294922
0.5352516174316406,0.7500286102294922
0.5377498626708984,0.7490421295166015
0.5377498626708984,0.7490421295166015
0.5338451385498046,0.7528839111328125
0.5338451385498046,0.7528839111328125
0.5359668731689453,0.7495531082153321
0.5359668731689453,0.7495531082153321
0.5408088684082031,0.7530715942382812
0.5408088684082031,0.7530715942382812
0.5357746124267578,0.7527179718017578
0.5357746124267578,0.7527179718017578
0.5357151031494141,0.7535871505737305
0.5357151031494141,0.7535871505737305
0.5393199920654297,0.7573556900024414
0.5393199920654297,0.7573556900024414
0.5385698318481446,0.7556087493896484
0.5385698318481446,0.7556087493896484
0.5421712875366210,0.7593057632446288
0.5421712875366210,0.7593057632446288
0.5356292724609375,0.7607849121093749
0.5356292724609375,0.7607849121093749
0.5426799774169921,0.7619871139526367
0.5426799774169921,0.7619871139526367
0.5441740036010742,0.7662248611450195
0.5441740036010742,0.7662248611450195
0.5416494369506836,0.7644887924194336
0.5416494369506836,0.7644887924194336
0.5419801712036133,0.7691030502319336
0.5419801712036133,0.7691030502319336
0.5422599792480468,0.7687311172485352
0.5422599792480468,0.7687311172485352
0.5457681655883789,0.7695322036743164
0.5457681655883789,0.7695322036743164
0.5449201583862304,0.7722135543823242
0.5449201583862304,0.7722135543823242
0.5399276733398437,0.7700700759887695
0.5399276733398437,0.7700700759887695
0.5469320297241210,0.7730581283569335
0.5495161056518555,0.7730581283569335
0.5438901901245117,0.7719961166381836
0.5438901901245117,0.7719961166381836
0.5452920913696289,0.7714096069335937
0.5452920913696289,0.7714096069335937
0.5411504745483399,0.7743604660034179
0.5411504745483399,0.7743604660034179
0.5426622390747070,0.7704837799072265
0.5426622390747070,0.7704837799072265
0.5461629867553711,0.7732795715332031
0.5461629867553711,0.7732795715332031
0.5416769027709961,0.7714931488037109
0.5416769027709961,0.7714931488037109
0.5415578842163086,0.7721391677856445
0.5415578842163086,0.7721391677856445
0.5442907333374023,0.7749950408935546
0.5442907333374023,0.7749950408935546
0.5435531616210937,0.7719314575195312
0.5435531616210937,0.7719314575195312
0.5460519790649414,0.7752101898193359
0.5460519790649414,0.7752101898193359
0.5399333953857421,0.7748577117919921
0.5399333953857421,0.7748577117919921
0.5457778930664062,0.7751174926757812
0.5457778930664062,0.7751174926757812
0.5461898803710937,0.7785049438476562
0.5461898803710937,0.7785049438476562
0.5445539474487304,0.7752691268920898
0.5445539474487304,0.7752691268920898
0.5455902099609374,0.7785243988037109
0.5455902099609374,0.7785243988037109
0.5442821502685546,0.7759803771972656
0.5442821502685546,0.7759803771972656
0.5472507476806641,0.7729333877563477
0.5472507476806641,0.7729333877563477
0.5440847396850585,0.7705535888671875
0.5440847396850585,0.7705535888671875
0.5368383407592773,0.7617845535278320
0.5368383407592773,0.7617845535278320
0.5417724609375000,0.7602693557739257
0.5417724609375000,0.7602693557739257
0.5364698410034180,0.7553352355957031
0.5364698410034180,0.7553352355957031
0.5376274108886718,0.7511884689331054
0.5376274108886718,0.7511884689331054
0.5326715469360351,0.7521074295043945
0.5326715469360351,0.7521074295043945
0.5336729049682617,0.7465106964111328
0.5336729049682617,0.7465106964111328
0.5378505706787109,0.7478319168090820
0.5378505706787109,0.7478319168090820
0.5320466995239258,0.7455614089965820
0.5320466995239258,0.7455614089965820
0.5308193206787110,0.7452753067016601
0.5308193206787110,0.7452753067016601
0.5347171783447265,0.7477718353271484
0.5347171783447265,0.7477718353271484
0.5334938049316406,0.7446367263793945
0.5334938049316406,0.7446367263793945
0.5367902755737305,0.7472711563110351
0.5367902755737305,0.7472711563110351
0.5292331695556640,0.7481277465820312
0.5292331695556640,0.7481277465820312
0.5369693756103515,0.7485466003417969
0.5369693756103515,0.7485466003417969
0.5385646820068359,0.7522825241088867
0.5385646820068359,0.7522825241088867
0.5354850769042968,0.7500686645507812
0.5354850769042968,0.7500686645507812
0.5352075576782226,0.7547733306884765
0.5352075576782226,0.7547733306884765
0.5365539550781250,0.7550313949584960
0.5365539550781250,0.7550313949584960
0.5404386520385742,0.7563714981079102
0.5404386520385742,0.7563714981079102
0.5404535293579101,0.7597915649414062
0.5404535293579101,0.7597915649414062
0.5350204467773437,0.7592067718505859
0.5350204467773437,0.7592067718505859
0.5436578750610351,0.7630548477172852
0.5436578750610351,0.7630548477172852
0.5417695999145508,0.7631452560424804
0.5417695999145508,0.7631452560424804
0.5433345794677734,0.7638210296630860
0.5433345794677734,0.7638210296630860
0.5391466140747070,0.7676382064819336
0.5391466140747070,0.7676382064819336
0.5421175003051758,0.7648349761962890
0.5421175003051758,0.7648349761962890
0.5461509704589843,0.7680793762207031
0.5461509704589843,0.7680793762207031
0.5419464111328125,0.7667427062988281
0.5419464111328125,0.7667427062988281
0.5406211853027344,0.7677000045776367
0.5406211853027344,0.7677000045776367
0.5448457717895507,0.7704380035400390
0.5448457717895507,0.7704380035400390
0.5446592330932617,0.7676519393920899
0.5446592330932617,0.7676519393920899
0.5465675354003906,0.7705141067504883
0.5465675354003906,0.7705141067504883
0.5387523651123046,0.7702646255493164
0.5387523651123046,0.7702646255493164
0.5458488464355469,0.7701656341552734
0.5458488464355469,0.7701656341552734
0.5458934783935546,0.7734397888183594
0.5458934783935546,0.7734397888183594
0.5437236785888672,0.7698554992675781
0.5437236785888672,0.7698554992675781
0.5432086944580078,0.7741539001464843
0.5432086944580078,0.7741539001464843
0.5436441421508789,0.7730993270874024
0.5436441421508789,0.7730993270874024
0.5475179672241210,0.7731525421142578
0.5475179672241210,0.7731525421142578
0.5458700180053710,0.7761245727539062
0.5458700180053710,0.7761245727539062
0.5405015945434570,0.7737756729125976
0.5405015945434570,0.7737756729125976
0.5481016159057617,0.7771265029907226
0.5481016159057617,0.7771265029907226
0.5449098587036133,0.7767448425292969
0.5449098587036133,0.7767448425292969
0.5474447250366211,0.7757778167724609
0.5474447250366211,0.7757778167724609
0.5434993743896485,0.7788986206054688
0.5434993743896485,0.7788986206054688
0.5452537536621094,0.7730541229248047
0.5452537536621094,0.7730541229248047
0.5484849929809570,0.7712791442871093
0.5484849929809570,0.7712791442871093
0.5410795211791992,0.7649293899536133
0.5410795211791992,0.7649293899536133
0.5380777359008789,0.7611167907714843
0.5380777359008789,0.7611167907714843
0.5408329010009766,0.7598659515380859
0.5408329010009766,0.7598659515380859
0.5378683090209960,0.7531963348388672
0.5378683090209960,0.7531963348388672
0.5398321151733398,0.7525766372680663
0.5398321151733398,0.7525766372680663
0.5306962966918946,0.7507181167602539
0.5306962966918946,0.7507181167602539
0.5372920989990234,0.7484710693359374
0.5372920989990234,0.7484710693359374
0.5381395339965820,0.7499444961547851
0.5381395339965820,0.7499444961547851
0.5340162277221679,0.7453926086425781
0.5340162277221679,0.7453926086425781
0.5328735351562500,0.7480693817138672
0.5328735351562500,0.7480693817138672
0.5333141326904297,0.7461473464965820
0.5333141326904297,0.7461473464965820
0.5337879180908203,0.7439323425292969
0.5337879180908203,0.7439323425292969
0.5337879180908203,0.7427255630493164
0.5368972778320312,0.7464729309082031
0.5338897705078125,0.7464729309082031
0.5345169067382812,0.7480625152587891
0.5345169067382812,0.7480625152587891
0.5414829254150391,0.7471218109130859
0.5414829254150391,0.7471218109130859
0.5381441116333008,0.7482404708862305
0.5381441116333008,0.7482404708862305
0.5353397369384766,0.7491828918457031
0.5353397369384766,0.7491828918457031
0.5386035919189452,0.7524410247802734
0.5386035919189452,0.7524410247802734
0.5434347152709961,0.7550765991210937
0.5434347152709961,0.7550765991210937
0.5382591247558594,0.7516119003295898
0.5382591247558594,0.7516119003295898
0.5410125732421874,0.7582712173461914
0.5410125732421874,0.7582712173461914
0.5383975982666015,0.7573545455932617
0.5383975982666015,0.7573545455932617
0.5484151840209961,0.7609004974365234
0.5484151840209961,0.7609004974365234
0.5409696578979492,0.7604181289672851
0.5409696578979492,0.7604181289672851
0.5417747497558594,0.7620454788208008
0.5417747497558594,0.7620454788208008
0.5438072204589843,0.7660463333129882
0.5438072204589843,0.7660463333129882
0.5476564407348633,0.7647994995117188
0.5476564407348633,0.7647994995117188
0.5446775436401367,0.7641443252563477
0.5446775436401367,0.7641443252563477
0.5427715301513671,0.7686515808105469
0.5427715301513671,0.7686515808105469
0.5435136795043946,0.7677211761474609
0.5435136795043946,0.7677211761474609
0.5521923065185547,0.7716213226318359
0.5521923065185547,0.7716213226318359
0.5432024002075195,0.7670133590698242
0.5432024002075195,0.7670133590698242
0.5462207794189453,0.7715869903564453
0.5462207794189453,0.7715869903564453
0.5439130783081054,0.7730976104736328
