REDsignal,IRsignal
0.2740196228027343,0.3157510757446289
0.2740196228027343,0.3157510757446289
0.2697635650634765,0.3189937591552734
0.2697635650634765,0.3189937591552734
0.2693527221679687,0.3131074905395508
0.2693527221679687,0.3131074905395508
0.2743074417114258,0.3193313598632813
0.2743074417114258,0.3193313598632813
0.2681831359863281,0.3135051727294922
0.2681831359863281,0.3135051727294922
0.2741106033325195,0.3158843994140625
0.2741106033325195,0.3158843994140625
0.2697137832641601,0.3193336486816406
0.2697137832641601,0.3193336486816406
0.2693778991699219,0.3130920410156250
0.2693778991699219,0.3130920410156250
0.2743898391723633,0.3196002960205078
0.2743898391723633,0.3196002960205078
0.2684000015258789,0.3139337539672851
0.2684000015258789,0.3139337539672851
0.2742942810058593,0.3166688919067382
0.2742942810058593,0.3166688919067382
0.2699666976928711,0.3196649551391602
0.2699666976928711,0.3196649551391602
0.2696554183959961,0.3137792587280273
0.2673505783081054,0.3137792587280273
0.2748430252075195,0.3202640533447266
0.2748430252075195,0.3202640533447266
0.2686145782470703,0.3147949218750000
0.2686145782470703,0.3147949218750000
0.2745992660522461,0.3170705795288086
0.2745992660522461,0.3170705795288086
0.2700788497924805,0.3201679229736328
0.2700788497924805,0.3201679229736328
0.2700078964233398,0.3143337249755859
0.2675674438476562,0.3143337249755859
0.2749877929687500,0.3210273742675781
0.2749877929687500,0.3210273742675781
0.2688348770141601,0.3151056289672852
0.2688348770141601,0.3151056289672852
0.2747674942016601,0.3177743911743164
0.2747674942016601,0.3177743911743164
0.2703987121582031,0.3207155227661133
0.2703987121582031,0.3207155227661133
0.2700496673583984,0.3148962020874023
0.2700496673583984,0.3148962020874023
0.2750833511352539,0.3210302352905273
0.2750833511352539,0.3210302352905273
0.2687044143676758,0.3148160934448242
0.2687044143676758,0.3148160934448242
0.2746278762817383,0.3169412612915039
0.2746278762817383,0.3169412612915039
0.2699443817138672,0.3197404861450195
0.2699443817138672,0.3197404861450195
0.2694883346557617,0.3129570007324219
0.2694883346557617,0.3129570007324219
0.2742948532104492,0.3189508438110352
0.2742948532104492,0.3189508438110352
0.2680280685424805,0.3126182556152344
0.2680280685424805,0.3126182556152344
0.2736362457275390,0.3149213790893555
0.2736362457275390,0.3149213790893555
0.2690259933471680,0.3174562454223633
0.2690259933471680,0.3174562454223633
0.2685504913330078,0.3110120773315430
0.2685504913330078,0.3110120773315430
0.2736579895019531,0.3173595428466797
0.2736579895019531,0.3173595428466797
0.2673528671264648,0.3114475250244140
0.2673528671264648,0.3114475250244140
0.2732191085815430,0.3136802673339844
0.2732191085815430,0.3136802673339844
0.2687044143676758,0.3166065216064453
0.2687044143676758,0.3166065216064453
0.2684360504150390,0.3103334426879883
0.2659435272216797,0.3156909942626953
0.2733947753906250,0.3169933319091797
0.2697509765625000,0.3169933319091797
0.2671834945678711,0.3106996536254883
0.2671834945678711,0.3106996536254883
0.2729204177856445,0.3132402420043945
0.2729204177856445,0.3132402420043945
0.2687244415283203,0.3161499023437500
0.2687244415283203,0.3161499023437500
0.2682649612426758,0.3101097106933594
0.2682649612426758,0.3101097106933594
0.2733375549316406,0.3164325714111328
0.2733375549316406,0.3164325714111328
0.2670833587646484,0.3103734970092774
0.2670833587646484,0.3103734970092774
0.2729244232177734,0.3130760192871094
0.2729244232177734,0.3130760192871094
0.2685750961303711,0.3162717819213867
0.2685750961303711,0.3162717819213867
0.2682598114013672,0.3100507736206055
0.2682598114013672,0.3100507736206055
0.2733106613159180,0.3167730331420898
0.2733106613159180,0.3167730331420898
0.2673156738281250,0.3108627319335938
0.2673156738281250,0.3108627319335938
0.2731464385986328,0.3139749526977539
0.2731464385986328,0.3139749526977539
0.2686706542968750,0.3167232513427734
0.2686706542968750,0.3167232513427734
0.2685602188110351,0.3107717514038086
0.2685602188110351,0.3107717514038086
0.2737129211425781,0.3173274993896484
0.2737129211425781,0.3173274993896484
0.2674552917480469,0.3115665435791016
0.2674552917480469,0.3115665435791016
0.2733942031860351,0.3141712188720703
0.2733942031860351,0.3141712188720703
0.2687919616699219,0.3170499801635742
0.2687919616699219,0.3170499801635742
0.2687953948974609,0.3109582901000976
0.2661558151245117,0.3109582901000976
0.2736757278442383,0.3177572250366211
0.2736757278442383,0.3177572250366211
0.2674987792968750,0.3115402221679687
0.2674987792968750,0.3115402221679687
0.2734148025512695,0.3143274307250977
0.2734148025512695,0.3143274307250977
0.2690368652343750,0.3172794342041015
0.2690368652343750,0.3172794342041015
0.2688474655151367,0.3114292144775391
0.2688474655151367,0.3114292144775391
0.2738674163818359,0.3178934097290039
0.2738674163818359,0.3178934097290039
0.2675445556640625,0.3119464874267578
0.2675445556640625,0.3119464874267578
0.2738193511962890,0.3149499893188477
0.2738193511962890,0.3149499893188477
0.2692440032958984,0.3180227279663086
0.2692440032958984,0.3180227279663086
0.2689590454101562,0.3117708206176757
0.2664602279663086,0.3117708206176757
0.2740013122558594,0.3184833526611328
0.2740013122558594,0.3184833526611328
0.2679107666015625,0.3123905181884766
0.2679107666015625,0.3123905181884766
0.2737764358520507,0.3154998779296875
0.2657409667968750,0.3154998779296875
0.2693853378295898,0.3183111190795898
0.2693853378295898,0.3183111190795898
0.2690958023071289,0.3122308731079101
0.2690958023071289,0.3122308731079101
0.2743394851684570,0.3188844680786133
0.2743394851684570,0.3188844680786133
0.2679851531982422,0.3130130767822266
0.2679851531982422,0.3130130767822266
0.2738714218139648,0.3157138824462891
0.2738714218139648,0.3157138824462891
0.2695489883422851,0.3186281204223633
0.2695489883422851,0.3186281204223633
0.2693641662597656,0.3126268386840820
0.2693641662597656,0.3126268386840820
0.2743640899658203,0.3194755554199218
0.2743640899658203,0.3194755554199218
0.2682701110839844,0.3132448196411133
0.2682701110839844,0.3132448196411133
0.2739727020263672,0.3161664962768554
0.2739727020263672,0.3161664962768554
0.2697429656982422,0.3191797256469727
0.2697429656982422,0.3191797256469727
0.2695386886596680,0.3133512496948242
0.2695386886596680,0.3133512496948242
0.2745695114135742,0.3198354721069336
0.2745695114135742,0.3198354721069336
0.2684457778930664,0.3137718200683594
0.2684457778930664,0.3137718200683594
0.2744230270385742,0.3167415618896484
0.2744230270385742,0.3167415618896484
0.2699192047119141,0.3198514938354492
0.2699192047119141,0.3198514938354492
0.2697309494018554,0.3136001586914062
0.2697309494018554,0.3136001586914062
0.2746965408325195,0.3202743530273438
0.2746965408325195,0.3202743530273438
0.2687055587768555,0.3142358779907227
0.2687055587768555,0.3142358779907227
0.2744464874267578,0.3174076080322266
0.2744464874267578,0.3174076080322266
0.2699604034423828,0.3200506210327148
0.2699604034423828,0.3200506210327148
0.2698677062988281,0.3139011383056641
0.2698677062988281,0.3139011383056641
0.2749031066894531,0.3204019546508789
0.2749031066894531,0.3204019546508789
0.2685573577880859,0.3142318725585938
0.2685573577880859,0.3142318725585938
0.2742284774780273,0.3166254043579101
0.2742284774780273,0.3166254043579101
0.2695266723632813,0.3189800262451172
0.2695266723632813,0.3189800262451172
0.2693864822387695,0.3124305725097656
0.2693864822387695,0.3124305725097656
0.2741683959960937,0.3188541412353516
0.2741683959960937,0.3188541412353516
0.2676887512207031,0.3120969772338867
0.2676887512207031,0.3120969772338867
0.2734743118286133,0.3146873474121094
0.2654394149780273,0.3146873474121094
0.2688669204711914,0.3171421051025390
0.2688669204711914,0.3171421051025390
0.2686174392700195,0.3109445571899414
0.2686174392700195,0.3109445571899414
0.2734874725341797,0.3171730041503906
0.2734874725341797,0.3171730041503906
0.2671977996826172,0.3108283996582031
0.2671977996826172,0.3108283996582031
0.2731464385986328,0.3136425018310547
0.2731464385986328,0.3136425018310547
0.2685390472412109,0.3164182662963867
0.2685390472412109,0.3164182662963867
0.2682638168334961,0.3100450515747070
0.2682638168334961,0.3100450515747070
0.2732425689697265,0.3164680480957031
0.2732425689697265,0.3164680480957031
0.2670936584472656,0.3102201461791992
0.2670936584472656,0.3102201461791992
0.2727859497070312,0.3132808685302734
0.2727859497070312,0.3132808685302734
0.2683061599731445,0.3156074523925781
0.2683061599731445,0.3156074523925781
0.2680738449096680,0.3094076156616211
0.2680738449096680,0.3094076156616211
0.2731801986694336,0.3159908294677734
0.2731801986694336,0.3159908294677734
0.2668842315673828,0.3099929809570313
0.2668842315673828,0.3099929809570313
0.2727304458618164,0.3127395629882813
0.2727304458618164,0.3127395629882813
0.2682975769042968,0.3155347824096680
0.2682975769042968,0.3155347824096680
0.2681894302368164,0.3094842910766601
0.2681894302368164,0.3094842910766601
0.2731395721435547,0.3165390014648438
0.2731395721435547,0.3165390014648438
0.2669963836669922,0.3103145599365234
0.2669963836669922,0.3103145599365234
0.2728706359863281,0.3134782791137695
0.2728706359863281,0.3134782791137695
0.2686134338378906,0.3162729263305664
0.2686134338378906,0.3162729263305664
0.2684360504150390,0.3103935241699219
0.2684360504150390,0.3103935241699219
0.2733633041381836,0.3169904708862304
0.2733633041381836,0.3169904708862304
0.2672681808471680,0.3108015060424805
0.2672681808471680,0.3108015060424805
0.2730480194091797,0.3137907028198242
0.2730480194091797,0.3137907028198242
0.2686597824096680,0.3167289733886718
0.2686597824096680,0.3167289733886718
0.2685510635375977,0.3104576110839843
0.2685510635375977,0.3104576110839843
0.2734033584594727,0.3171724319458007
0.2734033584594727,0.3171724319458007
0.2674106597900390,0.3109107971191406
0.2674106597900390,0.3109107971191406
0.2730949401855469,0.3142776489257812
0.2730949401855469,0.3142776489257812
0.2687788009643555,0.3167667388916016
0.2687788009643555,0.3167667388916016
0.2686454772949219,0.3107591629028320
0.2686454772949219,0.3107591629028320
0.2737827301025391,0.3175157546997070
0.2737827301025391,0.3175157546997070
0.2673837661743164,0.3114761352539062
0.2673837661743164,0.3114761352539062
0.2731910705566406,0.3145402908325195
0.2731910705566406,0.3145402908325195
0.2687238693237304,0.3172199249267578
0.2687238693237304,0.3172199249267578
0.2689270019531250,0.3111637115478516
0.2689270019531250,0.3111637115478516
0.2738325119018555,0.3182350158691406
0.2738325119018555,0.3182350158691406
0.2675765991210937,0.3118692398071289
0.2675765991210937,0.3118692398071289
0.2733158111572265,0.3150323867797851
0.2733158111572265,0.3150323867797851
0.2691364288330078,0.3177434921264649
0.2691364288330078,0.3177434921264649
0.2689779281616211,0.3117891311645508
0.2689779281616211,0.3117891311645508
0.2739675521850586,0.3184535980224609
0.2739675521850586,0.3184535980224609
0.2676126480102539,0.3121553421020508
0.2676126480102539,0.3121553421020508
0.2735744476318359,0.3154460906982422
0.2735744476318359,0.3154460906982422
0.2691747665405274,0.3183231353759766
0.2691747665405274,0.3183231353759766
0.2690786361694336,0.3118309020996093
0.2690786361694336,0.3118309020996093
0.2740007400512695,0.3188375473022461
0.2740007400512695,0.3188375473022461
0.2679977416992188,0.3125673294067383
0.2679977416992188,0.3125673294067383
0.2736225128173828,0.3160789489746094
0.2736225128173828,0.3160789489746094
0.2692422866821289,0.3184358596801758
0.2748407363891601,0.3184358596801758
0.2690443038940429,0.3123785018920898
0.2690443038940429,0.3123785018920898
0.2742588043212891,0.3192747116088867
0.2742588043212891,0.3192747116088867
0.2679908752441406,0.3131412506103515
0.2679908752441406,0.3131412506103515
0.2737644195556641,0.3162391662597656
0.2737644195556641,0.3162391662597656
0.2694002151489258,0.3188804626464843
0.2694002151489258,0.3188804626464843
0.2694934844970703,0.3126657485961914
0.2694934844970703,0.3126657485961914
0.2743869781494140,0.3198972702026367
0.2743869781494140,0.3198972702026367
0.2681156158447265,0.3133283615112304
0.2681156158447265,0.3133283615112304
0.2737833023071289,0.3165378570556641
0.2660957336425781,0.3165378570556641
0.2696313858032227,0.3192609786987304
0.2696313858032227,0.3192609786987304
0.2695072174072266,0.3130502700805664
0.2695072174072266,0.3130502700805664
0.2744058609008789,0.3195001602172852
0.2744058609008789,0.3195001602172852
0.2679319381713867,0.3127424240112305
0.2679319381713867,0.3127424240112305
0.2735212326049805,0.3156286239624023
0.2735212326049805,0.3156286239624023
0.2690031051635742,0.3179374694824219
0.2690031051635742,0.3179374694824219
0.2687536239624023,0.3111047744750977
0.2687536239624023,0.3111047744750977
0.2734588623046875,0.3175827026367187
0.2734588623046875,0.3175827026367187
0.2671411514282226,0.3108495712280273
0.2671411514282226,0.3108495712280273
0.2727378845214843,0.3140190124511719
0.2727378845214843,0.3140190124511719
0.2683050155639649,0.3160932540893555
0.2683050155639649,0.3160932540893555
0.2681396484375000,0.3096508026123047
0.2681396484375000,0.3096508026123047
0.2707471847534180,0.3087804794311523
0.2707471847534180,0.3106075286865234
0.2710144042968750,0.3167547225952148
0.2710144042968750,0.3167547225952148
0.2660270690917969,0.3088279724121094
0.2660270690917969,0.3088279724121094
0.2730485916137695,0.3152257919311524
0.2730485916137695,0.3152257919311524
0.2653942108154297,0.3124065399169922
0.2653942108154297,0.3124065399169922
0.2704799652099609,0.3101039886474609
0.2704799652099609,0.3101039886474609
0.2706441879272461,0.3163639068603515
0.2706441879272461,0.3163639068603515
0.2659996032714844,0.3084239959716797
0.2659996032714844,0.3084239959716797
0.2728792190551758,0.3148544311523437
0.2728792190551758,0.3148544311523437
0.2652854919433594,0.3120094299316406
0.2652854919433594,0.3120094299316406
0.2700588226318359,0.3097555160522461
0.2700588226318359,0.3097555160522461
0.2708106994628906,0.3160732269287109
0.2708106994628906,0.3160732269287109
0.2660533905029297,0.3084726333618164
0.2660533905029297,0.3084726333618164
0.2728975296020508,0.3150518417358398
0.2728975296020508,0.3150518417358398
0.2728157043457031,0.3161184310913086
0.2728157043457031,0.3161184310913086
0.2728157043457031,0.3159107208251953
0.2667503356933594,0.3096914291381836
0.2735275268554687,0.3096914291381836
0.2724420547485352,0.3133329391479492
0.2724420547485352,0.3133329391479492
0.2681962966918945,0.3157596588134766
0.2681962966918945,0.3157596588134766
0.2681362152099609,0.3096101760864258
0.2681362152099609,0.3096101760864258
0.2731309890747070,0.3165452957153320
0.2731309890747070,0.3165452957153320
0.2669391632080078,0.3103116989135742
0.2669391632080078,0.3103116989135742
0.2725536346435547,0.3134159088134765
0.2725536346435547,0.3134159088134765
0.2683032989501953,0.3160537719726562
0.2683032989501953,0.3160537719726562
0.2684612274169922,0.3098842620849609
0.2684612274169922,0.3098842620849609
0.2732042312622070,0.3170711517333984
0.2732042312622070,0.3170711517333984
0.2669569015502929,0.3103832244873047
0.2669569015502929,0.3103832244873047
0.2727247238159179,0.3139142990112305
0.2727247238159179,0.3139142990112305
0.2685722351074218,0.3164011001586914
0.2685722351074218,0.3164011001586914
0.2685527801513672,0.3106498718261719
0.2685527801513672,0.3106498718261719
0.2734737396240234,0.3174036026000976
0.2734737396240234,0.3174036026000976
0.2671331405639648,0.3109445571899414
0.2671331405639648,0.3109445571899414
0.2730972290039063,0.3145093917846680
0.2730972290039063,0.3145093917846680
0.2687049865722656,0.3173280715942383
0.2687049865722656,0.3173280715942383
0.2687553405761718,0.3108936309814453
0.2687553405761718,0.3108936309814453
0.2737192153930664,0.3179929733276367
0.2737192153930664,0.3179929733276367
0.2674844741821289,0.3114892959594727
0.2674844741821289,0.3114892959594727
0.2731052398681640,0.3152544021606445
0.2731052398681640,0.3152544021606445
0.2689441680908203,0.3176221847534180
0.2689441680908203,0.3176221847534180
0.2688972473144531,0.3114938735961914
0.2688972473144531,0.3114938735961914
0.2739629745483398,0.3185960769653320
0.2739629745483398,0.3185960769653320
0.2676538467407226,0.3122125625610351
0.2676538467407226,0.3122125625610351
0.2733026504516601,0.3155405044555664
0.2733026504516601,0.3155405044555664
0.2689785003662109,0.3180604934692383
0.2689785003662109,0.3180604934692383
0.2691856384277344,0.3117919921875000
0.2691856384277344,0.3117919921875000
0.2740127563476563,0.3190183639526367
0.2705852508544922,0.3190183639526367
0.2677465438842773,0.3122549057006836
0.2677465438842773,0.3122549057006836
0.2734062194824219,0.3158426284790039
0.2734062194824219,0.3158426284790039
0.2692211151123047,0.3182373046875000
0.2748567581176758,0.3182373046875000
0.2691804885864258,0.3123298645019531
0.2665992736816406,0.3123298645019531
0.2740201950073242,0.3191574096679687
0.2706047058105469,0.3191574096679687
0.2677562713623047,0.3125427246093750
0.2677562713623047,0.3125427246093750
0.2735063552856445,0.3160989761352539
0.2735063552856445,0.3160989761352539
0.2692342758178711,0.3188581466674805
0.2692342758178711,0.3188581466674805
0.2692829132080078,0.3124328613281250
0.2692829132080078,0.3124328613281250
0.2741809844970703,0.3195476531982422
0.2741809844970703,0.3195476531982422
0.2680377960205078,0.3128997802734375
0.2680377960205078,0.3128997802734375
0.2736516952514648,0.3167438507080078
0.2736516952514648,0.3167438507080078
0.2693075180053711,0.3189874649047851
0.2693075180053711,0.3189874649047851
0.2693464279174805,0.3128419876098633
0.2693464279174805,0.3128419876098633
0.2743904113769531,0.3198503494262695
0.2743904113769531,0.3198503494262695
0.2680498123168945,0.3135194778442383
0.2680498123168945,0.3135194778442383
0.2737415313720703,0.3168371200561523
0.2737415313720703,0.3168371200561523
0.2693630218505859,0.3190155029296875
0.2693630218505859,0.3190155029296875
0.2694082260131836,0.3125427246093750
0.2694082260131836,0.3125427246093750
0.2740316390991211,0.3193330764770508
0.2740316390991211,0.3193330764770508
0.2675806045532226,0.3120117187500000
0.2675806045532226,0.3120117187500000
0.2729593276977539,0.3152235031127930
0.2729593276977539,0.3152235031127930
0.2686059951782226,0.3170007705688476
0.2686059951782226,0.3170007705688476
0.2683851242065430,0.3105789184570312
0.2683851242065430,0.3105789184570312
0.2730857849121094,0.3171049118041992
0.2730857849121094,0.3171049118041992
0.2667257308959961,0.3099483489990234
0.2667257308959961,0.3099483489990234
0.2724569320678711,0.3135057449340820
0.2724569320678711,0.3135057449340820
0.2679817199707031,0.3158552169799805
0.2679817199707031,0.3158552169799805
0.2680154800415039,0.3092983245849609
0.2680154800415039,0.3092983245849609
0.2727092742919922,0.3160617828369141
0.2727092742919922,0.3160617828369141
0.2665134429931640,0.3092702865600586
0.2665134429931640,0.3092702865600586
0.2721696853637695,0.3131784439086914
0.2721696853637695,0.3131784439086914
0.2677190780639648,0.3150215148925781
0.2677190780639648,0.3150215148925781
0.2677774429321289,0.3086585998535156
0.2677774429321289,0.3086585998535156
0.2726984024047852,0.3155925750732422
0.2726984024047852,0.3155925750732422
0.2662742614746094,0.3089681625366211
0.2730257034301758,0.3089681625366211
0.2718898773193359,0.3124219894409180
0.2718898773193359,0.3124219894409180
0.2674753189086914,0.3145380020141602
0.2674753189086914,0.3145380020141602
0.2678329467773438,0.3083032608032226
0.2678329467773438,0.3083032608032226
0.2724763870239258,0.3156761169433593
0.2724763870239258,0.3156761169433593
0.2662193298339844,0.3086683273315430
0.2662193298339844,0.3086683273315430
0.2719785690307617,0.3125673294067383
0.2719785690307617,0.3125673294067383
0.2678495407104492,0.3148778915405273
0.2678495407104492,0.3148778915405273
0.2678953170776367,0.3090774536132813
0.2678953170776367,0.3090774536132813
0.2727373123168945,0.3160406112670898
0.2727373123168945,0.3160406112670898
0.2664499282836914,0.3094276428222656
0.2664499282836914,0.3094276428222656
0.2722663879394531,0.3132877349853516
0.2722663879394531,0.3132877349853516
0.2680017471313477,0.3157825469970703
0.2680017471313477,0.3157825469970703
0.2680440902709961,0.3094293594360352
0.2680440902709961,0.3094293594360352
0.2728145599365234,0.3163759231567383
0.2694042205810547,0.3163759231567383
0.2666273117065430,0.3095689773559570
0.2666273117065430,0.3095689773559570
0.2722274780273438,0.3136373519897461
0.2722274780273438,0.3136373519897461
0.2680200576782226,0.3156583786010742
0.2680200576782226,0.3156583786010742
0.2680624008178711,0.3095186233520508
0.2680624008178711,0.3095186233520508
0.2730491638183594,0.3165584564208984
0.2730491638183594,0.3165584564208984
0.2666238784790039,0.3100278854370117
0.2666238784790039,0.3100278854370117
0.2723871231079101,0.3137798309326172
0.2723871231079101,0.3137798309326172
0.2681201934814453,0.3160343170166016
0.2740219116210937,0.3160343170166016
0.2684566497802734,0.3100461959838867
0.2684566497802734,0.3100461959838867
0.2731401443481445,0.3173343658447266
0.2731401443481445,0.3173343658447266
0.2668979644775391,0.3102996826171875
0.2668979644775391,0.3102996826171875
0.2725044250488281,0.3144664764404297
0.2725044250488281,0.3144664764404297
0.2683885574340820,0.3166334152221680
0.2683885574340820,0.3166334152221680
0.2686117172241211,0.3108198165893555
0.2686117172241211,0.3108198165893555
0.2733856201171875,0.3177927017211914
0.2733856201171875,0.3177927017211914
0.2670610427856445,0.3109159469604492
0.2670610427856445,0.3109159469604492
0.2729410171508789,0.3151044845581055
0.2729410171508789,0.3151044845581055
0.2685516357421875,0.3174539566040039
0.2685516357421875,0.3174539566040039
0.2688686370849609,0.3112695693969726
0.2688686370849609,0.3112695693969726
0.2734771728515625,0.3183448791503906
0.2734771728515625,0.3183448791503906
0.2675199508666992,0.3115545272827148
0.2675199508666992,0.3115545272827148
0.2730852127075195,0.3157436370849609
0.2730852127075195,0.3157436370849609
0.2687261581420898,0.3176816940307617
0.2687261581420898,0.3176816940307617
0.2689029693603516,0.3115379333496094
0.2689029693603516,0.3115379333496094
0.2737804412841797,0.3187299728393554
0.2737804412841797,0.3187299728393554
0.2674421310424804,0.3120546340942383
0.2674421310424804,0.3120546340942383
0.2732185363769531,0.3160314559936523
0.2732185363769531,0.3160314559936523
0.2687719345092773,0.3180873870849609
0.2687719345092773,0.3180873870849609
0.2691730499267578,0.3119842529296875
0.2691730499267578,0.3119842529296875
0.2738685607910156,0.3192918777465820
0.2738685607910156,0.3192918777465820
0.2675943374633789,0.3121576309204102
0.2675943374633789,0.3121576309204102
0.2732900619506836,0.3163381576538086
0.2732900619506836,0.3163381576538086
0.2690145492553711,0.3184221267700195
0.2690145492553711,0.3184221267700195
0.2692382812500000,0.3125959396362304
0.2692382812500000,0.3125959396362304
0.2739761352539062,0.3194715499877930
0.2739761352539062,0.3194715499877930
0.2677070617675781,0.3126588821411133
0.2677070617675781,0.3126588821411133
0.2735773086547851,0.3166786193847656
0.2735773086547851,0.3166786193847656
0.2692033767700195,0.3191425323486328
0.2692033767700195,0.3191425323486328
0.2693681716918945,0.3128614425659180
0.2693681716918945,0.3128614425659180
0.2740716934204102,0.3200174331665039
0.2740716934204102,0.3200174331665039
0.2680778503417969,0.3131126403808593
0.2680778503417969,0.3131126403808593
0.2735973358154297,0.3174831390380859
0.2735973358154297,0.3174831390380859
0.2692623138427734,0.3191768646240234
0.2692623138427734,0.3191768646240234
0.2693275451660156,0.3128826141357422
0.2693275451660156,0.3128826141357422
0.2741289138793945,0.3197393417358398
0.2741289138793945,0.3197393417358398
0.2676515579223633,0.3126829147338867
0.2676515579223633,0.3126829147338867
0.2731893539428711,0.3160457611083984
0.2731893539428711,0.3160457611083984
0.2686363220214844,0.3176553726196289
0.2686363220214844,0.3176553726196289
0.2687845230102539,0.3110017776489258
0.2687845230102539,0.3110017776489258
0.2732671737670898,0.3179271697998047
0.2732671737670898,0.3179271697998047
0.2667943954467774,0.3103174209594726
0.2667943954467774,0.3103174209594726
0.2722761154174805,0.3140785217285156
0.2722761154174805,0.3140785217285156
0.2680521011352539,0.3159416198730469
0.2680521011352539,0.3159416198730469
0.2680795669555664,0.3097858428955078
0.2680795669555664,0.3097858428955078
0.2726892471313476,0.3165126800537109
0.2726892471313476,0.3165126800537109
0.2663566589355469,0.3092994689941406
0.2663566589355469,0.3092994689941406
0.2721267700195312,0.3132997512817383
0.2644157409667969,0.3132997512817383
0.2677047729492187,0.3154592514038086
0.2677047729492187,0.3154592514038086
0.2678667068481445,0.3089744567871094
0.2678667068481445,0.3089744567871094
0.2724660873413086,0.3159307479858398
0.2724660873413086,0.3159307479858398
0.2662405014038086,0.3087232589721680
0.2662405014038086,0.3087232589721680
0.2719139099121093,0.3131200790405274
0.2719139099121093,0.3131200790405274
0.2674346923828125,0.3146942138671875
0.2674346923828125,0.3146942138671875
0.2676183700561524,0.3085063934326172
0.2676183700561524,0.3085063934326172
0.2724328994750976,0.3155817031860351
0.2724328994750976,0.3155817031860351
0.2661174774169922,0.3088577270507812
0.2661174774169922,0.3088577270507812
0.2718074798583984,0.3127727508544922
0.2718074798583984,0.3127727508544922
0.2673563003540039,0.3147846221923828
0.2673563003540039,0.3147846221923828
0.2650680541992188,0.3136001586914062
0.2650680541992188,0.3119539260864257
0.2704994201660156,0.3105766296386719
0.2648838043212891,0.3105766296386719
0.2704742431640625,0.3168851852416992
0.2704742431640625,0.3168851852416992
0.2661855697631836,0.3093492507934570
0.2661855697631836,0.3093492507934570
0.2730949401855469,0.3161270141601563
0.2730949401855469,0.3161270141601563
0.2652488708496094,0.3125410079956055
0.2652488708496094,0.3125410079956055
0.2704524993896484,0.3109039306640625
0.2704524993896484,0.3109039306640625
0.2708438873291015,0.3171409606933593
0.2708438873291015,0.3171409606933593
0.2662651062011719,0.3095855712890625
0.2662651062011719,0.3095855712890625
0.2731092453002930,0.3162448883056641
0.2731092453002930,0.3162448883056641
0.2651023864746094,0.3124940872192383
0.2651023864746094,0.3124940872192383
0.2708026885986328,0.3112163543701172
0.2708026885986328,0.3112163543701172
0.2709039688110351,0.3174081802368164
0.2709039688110351,0.3174081802368164
0.2664207458496093,0.3099563598632812
0.2664207458496093,0.3099563598632812
0.2729393005371094,0.3167776107788086
0.2729393005371094,0.3167776107788086
0.2655063629150390,0.3130147933959961
0.2655063629150390,0.3130147933959961
0.2709949493408203,0.3116758346557617
0.2709949493408203,0.3116758346557617
0.2711196899414062,0.3178739547729492
0.2711196899414062,0.3178739547729492
0.2664213180541992,0.3105005264282226
0.2664213180541992,0.3105005264282226
0.2734674453735351,0.3172668457031250
0.2734674453735351,0.3172668457031250
0.2658004760742188,0.3136550903320313
0.2658004760742188,0.3136550903320313
0.2711683273315429,0.3121994018554687
0.2653884887695312,0.3121994018554687
0.2710258483886719,0.3185085296630859
0.2710258483886719,0.3185085296630859
0.2668733596801758,0.3110921859741211
0.2668733596801758,0.3110921859741211
0.2736974716186523,0.3178653717041016
0.2736974716186523,0.3178653717041016
0.2660482406616211,0.3140785217285156
0.2660482406616211,0.3140785217285156
0.2711488723754883,0.3128139495849609
0.2711488723754883,0.3128139495849609
0.2714160919189453,0.3190309524536133
0.2714160919189453,0.3190309524536133
0.2670684814453125,0.3114772796630859
0.2670684814453125,0.3114772796630859
0.2737140655517578,0.3183277130126953
0.2737140655517578,0.3183277130126953
0.2658411026000976,0.3146129608154297
0.2658411026000976,0.3146129608154297
0.2715328216552734,0.3131555557250976
0.2715328216552734,0.3131555557250976
0.2716323852539063,0.3194080352783203
0.2716323852539063,0.3194080352783203
0.2670839309692383,0.3119253158569336
0.2670839309692383,0.3119253158569336
0.2736436843872070,0.3187076568603516
0.2736436843872070,0.3187076568603516
0.2661592483520508,0.3148887634277344
0.2661592483520508,0.3148887634277344
0.2716718673706054,0.3135120391845703
0.2716718673706054,0.3135120391845703
0.2717714309692383,0.3197748184204102
0.2717714309692383,0.3197748184204102
0.2669849395751953,0.3122846603393555
0.2669849395751953,0.3122846603393555
0.2740951538085937,0.3190721511840820
0.2740951538085937,0.3190721511840820
0.2663131713867187,0.3152503967285156
0.2663131713867187,0.3152503967285156
0.2718217849731445,0.3139320373535156
0.2659955978393554,0.3139320373535156
0.2716873168945312,0.3202039718627930
0.2716873168945312,0.3202039718627930
0.2674793243408203,0.3128517150878906
0.2674793243408203,0.3128517150878906
0.2742382049560547,0.3195413589477539
0.2742382049560547,0.3195413589477539
0.2664585113525391,0.3158185958862305
0.2664585113525391,0.3158185958862305
0.2717771530151367,0.3144521713256836
0.2717771530151367,0.3144521713256836
0.2720214843750000,0.3206949234008789
0.2720214843750000,0.3206949234008789
0.2675422668457031,0.3131355285644531
0.2675422668457031,0.3131355285644531
0.2743869781494140,0.3200643539428711
0.2743869781494140,0.3200643539428711
0.2663600921630859,0.3162162780761719
0.2663600921630859,0.3162162780761719
0.2720712661743164,0.3148458480834961
0.2720712661743164,0.3148458480834961
0.2722234725952148,0.3210702896118164
0.2722234725952148,0.3210702896118164
0.2676406860351562,0.3134050369262695
0.2676406860351562,0.3134050369262695
0.2740871429443359,0.3198926925659180
0.2740871429443359,0.3198926925659180
0.2664173126220703,0.3157150268554688
0.2664173126220703,0.3157150268554688
0.2717983245849609,0.3139377593994140
0.2717983245849609,0.3139377593994140
0.2716335296630859,0.3196586608886718
0.2716335296630859,0.3196586608886718
0.2667188644409180,0.3116432189941406
0.2667188644409180,0.3116432189941406
0.2735097885131836,0.3178876876831054
0.2735097885131836,0.3178876876831054
0.2656030654907227,0.3134834289550781
0.2656030654907227,0.3134834289550781
0.2709594726562500,0.3118383407592774
0.2709594726562500,0.3118383407592774
0.2706075668334961,0.3177154541015625
0.2706075668334961,0.3177154541015625
0.2662902832031250,0.3100267410278320
0.2662902832031250,0.3100267410278320
0.2730382919311523,0.3166025161743164
0.2730382919311523,0.3166025161743164
0.2651664733886719,0.3125730514526367
0.2651664733886719,0.3125730514526367
0.2704330444335937,0.3110126495361328
0.2704330444335937,0.3110126495361328
0.2705577850341797,0.3169698715209961
0.2705577850341797,0.3169698715209961
0.2662210464477539,0.3094774246215820
0.2662210464477539,0.3094774246215820
0.2728420257568359,0.3161561965942383
0.2728420257568359,0.3161561965942383
0.2646766662597656,0.3120683670043945
0.2646766662597656,0.3120683670043945
0.2705045700073242,0.3106727600097656
0.2705045700073242,0.3106727600097656
0.2704433441162109,0.3165578842163086
0.2704433441162109,0.3165578842163086
0.2659795761108398,0.3090951919555664
0.2659795761108398,0.3090951919555664
0.2724718093872070,0.3157745361328125
0.2724718093872070,0.3157745361328125
0.2649501800537109,0.3118480682373047
0.2649501800537109,0.3118480682373047
0.2705497741699219,0.3104930877685547
0.2705497741699219,0.3104930877685547
0.2705348968505859,0.3167209625244141
0.2705348968505859,0.3167209625244141
0.2658748626708984,0.3094161987304687
0.2658748626708984,0.3094161987304687
0.2728981018066406,0.3162317276000977
0.2728981018066406,0.3162317276000977
0.2651653289794922,0.3123722076416016
0.2651653289794922,0.3123722076416016
0.2708667755126953,0.3112009048461914
0.2708667755126953,0.3112009048461914
0.2705154418945312,0.3173978805541992
0.2705154418945312,0.3173978805541992
0.2663990020751953,0.3099094390869140
0.2663990020751953,0.3099094390869140
0.2730886459350586,0.3167072296142578
0.2730886459350586,0.3167072296142578
0.2652769088745117,0.3126743316650391
0.2652769088745117,0.3126743316650391
0.2705492019653320,0.3114343643188476
0.2705492019653320,0.3114343643188476
0.2708152770996093,0.3174201965332031
0.2708152770996093,0.3174201965332031
0.2664436340332031,0.3100833892822266
0.2664436340332031,0.3100833892822266
0.2731046676635742,0.3169338226318359
0.2731046676635742,0.3169338226318359
0.2651401519775390,0.3129060745239258
0.2651401519775390,0.3129060745239258
0.2709491729736328,0.3117250442504882
0.2709491729736328,0.3117250442504882
0.2709697723388672,0.3178562164306640
0.2709697723388672,0.3178562164306640
0.2666084289550781,0.3104730606079101
0.2666084289550781,0.3104730606079101
0.2731590270996094,0.3174161911010742
0.2731590270996094,0.3174161911010742
0.2654817581176758,0.3134428024291992
0.2654817581176758,0.3134428024291992
0.2711214065551757,0.3122039794921875
0.2711214065551757,0.3122039794921875
0.2711065292358398,0.3182762145996094
0.2711065292358398,0.3182762145996094
0.2665803909301758,0.3109228134155274
0.2665803909301758,0.3109228134155274
0.2734869003295898,0.3179483413696289
0.2734869003295898,0.3179483413696289
0.2657489776611328,0.3138833999633789
0.2657489776611328,0.3138833999633789
0.2713697433471680,0.3127721786499023
0.2713697433471680,0.3127721786499023
0.2711013793945312,0.3188919067382812
0.2711013793945312,0.3188919067382812
0.2670587539672851,0.3114870071411133
0.2670587539672851,0.3114870071411133
0.2737358093261719,0.3184616088867188
0.2737358093261719,0.3184616088867188
0.2658771514892578,0.3145093917846680
0.2658771514892578,0.3145093917846680
0.2713897705078125,0.3132757186889648
0.2713897705078125,0.3132757186889648
0.2715562820434570,0.3193571090698242
0.2715562820434570,0.3193571090698242
0.2672224044799805,0.3120271682739258
0.2672224044799805,0.3120271682739258
0.2737890243530273,0.3188695907592773
0.2737890243530273,0.3188695907592773
0.2658061981201172,0.3148017883300781
0.2658061981201172,0.3148017883300781
0.2716049194335937,0.3135572433471679
0.2716049194335937,0.3135572433471679
0.2715866088867188,0.3196552276611328
0.2715866088867188,0.3196552276611328
0.2672561645507812,0.3123201370239257
0.2672561645507812,0.3123201370239257
0.2736848831176757,0.3191202163696289
0.2736848831176757,0.3191202163696289
0.2661397933959961,0.3151325225830078
0.2661397933959961,0.3151325225830078
0.2717931747436523,0.3139932632446289
0.2717931747436523,0.3139932632446289
0.2716627120971680,0.3200225830078125
0.2716627120971680,0.3200225830078125
0.2671840667724609,0.3126977920532226
0.2671840667724609,0.3126977920532226
0.2741077423095703,0.3195241928100586
0.2741077423095703,0.3195241928100586
0.2662307739257813,0.3154117584228516
0.2662307739257813,0.3154117584228516
0.2719516754150391,0.3144086837768554
0.2719516754150391,0.3144086837768554
0.2716255187988281,0.3204717636108398
0.2731607437133789,0.3204717636108398
0.2675754547119141,0.3132299423217773
0.2675754547119141,0.3132299423217773
0.2742691040039062,0.3200695037841797
0.2742691040039062,0.3200695037841797
0.2664236068725586,0.3159233093261719
0.2664236068725586,0.3159233093261719
0.2718223571777343,0.3148927688598633
0.2718223571777343,0.3148927688598633
0.2720438003540039,0.3209272384643554
0.2720438003540039,0.3209272384643554
0.2677225112915039,0.3137363433837890
0.2677225112915039,0.3137363433837890
0.2744184494018554,0.3204723358154297
0.2744184494018554,0.3204723358154297
0.2662593841552734,0.3161773681640625
0.2662593841552734,0.3161773681640625
0.2721633911132812,0.3148029327392578
0.2721633911132812,0.3148029327392578
0.2719247817993164,0.3205175399780273
0.2719247817993164,0.3205175399780273
0.2674409866333008,0.3129507064819336
0.2674409866333008,0.3129507064819336
0.2736888885498047,0.3191940307617188
0.2736888885498047,0.3191940307617188
0.2658662796020508,0.3144441604614258
0.2658662796020508,0.3144441604614258
0.2713159561157226,0.3128608703613281
0.2713159561157226,0.3128608703613281
0.2710161209106445,0.3185068130493164
0.2710161209106445,0.3185068130493164
0.2663360595703125,0.3109039306640625
0.2663360595703125,0.3109039306640625
0.2732339859008789,0.3174030303955078
0.2732339859008789,0.3174030303955078
0.2652242660522461,0.3130125045776367
0.2652242660522461,0.3130125045776367
0.2708902359008789,0.3116878509521484
0.2708902359008789,0.3116878509521484
0.2703804016113281,0.3174894332885742
0.2703804016113281,0.3174894332885742
0.2662931442260742,0.3100839614868164
0.2662931442260742,0.3100839614868164
0.2728414535522461,0.3166780471801758
0.2666170120239258,0.3166780471801758
0.2650114059448242,0.3123956680297851
0.2650114059448242,0.3123956680297851
0.2704467773437500,0.3111745834350586
0.2704467773437500,0.3111745834350586
0.2704828262329101,0.3169635772705078
0.2704828262329101,0.3169635772705078
0.2662342071533203,0.3095724105834961
0.2662342071533203,0.3095724105834961
0.2727922439575195,0.3163003921508789
0.2727922439575195,0.3163003921508789
0.2722000122070312,0.3162929534912109
0.2722000122070312,0.3162929534912109
0.2662302017211914,0.3088171005249024
0.2662302017211914,0.3088171005249024
0.2721376419067383,0.3140401840209961
0.2721376419067383,0.3140401840209961
0.2673780441284180,0.3152589797973633
0.2673780441284180,0.3152589797973633
0.2680154800415039,0.3096078872680664
0.2680154800415039,0.3096078872680664
0.2724832534790039,0.3167175292968750
0.2724832534790039,0.3167175292968750
0.2663406372070312,0.3095832824707031
0.2663406372070312,0.3095832824707031
0.2723041534423828,0.3143674850463867
0.2723041534423828,0.3143674850463867
0.2676195144653320,0.3159530639648437
0.2676195144653320,0.3159530639648437
0.2683233261108398,0.3102058410644531
0.2683233261108398,0.3102058410644531
0.2726297378540039,0.3174871444702148
0.2726297378540039,0.3174871444702148
0.2664785385131836,0.3097171783447266
0.2664785385131836,0.3097171783447266
0.2724020004272461,0.3146152496337891
0.2724020004272461,0.3146152496337891
0.2677471160888672,0.3159954071044922
0.2677471160888672,0.3159954071044922
0.2682638168334961,0.3105302810668945
0.2682638168334961,0.3105302810668945
0.2725982666015625,0.3172616958618164
0.2725982666015625,0.3172616958618164
0.2665437698364257,0.3098127365112305
0.2665437698364257,0.3098127365112305
0.2726034164428711,0.3148698806762695
0.2726034164428711,0.3148698806762695
0.2677820205688476,0.3166259765625000
0.2677820205688476,0.3166259765625000
0.2684783935546875,0.3105777740478515
0.2684783935546875,0.3105777740478515
0.2727951049804687,0.3177509307861328
0.2727951049804687,0.3177509307861328
0.2668035507202148,0.3103225708007812
0.2733123779296875,0.3103225708007812
0.2727184295654297,0.3155685424804687
0.2727184295654297,0.3155685424804687
0.2679107666015625,0.3168045043945312
0.2679107666015625,0.3168045043945312
0.2685985565185547,0.3111734390258789
0.2685985565185547,0.3111734390258789
0.2730794906616211,0.3182430267333984
0.2730794906616211,0.3182430267333984
0.2669746398925781,0.3110933303833008
0.2669746398925781,0.3110933303833008
0.2729232788085937,0.3158460617065429
0.2729232788085937,0.3158460617065429
0.2680475234985352,0.3173166275024414
0.2680475234985352,0.3173166275024414
0.2689247131347656,0.3116752624511719
0.2689247131347656,0.3116752624511719
0.2731006622314453,0.3190189361572265
0.2731006622314453,0.3190189361572265
0.2670370101928711,0.3113508224487305
0.2670370101928711,0.3113508224487305
0.2730182647705078,0.3162963867187500
0.2730182647705078,0.3162963867187500
0.2683639526367188,0.3177268981933594
0.2683639526367188,0.3177268981933594
0.2689750671386719,0.3124614715576172
0.2689750671386719,0.3124614715576172
0.2732728958129882,0.3192329406738281
0.2732728958129882,0.3192329406738281
0.2671863555908203,0.3117450714111328
0.2671863555908203,0.3117450714111328
0.2734062194824219,0.3167329788208008
0.2734062194824219,0.3167329788208008
0.2683742523193359,0.3184089660644531
0.2683742523193359,0.3184089660644531
0.2692296981811523,0.3125312805175781
0.2692296981811523,0.3125312805175781
0.2733243942260742,0.3195281982421875
0.2733243942260742,0.3195281982421875
0.2675148010253906,0.3120815277099609
0.2675148010253906,0.3120815277099609
0.2734714508056640,0.3173212051391601
0.2734714508056640,0.3173212051391601
0.2684555053710938,0.3185142517089843
0.2748224258422852,0.3185142517089843
0.2692686080932617,0.3128328323364258
0.2692686080932617,0.3128328323364258
0.2736843109130859,0.3199556350708008
0.2736843109130859,0.3199556350708008
0.2674913406372070,0.3127744674682617
0.2674913406372070,0.3127744674682617
0.2736139297485352,0.3175357818603515
0.2736139297485352,0.3175357818603515
0.2686254501342774,0.3190378189086914
0.2686254501342774,0.3190378189086914
0.2695466995239258,0.3133506774902344
0.2695466995239258,0.3133506774902344
0.2737449645996093,0.3207178115844727
0.2737449645996093,0.3207178115844727
0.2676017761230469,0.3129907608032226
0.2676017761230469,0.3129907608032226
0.2737174987792969,0.3180364608764648
0.2737174987792969,0.3180364608764648
0.2688789367675781,0.3193805694580078
0.2688789367675781,0.3193805694580078
0.2696445465087891,0.3140819549560547
0.2696445465087891,0.3140819549560547
0.2738914489746094,0.3209323883056641
0.2738914489746094,0.3209323883056641
0.2677682876586914,0.3133998870849609
0.2677682876586914,0.3133998870849609
0.2738462448120117,0.3181966781616211
0.2738462448120117,0.3181966781616211
0.2688880920410156,0.3195590972900391
0.2688880920410156,0.3195590972900391
0.2693916320800781,0.3132671356201172
0.2693916320800781,0.3132671356201172
0.2734983444213867,0.3197696685791016
0.2734983444213867,0.3197696685791016
0.2672573089599609,0.3118709564208984
0.2672573089599609,0.3118709564208984
0.2730319976806641,0.3166151046752930
0.2730319976806641,0.3166151046752930
0.2679542541503906,0.3173583984375000
0.2679542541503906,0.3173583984375000
0.2685825347900391,0.3112243652343750
0.2685825347900391,0.3112243652343750
0.2728054046630859,0.3180038452148438
0.2728054046630859,0.3180038452148438
0.2664985656738281,0.3104484558105469
0.2664985656738281,0.3104484558105469
0.2725759506225586,0.3149442672729492
0.2725759506225586,0.3149442672729492
0.2675296783447266,0.3161413192749024
0.2675296783447266,0.3161413192749024
0.2684297561645508,0.3104249954223633
0.2684297561645508,0.3104249954223633
0.2724437713623047,0.3174802780151367
0.2724437713623047,0.3174802780151367
0.2663715362548828,0.3095706939697265
0.2663715362548828,0.3095706939697265
0.2723115921020507,0.3144355773925781
0.2723115921020507,0.3144355773925781
0.2675245285034180,0.3156068801879883
0.2675245285034180,0.3156068801879883
0.2681814193725586,0.3102167129516601
0.2681814193725586,0.3102167129516601
0.2723041534423828,0.3168645858764648
0.2723041534423828,0.3168645858764648
0.2662107467651367,0.3092428207397461
0.2662107467651367,0.3092428207397461
0.2723373413085937,0.3141380310058594
0.2723373413085937,0.3141380310058594
0.2672201156616211,0.3157098770141601
0.2672201156616211,0.3157098770141601
0.2681276321411133,0.3098007202148437
0.2681276321411133,0.3098007202148437
0.2722354888916015,0.3168588638305664
0.2722354888916015,0.3168588638305664
0.2663480758666992,0.3094602584838867
0.2663480758666992,0.3094602584838867
0.2724128723144531,0.3148303985595703
0.2724128723144531,0.3148303985595703
0.2674398422241211,0.3158998489379883
0.2674398422241211,0.3158998489379883
0.2682214736938476,0.3102922439575195
0.2645387649536133,0.3102922439575195
0.2725851058959961,0.3173944473266602
0.2725851058959961,0.3173944473266602
0.2664155960083008,0.3102212905883789
0.2664155960083008,0.3102212905883789
0.2725822448730469,0.3149780273437500
0.2725822448730469,0.3149780273437500
0.2675451278686523,0.3162500381469727
0.2675451278686523,0.3162500381469727
0.2685602188110351,0.3106281280517578
0.2685602188110351,0.3106281280517578
0.2727058410644531,0.3179632186889648
0.2727058410644531,0.3179632186889648
0.2665357589721680,0.3100730895996094
0.2665357589721680,0.3100730895996094
0.2726921081542968,0.3151399612426758
0.2726921081542968,0.3151399612426758
0.2676795959472656,0.3163982391357422
0.2676795959472656,0.3163982391357422
0.2685985565185547,0.3110006332397461
0.2685985565185547,0.3110006332397461
0.2727270126342773,0.3178653717041016
0.2727270126342773,0.3178653717041016
0.2665781021118164,0.3104816436767578
0.2729307174682617,0.3104816436767578
0.2728712081909180,0.3155754089355469
0.2728712081909180,0.3155754089355469
0.2678815841674805,0.3171501159667969
0.2678815841674805,0.3171501159667969
0.2687599182128906,0.3112209320068359
0.2687599182128906,0.3112209320068359
0.2729558944702148,0.3184181213378906
0.2729558944702148,0.3184181213378906
0.2668573379516602,0.3109125137329101
0.2668573379516602,0.3109125137329101
0.2729467391967773,0.3163473129272461
0.2729467391967773,0.3163473129272461
0.2679382324218750,0.3173400878906250
0.2679382324218750,0.3173400878906250
0.2688280105590820,0.3118606567382812
0.2688280105590820,0.3118606567382812
0.2731636047363281,0.3190258026123047
0.2731636047363281,0.3190258026123047
0.2670358657836914,0.3117834091186523
0.2670358657836914,0.3117834091186523
0.2731790542602539,0.3165721893310547
0.2731790542602539,0.3165721893310547
0.2682083129882812,0.3178436279296875
0.2682083129882812,0.3178436279296875
0.2692497253417969,0.3122772216796875
0.2653266906738281,0.3122772216796875
0.2733238220214844,0.3197536468505859
0.2733238220214844,0.3197536468505859
0.2671571731567383,0.3119979858398437
0.2671571731567383,0.3119979858398437
0.2731904983520508,0.3169160842895508
0.2731904983520508,0.3169160842895508
0.2683422088623047,0.3181091308593750
0.2683422088623047,0.3181091308593750
0.2693338394165039,0.3129261016845703
0.2693338394165039,0.3129261016845703
0.2733776092529297,0.3197965621948242
0.2733776092529297,0.3197965621948242
0.2673728942871094,0.3121507644653320
0.2673728942871094,0.3121507644653320
0.2735567092895508,0.3173395156860351
0.2735567092895508,0.3173395156860351
0.2684658050537109,0.3188272476196289
0.2684658050537109,0.3188272476196289
0.2694391250610351,0.3130353927612304
0.2694391250610351,0.3130353927612304
0.2734514236450195,0.3202314376831055
0.2734514236450195,0.3202314376831055
0.2674942016601562,0.3125701904296875
0.2674942016601562,0.3125701904296875
0.2736173629760742,0.3180084228515625
0.2736173629760742,0.3180084228515625
0.2686111450195313,0.3189640045166016
0.2686111450195313,0.3189640045166016
0.2695999145507812,0.3134496688842773
0.2695999145507812,0.3134496688842773
0.2736831665039062,0.3206571578979492
0.2736831665039062,0.3206571578979492
0.2676040649414063,0.3133541107177734
0.2676040649414063,0.3133541107177734
0.2738382339477539,0.3182229995727539
0.2738382339477539,0.3182229995727539
0.2686815261840820,0.3194372177124024
0.2686815261840820,0.3194372177124024
0.2698064804077148,0.3139160156250000
0.2698064804077148,0.3139160156250000
0.2738582611083984,0.3212808609008789
0.2738582611083984,0.3212808609008789
0.2676286697387695,0.3133689880371094
0.2676286697387695,0.3133689880371094
0.2738433837890625,0.3182973861694336
0.2738433837890625,0.3182973861694336
0.2686958312988281,0.3192844390869141
0.2686958312988281,0.3192844390869141
0.2695009231567383,0.3136281967163086
0.2695009231567383,0.3136281967163086
0.2734737396240234,0.3199859619140625
0.2734737396240234,0.3199859619140625
0.2670169830322265,0.3119991302490234
0.2670169830322265,0.3119991302490234
0.2733146667480469,0.3166019439697266
0.2733146667480469,0.3166019439697266
0.2678535461425781,0.3176496505737305
0.2678535461425781,0.3176496505737305
0.2687095642089843,0.3114664077758789
0.2687095642089843,0.3114664077758789
0.2727046966552734,0.3181657791137695
0.2727046966552734,0.3181657791137695
0.2666702270507812,0.3103179931640625
0.2666702270507812,0.3103179931640625
0.2726285934448242,0.3155656814575195
0.2726285934448242,0.3155656814575195
0.2674100875854492,0.3162036895751953
0.2674100875854492,0.3162036895751953
0.2683696746826172,0.3105457305908203
0.2683696746826172,0.3105457305908203
0.2724901199340820,0.3175312042236328
0.2724901199340820,0.3175312042236328
0.2662639617919922,0.3100084304809570
0.2662639617919922,0.3100084304809570
0.2724489212036132,0.3147977828979492
0.2724489212036132,0.3147977828979492
0.2672710418701172,0.3158060073852539
0.2672710418701172,0.3158060073852539
0.2648883819580078,0.3125604629516601
0.2648883819580078,0.3125604629516601
0.2710618972778320,0.3118703842163086
0.2648031234741211,0.3118703842163086
0.2700445175170899,0.3173875808715820
0.2700445175170899,0.3173875808715820
0.2665380477905273,0.3106882095336914
0.2665380477905273,0.3106882095336914
0.2729673385620117,0.3169166564941406
0.2729673385620117,0.3169166564941406
0.2648546218872070,0.3126628875732422
0.2648546218872070,0.3126628875732422
0.2708135604858398,0.3120431900024414
0.2708135604858398,0.3120431900024414
0.2703500747680664,0.3177640914916992
0.2703500747680664,0.3177640914916992
0.2667057037353516,0.3111454010009765
0.2667057037353516,0.3111454010009765
0.2731607437133789,0.3175769805908203
0.2731607437133789,0.3175769805908203
0.2648620605468750,0.3132064819335937
0.2648620605468750,0.3132064819335937
0.2713457107543945,0.3126119613647461
0.2713457107543945,0.3126119613647461
0.2706378936767578,0.3182401657104492
0.2706378936767578,0.3182401657104492
0.2668172836303711,0.3114835739135742
0.2668172836303711,0.3114835739135742
0.2731304168701172,0.3178802490234375
0.2731304168701172,0.3178802490234375
0.2652173995971679,0.3133832931518555
0.2652173995971679,0.3133832931518555
0.2714229583740234,0.3126909255981445
0.2714229583740234,0.3126909255981445
0.2706396102905274,0.3183849334716797
0.2706396102905274,0.3183849334716797
0.2666221618652344,0.3116844177246094
0.2666221618652344,0.3116844177246094
0.2733713150024414,0.3180604934692383
0.2733713150024414,0.3180604934692383
0.2652122497558594,0.3136705398559570
0.2652122497558594,0.3136705398559570
0.2714721679687500,0.3130073547363281
0.2714721679687500,0.3130073547363281
0.2704524993896484,0.3186286926269531
0.2704524993896484,0.3186286926269531
0.2670513153076172,0.3120300292968750
0.2670513153076172,0.3120300292968750
0.2735572814941406,0.3184450149536133
0.2735572814941406,0.3184450149536133
0.2654130935668945,0.3142238616943359
0.2654130935668945,0.3142238616943359
0.2714635848999024,0.3135566711425781
0.2714635848999024,0.3135566711425781
0.2709108352661133,0.3191928863525391
0.2709108352661133,0.3191928863525391
0.2672361373901367,0.3125267028808594
0.2688222885131836,0.3125267028808594
0.2736608505249024,0.3189989089965820
0.2736608505249024,0.3189989089965820
0.2653455734252930,0.3145843505859375
0.2653455734252930,0.3145843505859375
0.2718172073364258,0.3140298843383789
0.2718172073364258,0.3140298843383789
0.2710464477539062,0.3196409225463867
0.2710464477539062,0.3196409225463867
0.2673557281494141,0.3131114959716797
0.2673557281494141,0.3131114959716797
0.2736516952514648,0.3194005966186523
0.2736516952514648,0.3194005966186523
0.2657552719116211,0.3149642944335938
0.2657552719116211,0.3149642944335938
0.2720317840576172,0.3143732070922852
0.2720317840576172,0.3143732070922852
0.2712049484252930,0.3200157165527344
0.2712049484252930,0.3200157165527344
0.2673122406005859,0.3134828567504883
0.2673122406005859,0.3134828567504883
0.2739973068237305,0.3197055816650390
0.2739973068237305,0.3197055816650390
0.2660013198852539,0.3153121948242187
0.2660013198852539,0.3153121948242187
0.2722023010253906,0.3148252487182617
0.2722023010253906,0.3148252487182617
0.2711832046508789,0.3204088211059570
0.2711832046508789,0.3204088211059570
0.2677837371826172,0.3138753890991211
0.2677837371826172,0.3138753890991211
0.2742078781127930,0.3202297210693359
0.2742078781127930,0.3202297210693359
0.2660511016845703,0.3157636642456055
0.2660511016845703,0.3157636642456055
0.2721433639526367,0.3153064727783203
0.2721433639526367,0.3153064727783203
0.2714876174926757,0.3208957672119140
0.2714876174926757,0.3208957672119140
0.2679971694946289,0.3144418716430664
0.2679971694946289,0.3144418716430664
0.2743921279907227,0.3207057952880859
0.2743921279907227,0.3207057952880859
0.2757843017578125,0.3162866592407226
0.2726388931274414,0.3157928466796875
0.2726388931274414,0.3157928466796875
0.2716609954833984,0.3214359283447266
0.2716609954833984,0.3214359283447266
0.2680801391601562,0.3149511337280274
0.2680801391601562,0.3149511337280274
0.2742279052734375,0.3211229324340820
0.2742279052734375,0.3211229324340820
0.2664316177368164,0.3167387008666992
0.2664316177368164,0.3167387008666992
0.2726898193359375,0.3162351608276367
0.2726898193359375,0.3162351608276367
0.2717880249023437,0.3216264724731445
0.2717880249023437,0.3216264724731445
0.2680200576782226,0.3150238037109375
0.2680200576782226,0.3150238037109375
0.2744796752929687,0.3210130691528320
0.2744796752929687,0.3210130691528320
0.2662376403808593,0.3161996841430664
0.2662376403808593,0.3161996841430664
0.2723688125610351,0.3151702880859375
0.2723688125610351,0.3151702880859375
0.2708942413330078,0.3202005386352539
0.2708942413330078,0.3202005386352539
0.2674381256103516,0.3131172180175781
0.2674381256103516,0.3131172180175781
0.2737735748291015,0.3189496994018555
0.2737735748291015,0.3189496994018555
0.2654434204101562,0.3141014099121094
0.2654434204101562,0.3141014099121094
0.2714321136474609,0.3132585525512695
0.2714321136474609,0.3132585525512695
0.2704158782958984,0.3186166763305664
0.2704158782958984,0.3186166763305664
0.2669729232788086,0.3119052886962890
0.2669729232788086,0.3119052886962890
0.2733003616333008,0.3178962707519531
0.2733003616333008,0.3178962707519531
0.2649187088012695,0.3133380889892578
0.2649187088012695,0.3133380889892578
0.2714401245117187,0.3125976562500000
0.2714401245117187,0.3125976562500000
0.2703992843627930,0.3179906845092773
0.2703992843627930,0.3179906845092773
0.2667486190795899,0.3113971710205078
0.2667486190795899,0.3113971710205078
0.2728122711181640,0.3175363540649414
0.2728122711181640,0.3175363540649414
0.2650875091552734,0.3129632949829101
0.2650875091552734,0.3129632949829101
0.2713113784790039,0.3123138427734375
0.2713113784790039,0.3123138427734375
0.2701383590698242,0.3177732467651367
0.2701383590698242,0.3177732467651367
0.2664871215820312,0.3111860275268555
0.2664871215820312,0.3111860275268555
0.2730228424072266,0.3172708511352539
0.2730228424072266,0.3172708511352539
0.2650428771972656,0.3130067825317382
0.2650428771972656,0.3130067825317382
0.2713462829589844,0.3124259948730468
0.2713462829589844,0.3124259948730468
0.2699438095092773,0.3179368972778320
0.2699438095092773,0.3179368972778320
0.2667835235595703,0.3116071701049805
0.2667835235595703,0.3116071701049805
0.2732637405395508,0.3178407669067383
0.2732637405395508,0.3178407669067383
0.2651727676391601,0.3134765625000000
0.2748579025268554,0.3134765625000000
0.2713508605957031,0.3130245208740234
0.2713508605957031,0.3130245208740234
0.2704576492309570,0.3184833526611328
0.2704576492309570,0.3184833526611328
0.2669906616210938,0.3119487762451172
0.2669906616210938,0.3119487762451172
0.2734205245971680,0.3181961059570312
0.2734205245971680,0.3181961059570312
0.2650388717651367,0.3136213302612305
0.2650388717651367,0.3136213302612305
0.2716472625732422,0.3130994796752929
0.2716472625732422,0.3130994796752929
0.2705108642578125,0.3185646057128906
0.2705108642578125,0.3185646057128906
0.2669580459594726,0.3120706558227539
0.2669580459594726,0.3120706558227539
0.2731882095336914,0.3182458877563477
0.2731882095336914,0.3182458877563477
0.2653432846069336,0.3138078689575195
0.2653432846069336,0.3138078689575195
0.2717067718505859,0.3134050369262695
0.2717067718505859,0.3134050369262695
0.2705228805541992,0.3188793182373047
0.2705228805541992,0.3188793182373047
0.2669769287109375,0.3124013900756836
0.2669769287109375,0.3124013900756836
0.2736373901367187,0.3186510086059570
0.2736373901367187,0.3186510086059570
0.2655447006225586,0.3142850875854492
0.2655447006225586,0.3142850875854492
0.2719665527343750,0.3139492034912109
0.2719665527343750,0.3139492034912109
0.2704782485961914,0.3193153381347656
0.2730737686157226,0.3193153381347656
0.2673614501953125,0.3129060745239258
0.2673614501953125,0.3129060745239258
0.2738897323608399,0.3192277908325195
0.2738897323608399,0.3192277908325195
0.2657175064086914,0.3148452758789063
0.2657175064086914,0.3148452758789063
0.2719579696655273,0.3144590377807617
0.2719579696655273,0.3144590377807617
0.2709314346313477,0.3199087142944336
0.2709314346313477,0.3199087142944336
0.2675874710083008,0.3134708404541016
0.2675874710083008,0.3134708404541016
0.2740797042846679,0.3196815490722656
0.2740797042846679,0.3196815490722656
0.2657226562500000,0.3152572631835938
0.2657226562500000,0.3152572631835938
0.2723533630371094,0.3149322509765625
0.2723533630371094,0.3149322509765625
0.2710544586181641,0.3203212738037109
0.2710544586181641,0.3203212738037109
0.2677717208862305,0.3138805389404297
0.2677717208862305,0.3138805389404297
0.2739040374755859,0.3201026916503906
0.2739040374755859,0.3201026916503906
0.2659824371337891,0.3156177520751953
0.2659824371337891,0.3156177520751953
0.2724552154541016,0.3152486801147461
0.2724552154541016,0.3152486801147461
0.2711694717407226,0.3206199645996093
0.2711694717407226,0.3206199645996093
0.2676269531250000,0.3142238616943359
0.2676269531250000,0.3142238616943359
0.2742599487304687,0.3203315734863281
0.2742599487304687,0.3203315734863281
0.2662639617919922,0.3160497665405274
0.2662639617919922,0.3160497665405274
0.2726423263549805,0.3156246185302734
0.2726423263549805,0.3156246185302734
0.2710453033447265,0.3211143493652344
0.2710453033447265,0.3211143493652344
0.2680412292480469,0.3145757675170898
0.2680412292480469,0.3145757675170898
0.2743640899658203,0.3207521438598633
0.2743640899658203,0.3207521438598633
0.2664070129394531,0.3164772033691406
0.2664070129394531,0.3164772033691406
0.2725427627563476,0.3161018371582031
0.2725427627563476,0.3161018371582031
0.2714378356933594,0.3215938568115234
0.2714378356933594,0.3215938568115234
0.2682884216308594,0.3151611328125000
0.2682884216308594,0.3151611328125000
0.2745454788208008,0.3212854385375977
0.2745454788208008,0.3212854385375977
0.2663778305053711,0.3169361114501953
0.2663778305053711,0.3169361114501953
0.2728975296020508,0.3164720535278320
0.2728975296020508,0.3164720535278320
0.2715019226074218,0.3218095779418945
0.2715019226074218,0.3218095779418945
0.2682094573974609,0.3152206420898437
0.2682094573974609,0.3152206420898437
0.2742668151855469,0.3208642959594726
0.2742668151855469,0.3208642959594726
0.2662153244018555,0.3161035537719726
0.2662153244018555,0.3161035537719726
0.2725358963012695,0.3154003143310547
0.2725358963012695,0.3154003143310547
0.2708427429199219,0.3203372955322266
0.2708427429199219,0.3203372955322266
0.2672899246215820,0.3133415222167968
0.2672899246215820,0.3133415222167968
0.2736688613891601,0.3189044952392578
0.2736688613891601,0.3189044952392578
0.2655372619628906,0.3142845153808594
0.2655372619628906,0.3142845153808594
0.2717966079711914,0.3136716842651367
0.2717966079711914,0.3136716842651367
0.2700765609741211,0.3187259674072265
0.2700765609741211,0.3187259674072265
0.2670232772827149,0.3120775222778320
0.2670232772827149,0.3120775222778320
0.2734016418457031,0.3179471969604492
0.2734016418457031,0.3179471969604492
0.2652048110961914,0.3135051727294922
0.2652048110961914,0.3135051727294922
0.2713691711425781,0.3130519866943359
0.2713691711425781,0.3130519866943359
0.2700914382934570,0.3182550430297851
0.2700914382934570,0.3182550430297851
0.2669477462768555,0.3116586685180664
0.2669477462768555,0.3116586685180664
0.2732488632202149,0.3176622390747070
0.2732488632202149,0.3176622390747070
0.2648975372314453,0.3131486892700195
0.2745111465454101,0.3131486892700195
0.2715848922729492,0.3127710342407227
0.2650079727172852,0.3127710342407227
0.2700021743774414,0.3179494857788086
0.2700021743774414,0.3179494857788086
0.2668344497680664,0.3114606857299805
0.2678312301635742,0.3114606857299805
0.2728729248046875,0.3176130294799804
0.2728729248046875,0.3176130294799804
0.2651418685913086,0.3132225036621094
0.2651418685913086,0.3132225036621094
0.2715751647949219,0.3128980636596679
0.2715751647949219,0.3128980636596679
0.2700634002685547,0.3182664871215820
0.2700634002685547,0.3182664871215820
0.2668344497680664,0.3120031356811523
0.2668344497680664,0.3120031356811523
0.2733713150024414,0.3180902481079101
0.2733713150024414,0.3180902481079101
0.2654783248901367,0.3137947082519531
0.2654783248901367,0.3137947082519531
0.2718486785888672,0.3135480880737305
0.2718486785888672,0.3135480880737305
0.2700468063354492,0.3187637329101562
0.2700468063354492,0.3187637329101562
0.2671394348144531,0.3123207092285156
0.2671394348144531,0.3123207092285156
0.2735086441040039,0.3182916641235352
0.2735086441040039,0.3182916641235352
0.2654325485229492,0.3139314651489258
0.2654325485229492,0.3139314651489258
0.2717685699462891,0.3136070251464844
0.2717685699462891,0.3136070251464844
0.2703729629516601,0.3188455581665039
0.2703729629516601,0.3188455581665039
0.2672985076904297,0.3124689102172851
0.2672985076904297,0.3124689102172851
0.2735904693603515,0.3184461593627930
0.2735904693603515,0.3184461593627930
0.2653020858764648,0.3141523361206054
0.2653020858764648,0.3141523361206054
0.2720518112182617,0.3138628005981445
0.2720518112182617,0.3138628005981445
0.2704702377319336,0.3192043304443359
0.2704702377319336,0.3192043304443359
0.2673460006713867,0.3128837585449218
0.2673460006713867,0.3128837585449218
0.2736076354980468,0.3189565658569336
0.2736076354980468,0.3189565658569336
0.2657741546630859,0.3146123886108398
0.2657741546630859,0.3146123886108398
0.2722915649414062,0.3143766403198242
0.2722915649414062,0.3143766403198242
0.2706024169921875,0.3196975708007813
0.2706024169921875,0.3196975708007813
0.2673540115356445,0.3133415222167968
0.2673540115356445,0.3133415222167968
0.2739641189575195,0.3194549560546875
0.2739641189575195,0.3194549560546875
0.2659704208374024,0.3149671554565430
0.2659704208374024,0.3149671554565430
0.2723871231079101,0.3148555755615234
0.2723871231079101,0.3148555755615234
0.2706321716308593,0.3202056884765625
0.2706321716308593,0.3202056884765625
0.2677522659301758,0.3137100219726562
0.2677522659301758,0.3137100219726562
0.2741157531738281,0.3196935653686523
0.2741157531738281,0.3196935653686523
0.2660436630249023,0.3154174804687500
0.2660436630249023,0.3154174804687500
0.2723201751708984,0.3151823043823242
0.2723201751708984,0.3151823043823242
0.2709159851074219,0.3204946517944336
0.2709159851074219,0.3204946517944336
0.2679405212402344,0.3141088485717773
0.2679405212402344,0.3141088485717773
0.2742788314819336,0.3201736450195312
0.2742788314819336,0.3201736450195312
0.2659709930419922,0.3158151626586914
0.2659709930419922,0.3158151626586914
0.2727029800415039,0.3155319213867188
0.2727029800415039,0.3155319213867188
0.2710498809814453,0.3208431243896484
0.2710498809814453,0.3208431243896484
0.2679513931274414,0.3144012451171875
0.2679513931274414,0.3144012451171875
0.2741752624511719,0.3204414367675781
0.2741752624511719,0.3204414367675781
0.2663074493408203,0.3161218643188476
0.2663074493408203,0.3161218643188476
0.2727985382080078,0.3158855438232422
0.2727985382080078,0.3158855438232422
0.2710887908935547,0.3212974548339844
0.2710887908935547,0.3212974548339844
0.2678861618041992,0.3148950576782226
0.2678861618041992,0.3148950576782226
0.2745197296142578,0.3209455490112305
0.2745197296142578,0.3209455490112305
0.2664745330810547,0.3166019439697266
0.2664745330810547,0.3166019439697266
0.2729135513305664,0.3163318634033203
0.2729135513305664,0.3163318634033203
0.2710241317749023,0.3216299057006836
0.2740436553955078,0.3216299057006836
0.2682769775390625,0.3151914596557617
0.2692102432250976,0.3151914596557617
0.2746456146240234,0.3209987640380859
0.2746456146240234,0.3209987640380859
0.2663927078247070,0.3165138244628906
0.2663927078247070,0.3165138244628906
0.2726222991943359,0.3159261703491211
0.2726222991943359,0.3159261703491211
0.2708953857421875,0.3207847595214844
0.2708953857421875,0.3207847595214844
0.2677791595458984,0.3139045715332031
0.2677791595458984,0.3139045715332031
0.2739286422729492,0.3194171905517578
0.2739286422729492,0.3194171905517578
0.2654817581176758,0.3146793365478516
0.2654817581176758,0.3146793365478516
0.2719116210937500,0.3139217376708984
0.2719116210937500,0.3139217376708984
0.2701841354370117,0.3189027786254883
0.2701841354370117,0.3189027786254883
0.2670410156250000,0.3121942520141601
0.2670410156250000,0.3121942520141601
0.2731761932373047,0.3179924011230469
0.2731761932373047,0.3179924011230469
0.2652734756469726,0.3135320663452149
0.2652734756469726,0.3135320663452149
0.2716821670532226,0.3130325317382812
0.2716821670532226,0.3130325317382812
0.2698596954345703,0.3182453155517578
0.2698596954345703,0.3182453155517578
0.2667348861694336,0.3116775512695312
0.2667348861694336,0.3116775512695312
0.2731515884399414,0.3175975799560547
0.2731515884399414,0.3175975799560547
0.2650691986083984,0.3130966186523437
0.2650691986083984,0.3130966186523437
0.2715225219726562,0.3126697540283203
0.2715225219726562,0.3126697540283203
0.2695987701416016,0.3179437637329102
0.2695987701416016,0.3179437637329102
0.2667652130126953,0.3113805770874024
0.2667652130126953,0.3113805770874024
0.2731384277343750,0.3172988891601562
0.2731384277343750,0.3172988891601562
0.2650920867919922,0.3129981994628906
0.2650920867919922,0.3129981994628906
0.2713050842285156,0.3126697540283203
0.2713050842285156,0.3126697540283203
0.2698322296142578,0.3180078506469726
0.2698322296142578,0.3180078506469726
0.2669345855712891,0.3116695404052734
0.2669345855712891,0.3116695404052734
0.2733112335205078,0.3177160263061523
0.2733112335205078,0.3177160263061523
0.2650686264038086,0.3134914398193359
0.2650686264038086,0.3134914398193359
0.2717977523803711,0.3133169174194336
0.2717977523803711,0.3133169174194336
0.2700845718383789,0.3185291290283203
0.2700845718383789,0.3185291290283203
0.2671497344970703,0.3122062683105469
0.2671497344970703,0.3122062683105469
0.2733060836791992,0.3181423187255859
0.2733060836791992,0.3181423187255859
0.2653884887695312,0.3137025833129883
0.2653884887695312,0.3137025833129883
0.2719081878662109,0.3134874343872070
0.2719081878662109,0.3134874343872070
0.2701057434082031,0.3186904907226563
0.2701057434082031,0.3186904907226563
0.2668779373168945,0.3122354507446289
0.2668779373168945,0.3122354507446289
0.2735057830810547,0.3181949615478515
0.2735057830810547,0.3181949615478515
0.2655281066894531,0.3138473510742187
0.2655281066894531,0.3138473510742187
0.2719247817993164,0.3136505126953125
0.2719247817993164,0.3136505126953125
0.2700216293334961,0.3189943313598633
0.2700216293334961,0.3189943313598633
0.2672498703002930,0.3125455856323242
0.2672498703002930,0.3125455856323242
0.2736665725708008,0.3185508728027344
0.2736665725708008,0.3185508728027344
0.2657135009765625,0.3143251419067383
0.2657135009765625,0.3143251419067383
0.2719299316406250,0.3141597747802734
0.2719299316406250,0.3141597747802734
0.2704095840454102,0.3194778442382812
0.2704095840454102,0.3194778442382812
0.2675136566162109,0.3131704330444336
0.2675136566162109,0.3131704330444336
0.2738908767700195,0.3190589904785156
0.2738908767700195,0.3190589904785156
0.2655899047851563,0.3148389816284179
0.2655899047851563,0.3148389816284179
0.2723339080810547,0.3147039413452148
0.2723339080810547,0.3147039413452148
0.2706321716308593,0.3200105667114257
0.2706321716308593,0.3200105667114257
0.2677059173583984,0.3136041641235351
0.2677059173583984,0.3136041641235351
0.2739292144775390,0.3195751190185547
0.2739292144775390,0.3195751190185547
0.2660373687744140,0.3152532577514648
0.2756017684936523,0.3152532577514648
0.2725484848022461,0.3150609970092773
0.2725484848022461,0.3150609970092773
0.2707477569580078,0.3203104019165039
0.2707477569580078,0.3203104019165039
0.2676012039184570,0.3139331817626953
0.2676012039184570,0.3139331817626953
0.2742301940917969,0.3198554992675781
0.2742301940917969,0.3198554992675781
0.2661472320556640,0.3155719757080078
0.2661472320556640,0.3155719757080078
0.2726228713989258,0.3154100418090820
0.2726228713989258,0.3154100418090820
0.2705486297607422,0.3206308364868164
0.2705486297607422,0.3206308364868164
0.2679473876953125,0.3143211364746094
0.2679473876953125,0.3143211364746094
0.2743154525756836,0.3202651977539062
0.2743154525756836,0.3202651977539062
0.2662107467651367,0.3159656524658203
0.2662107467651367,0.3159656524658203
0.2726314544677734,0.3157505035400390
0.2726314544677734,0.3157505035400390
0.2709520339965820,0.3211114883422851
0.2709520339965820,0.3211114883422851
0.2681184768676758,0.3146409988403320
0.2681184768676758,0.3146409988403320
0.2743972778320312,0.3206686019897461
0.2743972778320312,0.3206686019897461
0.2662616729736328,0.3164039611816406
0.2757516860961914,0.3164039611816406
0.2729370117187500,0.3162305831909180
0.2729370117187500,0.3162305831909180
0.2711837768554687,0.3214010238647461
0.2711837768554687,0.3214010238647461
0.2682214736938476,0.3150226593017578
0.2682214736938476,0.3150226593017578
0.2743017196655274,0.3209672927856445
0.2743017196655274,0.3209672927856445
0.2665678024291992,0.3164268493652344
0.2665678024291992,0.3164268493652344
0.2728071212768555,0.3159181594848633
0.2728071212768555,0.3159181594848633
0.2709331512451172,0.3208013534545898
0.2709331512451172,0.3208013534545898
0.2676332473754883,0.3139560699462891
0.2676332473754883,0.3139560699462891
0.2738977432250976,0.3194252014160156
0.2738977432250976,0.3194252014160156
0.2657752990722656,0.3146759033203125
0.2657752990722656,0.3146759033203125
0.2720912933349609,0.3140258789062500
0.2720912933349609,0.3140258789062500
0.2698986053466797,0.3189016342163086
0.2698986053466797,0.3189016342163086
0.2671216964721679,0.3122303009033203
0.2671216964721679,0.3122303009033203
0.2733100891113281,0.3178613662719726
0.2733100891113281,0.3178613662719726
0.2652832031250000,0.3134176254272461
0.2652832031250000,0.3134176254272461
0.2715139389038086,0.3129758834838867
0.2715139389038086,0.3129758834838867
0.2697195053100586,0.3180398941040039
0.2697195053100586,0.3180398941040039
0.2669397354125976,0.3114915847778320
0.2669397354125976,0.3114915847778320
0.2731092453002930,0.3172834396362305
0.2731092453002930,0.3172834396362305
0.2649061203002930,0.3128780364990234
0.2649061203002930,0.3128780364990234
0.2715047836303711,0.3125289916992187
0.2715047836303711,0.3125289916992187
0.2695558547973633,0.3176507949829102
0.2695558547973633,0.3176507949829102
0.2667457580566406,0.3112340927124023
0.2667457580566406,0.3112340927124023
0.2728809356689453,0.3169698715209961
0.2728809356689453,0.3169698715209961
0.2650285720825195,0.3126714706420898
0.2650285720825195,0.3126714706420898
0.2715431213378906,0.3123619079589844
0.2715431213378906,0.3123619079589844
0.2695919036865234,0.3175844192504882
0.2695919036865234,0.3175844192504882
0.2665924072265625,0.3111923217773437
0.2665924072265625,0.3111923217773437
0.2730663299560547,0.3172170639038086
0.2730663299560547,0.3172170639038086
0.2721845626831055,0.3187969207763672
0.2721845626831055,0.3187969207763672
0.2721845626831055,0.3182905197143555
0.2660596847534180,0.3104003906250000
0.2660596847534180,0.3104003906250000
0.2727521896362304,0.3156068801879883
0.2727521896362304,0.3156068801879883
0.2670169830322265,0.3163164138793945
0.2670169830322265,0.3163164138793945
0.2693046569824218,0.3116357803344726
0.2644849777221679,0.3116357803344726
0.2723625183105469,0.3182722091674804
0.2723625183105469,0.3182722091674804
0.2660688400268554,0.3106693267822265
0.2660688400268554,0.3106693267822265
0.2729227066040039,0.3157733917236328
0.2729227066040039,0.3157733917236328
0.2668544769287109,0.3166254043579101
0.2668544769287109,0.3166254043579101
0.2693664550781250,0.3114400863647461
0.2693664550781250,0.3114400863647461
0.2724306106567383,0.3183437347412109
0.2724306106567383,0.3183437347412109
0.2663125991821289,0.3107173919677734
0.2663125991821289,0.3107173919677734
0.2729593276977539,0.3162700653076172
0.2729593276977539,0.3162700653076172
0.2670553207397461,0.3166688919067382
0.2670553207397461,0.3166688919067382
0.2693275451660156,0.3117977142333984
0.2693275451660156,0.3117977142333984
0.2726142883300781,0.3188140869140625
0.2726142883300781,0.3188140869140625
0.2663120269775390,0.3115362167358398
0.2663120269775390,0.3115362167358398
0.2730995178222656,0.3164480209350586
0.2730995178222656,0.3164480209350586
0.2671892166137695,0.3171552658081054
0.2671892166137695,0.3171552658081054
0.2697521209716797,0.3122446060180664
0.2697521209716797,0.3122446060180664
0.2727396011352539,0.3196403503417969
0.2727396011352539,0.3196403503417969
0.2665958404541016,0.3116964340209961
0.2665958404541016,0.3116964340209961
0.2731807708740234,0.3169961929321289
0.2731807708740234,0.3169961929321289
0.2674581527709961,0.3176290512084961
0.2674581527709961,0.3176290512084961
0.2698877334594726,0.3129770278930664
0.2698877334594726,0.3129770278930664
0.2729272842407227,0.3196123123168945
0.2729272842407227,0.3196123123168945
0.2666358947753906,0.3121084213256836
0.2666358947753906,0.3121084213256836
0.2735584259033203,0.3172891616821289
0.2735584259033203,0.3172891616821289
0.2674987792968750,0.3182487487792969
0.2674987792968750,0.3182487487792969
0.2699277877807617,0.3129598617553711
0.2699277877807617,0.3129598617553711
0.2729272842407227,0.3199905395507812
0.2729272842407227,0.3199905395507812
0.2669174194335938,0.3123498916625976
0.2669174194335938,0.3123498916625976
0.2735229492187500,0.3178407669067383
0.2735229492187500,0.3178407669067383
0.2675926208496094,0.3181125640869141
0.2675926208496094,0.3181125640869141
0.2700405120849609,0.3132957458496093
0.2700405120849609,0.3132957458496093
0.2731790542602539,0.3203338623046875
0.2731790542602539,0.3203338623046875
0.2669506072998047,0.3131177902221680
0.2669506072998047,0.3131177902221680
0.2737346649169922,0.3179420471191406
0.2737346649169922,0.3179420471191406
0.2676280975341797,0.3186229705810547
0.2676280975341797,0.3186229705810547
0.2702699661254883,0.3137014389038086
0.2702699661254883,0.3137014389038086
0.2732929229736328,0.3210102081298828
0.2732929229736328,0.3210102081298828
0.2670993804931641,0.3130743026733399
0.2670993804931641,0.3130743026733399
0.2738559722900391,0.3183866500854492
0.2738559722900391,0.3183866500854492
0.2679073333740234,0.3190074920654297
0.2679073333740234,0.3190074920654297
0.2703866958618164,0.3143320083618164
0.2703866958618164,0.3143320083618164
0.2734119415283203,0.3210136413574219
0.2734119415283203,0.3210136413574219
0.2670976638793945,0.3131132125854492
0.2670976638793945,0.3131132125854492
0.2738330841064453,0.3181297302246094
0.2738330841064453,0.3181297302246094
0.2676012039184570,0.3186841964721679
0.2676012039184570,0.3186841964721679
0.2700090408325195,0.3129524230957031
0.2700090408325195,0.3129524230957031
0.2727876663208008,0.3195367813110351
0.2727876663208008,0.3195367813110351
0.2664550781250000,0.3113931655883789
0.2664550781250000,0.3113931655883789
0.2729959487915039,0.3164606094360352
0.2729959487915039,0.3164606094360352
0.2667331695556641,0.3164737701416016
0.2667331695556641,0.3164737701416016
0.2691638946533203,0.3111688613891602
0.2691638946533203,0.3111688613891602
0.2721508026123047,0.3179254531860352
0.2721508026123047,0.3179254531860352
0.2658039093017578,0.3103191375732422
0.2658039093017578,0.3103191375732422
0.2726074218750000,0.3150506973266601
0.2648511886596679,0.3150506973266601
0.2663806915283203,0.3154340744018554
0.2663806915283203,0.3154340744018554
0.2690036773681641,0.3103242874145508
0.2690036773681641,0.3103242874145508
0.2718847274780273,0.3175077438354492
0.2718847274780273,0.3175077438354492
0.2656648635864258,0.3094562530517578
0.2656648635864258,0.3094562530517578
0.2723533630371094,0.3145729064941406
0.2723533630371094,0.3145729064941406
0.2662822723388672,0.3150335311889648
0.2662822723388672,0.3150335311889648
0.2688062667846680,0.3101280212402344
0.2688062667846680,0.3101280212402344
0.2717147827148437,0.3168033599853515
0.2717147827148437,0.3168033599853515
0.2654869079589844,0.3091667175292969
0.2654869079589844,0.3091667175292969
0.2723865509033203,0.3142679214477539
0.2723865509033203,0.3142679214477539
0.2660991668701172,0.3151027679443359
0.2660991668701172,0.3151027679443359
0.2687564849853515,0.3099151611328125
0.2687564849853515,0.3099151611328125
0.2717737197875976,0.3170465469360351
0.2717737197875976,0.3170465469360351
0.2655899047851563,0.3094905853271484
0.2655899047851563,0.3094905853271484
0.2724065780639648,0.3150461196899414
0.2724065780639648,0.3150461196899414
0.2663200378417969,0.3152996063232422
0.2663200378417969,0.3152996063232422
0.2689659118652344,0.3103368759155273
0.2689659118652344,0.3103368759155273
0.2719951629638672,0.3173664093017578
0.2719951629638672,0.3173664093017578
0.2656677246093750,0.3100250244140625
0.2656677246093750,0.3100250244140625
0.2724878311157227,0.3148458480834961
0.2724878311157227,0.3148458480834961
0.2662868499755859,0.3154111862182617
0.2662868499755859,0.3154111862182617
0.2690568923950195,0.3104890823364257
0.2690568923950195,0.3104890823364257
0.2719488143920898,0.3176387786865234
0.2719488143920898,0.3176387786865234
0.2657238006591797,0.3098705291748047
0.2657238006591797,0.3098705291748047
0.2724569320678711,0.3150072097778320
0.2724569320678711,0.3150072097778320
0.2666193008422851,0.3157035827636719
0.2666193008422851,0.3157035827636719
0.2691833496093750,0.3111700057983398
0.2691833496093750,0.3111700057983398
0.2721393585205078,0.3179283142089844
0.2721393585205078,0.3179283142089844
0.2659795761108398,0.3104061126708984
0.2659795761108398,0.3104061126708984
0.2728666305541992,0.3157052993774414
0.2728666305541992,0.3157052993774414
0.2669065475463867,0.3166500091552734
0.2669065475463867,0.3166500091552734
0.2695409774780274,0.3116266250610352
0.2695409774780274,0.3116266250610352
0.2724260330200195,0.3185800552368164
0.2724260330200195,0.3185800552368164
0.2664293289184570,0.3110698699951172
0.2664293289184570,0.3110698699951172
0.2731098175048828,0.3166700363159179
0.2731098175048828,0.3166700363159179
0.2671148300170899,0.3170557022094727
0.2671148300170899,0.3170557022094727
0.2697080612182617,0.3122795104980469
0.2697080612182617,0.3122795104980469
0.2727441787719727,0.3191568374633789
0.2727441787719727,0.3191568374633789
0.2665935516357422,0.3118675231933594
0.2665935516357422,0.3118675231933594
0.2732334136962891,0.3169120788574218
0.2732334136962891,0.3169120788574218
0.2672710418701172,0.3175523757934570
0.2672710418701172,0.3175523757934570
0.2700113296508789,0.3126302719116211
0.2700113296508789,0.3126302719116211
0.2728368759155274,0.3198572158813476
0.2728368759155274,0.3198572158813476
0.2666364669799804,0.3119379043579101
0.2666364669799804,0.3119379043579101
0.2733427047729492,0.3171546936035156
0.2733427047729492,0.3171546936035156
0.2673711776733398,0.3176542282104492
0.2673711776733398,0.3176542282104492
0.2699758529663086,0.3130485534667969
0.2699758529663086,0.3130485534667969
0.2728591918945312,0.3196455001831054
0.2728591918945312,0.3196455001831054
0.2667818069458008,0.3121438980102539
0.2667818069458008,0.3121438980102539
0.2735126495361328,0.3171987533569336
0.2735126495361328,0.3171987533569336
0.2675125122070313,0.3182024002075195
0.2675125122070313,0.3182024002075195
0.2701480865478516,0.3130365371704101
0.2701480865478516,0.3130365371704101
0.2729141235351563,0.3199424743652344
0.2729141235351563,0.3199424743652344
0.2669019699096680,0.3124740600585937
0.2669019699096680,0.3124740600585937
0.2735601425170898,0.3179122924804688
0.2735601425170898,0.3179122924804688
0.2675640106201172,0.3182945251464844
0.2675640106201172,0.3182945251464844
0.2701841354370117,0.3134061813354492
0.2701841354370117,0.3134061813354492
0.2731550216674805,0.3203962326049805
0.2731550216674805,0.3203962326049805
0.2669694900512695,0.3130937576293945
0.2669694900512695,0.3130937576293945
0.2736911773681641,0.3179386138916016
0.2736911773681641,0.3179386138916016
0.2675130844116211,0.3185708999633789
0.2675130844116211,0.3185708999633789
0.2703517913818359,0.3135457992553711
0.2703517913818359,0.3135457992553711
0.2731075286865234,0.3206485748291015
0.2731075286865234,0.3206485748291015
0.2667434692382812,0.3124814987182617
0.2667434692382812,0.3124814987182617
0.2734600067138672,0.3173183441162109
0.2734600067138672,0.3173183441162109
0.2672538757324219,0.3174591064453125
0.2672538757324219,0.3174591064453125
0.2695672988891601,0.3122634887695312
0.2695672988891601,0.3122634887695312
0.2723144531250000,0.3185445785522461
0.2723144531250000,0.3185445785522461
0.2659240722656250,0.3104467391967773
0.2659240722656250,0.3104467391967773
0.2726308822631836,0.3152498245239257
0.2726308822631836,0.3152498245239257
0.2663612365722656,0.3159221649169922
0.2663612365722656,0.3159221649169922
0.2689281463623047,0.3104330062866211
0.2689281463623047,0.3104330062866211
0.2718240737915039,0.3171741485595703
0.2718240737915039,0.3171741485595703
0.2655750274658203,0.3093818664550781
0.2655750274658203,0.3093818664550781
0.2722732543945313,0.3146553039550781
0.2722732543945313,0.3146553039550781
0.2661277770996094,0.3148309707641602
0.2661277770996094,0.3148309707641602
0.2686626434326172,0.3098138809204101
0.2686626434326172,0.3098138809204101
0.2716358184814453,0.3166311264038086
0.2716358184814453,0.3166311264038086
0.2653181076049805,0.3091564178466797
0.2653181076049805,0.3091564178466797
0.2720935821533203,0.3139589309692383
0.2720935821533203,0.3139589309692383
0.2658611297607422,0.3144544601440429
0.2736751556396484,0.3144544601440429
0.2686151504516601,0.3093515396118164
0.2636472702026367,0.3093515396118164
0.2714590072631836,0.3165487289428711
0.2714590072631836,0.3165487289428711
0.2652133941650390,0.3085641860961914
0.2652133941650390,0.3085641860961914
0.2718835830688476,0.3137197494506836
0.2718835830688476,0.3137197494506836
0.2659160614013672,0.3143342971801757
0.2659160614013672,0.3143342971801757
0.2685522079467773,0.3097600936889648
0.2685522079467773,0.3097600936889648
0.2715614318847656,0.3165292739868164
0.2715614318847656,0.3165292739868164
0.2654130935668945,0.3091152191162109
0.2654130935668945,0.3091152191162109
0.2722801208496093,0.3143308639526367
0.2722801208496093,0.3143308639526367
0.2661701202392578,0.3152263641357422
0.2661701202392578,0.3152263641357422
0.2688634872436523,0.3101354598999023
0.2688634872436523,0.3101354598999023
0.2713994979858398,0.3104324340820312
0.2713994979858398,0.3120071411132813
0.2691656112670898,0.3170482635498047
0.2691656112670898,0.3170482635498047
0.2666044235229492,0.3108386993408203
0.2666044235229492,0.3108386993408203
0.2726572036743164,0.3165447235107422
0.2726572036743164,0.3165447235107422
0.2649055480957031,0.3123596191406250
0.2649055480957031,0.3123596191406250
0.2714338302612305,0.3121828079223632
0.2714338302612305,0.3121828079223632
0.2692594528198242,0.3173572540283203
0.2692594528198242,0.3173572540283203
0.2665500640869141,0.3110601425170899
0.2665500640869141,0.3110601425170899
0.2730297088623047,0.3168245315551758
0.2730297088623047,0.3168245315551758
0.2651367187500000,0.3127801895141601
0.2651367187500000,0.3127801895141601
0.2716169357299805,0.3126943588256836
0.2646057128906250,0.3126943588256836
0.2693269729614258,0.3178699493408203
0.2693269729614258,0.3178699493408203
0.2669700622558593,0.3116146087646484
0.2669700622558593,0.3116146087646484
0.2733015060424804,0.3176198959350586
0.2733015060424804,0.3176198959350586
0.2653484344482422,0.3133798599243164
0.2653484344482422,0.3133798599243164
0.2717142105102539,0.3132648468017578
0.2717142105102539,0.3132648468017578
0.2697114944458008,0.3184759140014649
0.2697114944458008,0.3184759140014649
0.2671703338623047,0.3121278762817383
0.2671703338623047,0.3121278762817383
0.2734285354614258,0.3180130004882812
0.2734285354614258,0.3180130004882812
0.2652465820312500,0.3137449264526367
0.2652465820312500,0.3137449264526367
0.2719968795776367,0.3136556625366211
0.2719968795776367,0.3136556625366211
0.2699106216430664,0.3187917709350586
0.2699106216430664,0.3187917709350586
0.2673002243041992,0.3123939514160156
0.2673002243041992,0.3123939514160156
0.2734210968017578,0.3183815002441406
0.2734210968017578,0.3183815002441406
0.2656024932861328,0.3140899658203125
0.2656024932861328,0.3140899658203125
0.2722475051879883,0.3140796661376953
0.2722475051879883,0.3140796661376953
0.2700931549072266,0.3192317962646484
0.2700931549072266,0.3192317962646484
0.2672275543212890,0.3128093719482422
0.2672275543212890,0.3128093719482422
0.2737609863281250,0.3187957763671875
0.2737609863281250,0.3187957763671875
0.2657546997070312,0.3144676208496094
0.2657546997070312,0.3144676208496094
0.2723579406738281,0.3144058227539062
0.2723579406738281,0.3144058227539062
0.2700731277465820,0.3196557998657226
0.2700731277465820,0.3196557998657226
0.2676258087158203,0.3132963180541992
0.2676258087158203,0.3132963180541992
0.2739171981811523,0.3191459655761719
0.2739171981811523,0.3191459655761719
0.2659749984741211,0.3149585723876953
0.2659749984741211,0.3149585723876953
0.2723602294921875,0.3148275375366211
0.2723602294921875,0.3148275375366211
0.2703632354736328,0.3200592041015625
0.2703632354736328,0.3200592041015625
0.2677854537963867,0.3137414932250976
0.2677854537963867,0.3137414932250976
0.2740619659423828,0.3196249008178711
0.2740619659423828,0.3196249008178711
0.2659154891967773,0.3153373718261719
0.2659154891967773,0.3153373718261719
0.2726892471313476,0.3152263641357422
0.2726892471313476,0.3152263641357422
0.2704822540283203,0.3204082489013672
0.2704822540283203,0.3204082489013672
0.2678581237792969,0.3140544891357422
0.2678581237792969,0.3140544891357422
0.2740127563476563,0.3198984146118164
0.2740127563476563,0.3198984146118164
0.2661014556884765,0.3154277801513672
0.2661014556884765,0.3154277801513672
0.2726097106933594,0.3150735855102539
0.2726097106933594,0.3150735855102539
0.2703254699707031,0.3198806762695313
0.2703254699707031,0.3198806762695313
0.2672904968261718,0.3130542755126953
0.2672904968261718,0.3130542755126953
0.2736036300659180,0.3183769226074218
0.2736036300659180,0.3183769226074218
0.2653593063354492,0.3136184692382812
0.2653593063354492,0.3136184692382812
0.2717594146728515,0.3129329681396484
0.2717594146728515,0.3129329681396484
0.2692245483398437,0.3178030014038086
0.2692245483398437,0.3178030014038086
0.2666055679321289,0.3110767364501953
0.2666055679321289,0.3110767364501953
0.2728752136230468,0.3166643142700195
0.2728752136230468,0.3166643142700195
0.2647739410400390,0.3121370315551757
0.2647739410400390,0.3121370315551757
0.2710521697998047,0.3118595123291015
0.2710521697998047,0.3118595123291015
0.2689996719360351,0.3168399810791016
0.2689996719360351,0.3168399810791016
0.2663303375244140,0.3102699279785156
0.2663303375244140,0.3102699279785156
0.2726222991943359,0.3161029815673828
0.2726222991943359,0.3161029815673828
0.2644100189208984,0.3116935729980468
0.2738571166992188,0.3116935729980468
0.2710807800292969,0.3114515304565429
0.2710807800292969,0.3114515304565429
0.2689859390258789,0.3164354324340820
0.2689859390258789,0.3164354324340820
0.2662633895874023,0.3098802566528320
0.2662633895874023,0.3098802566528320
0.2723270416259765,0.3157201766967773
0.2723270416259765,0.3157201766967773
0.2644454956054688,0.3113576889038086
0.2644454956054688,0.3113576889038086
0.2710544586181641,0.3111070632934570
0.2710544586181641,0.3111070632934570
0.2688262939453125,0.3162740707397461
0.2688262939453125,0.3162740707397461
0.2659618377685547,0.3098436355590820
0.2659618377685547,0.3098436355590820
0.2724735260009766,0.3158008575439453
0.2724735260009766,0.3158008575439453
0.2645456314086914,0.3116460800170898
0.2645456314086914,0.3116460800170898
0.2711574554443359,0.3115688323974609
0.2711574554443359,0.3115688323974609
0.2687582015991211,0.3168285369873047
0.2687582015991211,0.3168285369873047
0.2664693832397461,0.3105005264282226
0.2664693832397461,0.3105005264282226
0.2727304458618164,0.3163890838623047
0.2727304458618164,0.3163890838623047
0.2648025512695312,0.3121347427368164
0.2648025512695312,0.3121347427368164
0.2711128234863281,0.3119195938110351
0.2711128234863281,0.3119195938110351
0.2692354202270508,0.3170728683471680
0.2692354202270508,0.3170728683471680
0.2665729522705078,0.3105623245239258
0.2665729522705078,0.3105623245239258
0.2728437423706054,0.3165040969848633
0.2728437423706054,0.3165040969848633
0.2646034240722656,0.3121181488037109
0.2646034240722656,0.3121181488037109
0.2713199615478515,0.3119287490844727
0.2713199615478515,0.3119287490844727
0.2692422866821289,0.3170179367065429
0.2692422866821289,0.3170179367065429
0.2664688110351562,0.3106452941894531
0.2664688110351562,0.3106452941894531
0.2725736618041992,0.3164880752563476
0.2725736618041992,0.3164880752563476
0.2647401809692383,0.3120351791381836
0.2647401809692383,0.3120351791381836
0.2713434219360352,0.3119304656982422
0.2713434219360352,0.3119304656982422
0.2691238403320312,0.3169641494750977
0.2691238403320312,0.3169641494750977
0.2663251876831055,0.3106161117553711
0.2663251876831055,0.3106161117553711
0.2728162765502929,0.3164171218872070
0.2728162765502929,0.3164171218872070
0.2647876739501953,0.3121301651000977
0.2647876739501953,0.3121301651000977
0.2713445663452148,0.3119573593139648
0.2713445663452148,0.3119573593139648
0.2689956665039062,0.3171409606933593
0.2689956665039062,0.3171409606933593
0.2665872573852539,0.3107471466064453
0.2665872573852539,0.3107471466064453
0.2729232788085937,0.3166831970214843
0.2674810409545899,0.3166831970214843
0.2649335861206055,0.3125169754028320
0.2649335861206055,0.3125169754028320
0.2713680267333984,0.3123830795288086
0.2713680267333984,0.3123830795288086
0.2693498611450195,0.3175363540649414
0.2693498611450195,0.3175363540649414
0.2668338775634765,0.3113124847412109
0.2668338775634765,0.3113124847412109
0.2731882095336914,0.3173217773437500
0.2731882095336914,0.3173217773437500
0.2649381637573242,0.3130697250366211
0.2649381637573242,0.3130697250366211
0.2717788696289062,0.3130142211914063
0.2717788696289062,0.3130142211914063
0.2695072174072266,0.3182241439819336
0.2695072174072266,0.3182241439819336
0.2670009613037109,0.3119213104248047
0.2670009613037109,0.3119213104248047
0.2731573104858399,0.3178876876831054
0.2731573104858399,0.3178876876831054
0.2653879165649414,0.3135932922363281
0.2653879165649414,0.3135932922363281
0.2718778610229492,0.3134719848632813
0.2718778610229492,0.3134719848632813
0.2698104858398437,0.3186841964721679
0.2698104858398437,0.3186841964721679
0.2670364379882812,0.3122629165649414
0.2670364379882812,0.3122629165649414
0.2734783172607422,0.3182149887084961
0.2681745529174804,0.3182149887084961
0.2654783248901367,0.3137437820434570
0.2654783248901367,0.3137437820434570
0.2720483779907226,0.3137048721313476
0.2720483779907226,0.3137048721313476
0.2697160720825195,0.3189199447631836
0.2697160720825195,0.3189199447631836
0.2672756195068359,0.3124952316284180
0.2678112030029297,0.3124952316284180
0.2735418319702148,0.3185262680053711
0.2682083129882812,0.3185262680053711
0.2654972076416016,0.3141260147094727
0.2654972076416016,0.3141260147094727
0.2719768524169922,0.3139686584472656
0.2719768524169922,0.3139686584472656
0.2699729919433594,0.3189720153808593
0.2699729919433594,0.3189720153808593
0.2672418594360351,0.3123968124389648
0.2672418594360351,0.3123968124389648
0.2734371185302734,0.3181051254272461
0.2734371185302734,0.3181051254272461
0.2651098251342773,0.3134262084960938
0.2651098251342773,0.3134262084960938
0.2717308044433593,0.3128637313842773
0.2717308044433593,0.3128637313842773
0.2693515777587890,0.3176038742065430
0.2693515777587890,0.3176038742065430
0.2665048599243164,0.3107099533081055
0.2665048599243164,0.3107099533081055
0.2725250244140625,0.3161859512329102
0.2725250244140625,0.3161859512329102
0.2644329071044922,0.3115573883056640
0.2644329071044922,0.3115573883056640
0.2710458755493164,0.3112775802612305
0.2710458755493164,0.3112775802612305
0.2686861038208008,0.3162002563476562
0.2686861038208008,0.3162002563476562
0.2657884597778320,0.3095283508300781
0.2657884597778320,0.3095283508300781
0.2721536636352539,0.3152126312255859
0.2721536636352539,0.3152126312255859
0.2641702651977539,0.3108318328857422
0.2641702651977539,0.3108318328857422
0.2706716537475586,0.3105096817016602
0.2706716537475586,0.3105096817016602
0.2683582305908203,0.3154947280883789
0.2683582305908203,0.3154947280883789
0.2657604217529297,0.3091695785522461
0.2657604217529297,0.3091695785522461
0.2721164703369141,0.3148967742919922
0.2721164703369141,0.3148967742919922
0.2640655517578125,0.3105279922485352
0.2640655517578125,0.3105279922485352
0.2704181671142578,0.3103002548217773
0.2704181671142578,0.3103002548217773
0.2684074401855469,0.3153745651245117
0.2684074401855469,0.3153745651245117
0.2657758712768555,0.3089355468750000
0.2657758712768555,0.3089355468750000
0.2720443725585938,0.3147743225097656
0.2720443725585938,0.3147743225097656
0.2638830184936523,0.3104587554931640
0.2638830184936523,0.3104587554931640
0.2707420349121094,0.3103500366210937
0.2707420349121094,0.3103500366210937
0.2684526443481445,0.3156949996948242
0.2684526443481445,0.3156949996948242
0.2659349441528320,0.3093801498413086
0.2659349441528320,0.3093801498413086
0.2722011566162109,0.3154850006103516
0.2722011566162109,0.3154850006103516
0.2642961502075195,0.3112346649169922
0.2642961502075195,0.3112346649169922
0.2709960937500000,0.3111911773681640
0.2709960937500000,0.3111911773681640
0.2688772201538086,0.3163215637207031
0.2688772201538086,0.3163215637207031
0.2659624099731445,0.3098831176757812
0.2659624099731445,0.3098831176757812
0.2726154327392578,0.3158214569091797
0.2726154327392578,0.3158214569091797
0.2714721679687500,0.3171953201293945
0.2714721679687500,0.3171953201293945
0.2714721679687500,0.3166471481323242
0.2651126861572266,0.3086174011230469
0.2706602096557617,0.3086174011230469
0.2719058990478516,0.3137437820434570
0.2719058990478516,0.3137437820434570
0.2659257888793945,0.3144412994384765
0.2659257888793945,0.3144412994384765
0.2685018539428711,0.3097017288208008
0.2685018539428711,0.3097017288208008
0.2715030670166015,0.3165138244628906
0.2715030670166015,0.3165138244628906
0.2652952194213867,0.3088205337524414
0.2652952194213867,0.3088205337524414
0.2721954345703125,0.3141838073730469
0.2721954345703125,0.3141838073730469
0.2660625457763672,0.3152109146118164
0.2660625457763672,0.3152109146118164
0.2687976837158203,0.3098979949951172
0.2687976837158203,0.3098979949951172
0.2717582702636719,0.3170711517333984
0.2717582702636719,0.3170711517333984
0.2656425476074218,0.3093641281127930
0.2656425476074218,0.3093641281127930
0.2724260330200195,0.3151342391967774
0.2646131515502930,0.3151342391967774
0.2663068771362305,0.3154718399047852
0.2663068771362305,0.3154718399047852
0.2688840866088867,0.3105382919311523
0.2688840866088867,0.3105382919311523
0.2719814300537109,0.3176067352294922
0.2719814300537109,0.3176067352294922
0.2657094955444336,0.3102310180664062
0.2657094955444336,0.3102310180664062
0.2726022720336914,0.3152189254760742
0.2726022720336914,0.3152189254760742
0.2662754058837891,0.3159204483032226
0.2662754058837891,0.3159204483032226
0.2691724777221680,0.3110023498535156
0.2691724777221680,0.3110023498535156
0.2721708297729492,0.3182842254638672
0.2721708297729492,0.3182842254638672
0.2658937454223633,0.3103254318237305
0.2658937454223633,0.3103254318237305
0.2727327346801758,0.3156028747558594
0.2727327346801758,0.3156028747558594
0.2666524887084961,0.3162048339843750
0.2666524887084961,0.3162048339843750
0.2693201065063476,0.3115493774414063
0.2693201065063476,0.3115493774414063
0.2722303390502930,0.3183277130126953
0.2722303390502930,0.3183277130126953
0.2659589767456055,0.3106824874877930
0.2659589767456055,0.3106824874877930
0.2728912353515625,0.3159725189208984
0.2728912353515625,0.3159725189208984
0.2667858123779297,0.3169006347656250
0.2667858123779297,0.3169006347656250
0.2693738937377930,0.3116626739501953
0.2693738937377930,0.3116626739501953
0.2723464965820312,0.3186670303344726
0.2723464965820312,0.3186670303344726
0.2661952972412109,0.3111122131347656
0.2661952972412109,0.3111122131347656
0.2729524612426757,0.3165132522583008
0.2729524612426757,0.3165132522583008
0.2668224334716797,0.3168165206909180
0.2668224334716797,0.3168165206909180
0.2693515777587890,0.3118423461914062
0.2693515777587890,0.3118423461914062
0.2724832534790039,0.3187763214111328
0.2724832534790039,0.3187763214111328
0.2662004470825195,0.3114898681640625
0.2662004470825195,0.3114898681640625
0.2728597640991211,0.3163536071777344
0.2728597640991211,0.3163536071777344
0.2668825149536133,0.3170019149780273
0.2668825149536133,0.3170019149780273
0.2694843292236328,0.3121044158935547
0.2694843292236328,0.3121044158935547
0.2724901199340820,0.3192117691040039
0.2724901199340820,0.3192117691040039
0.2663583755493164,0.3113903045654297
0.2663583755493164,0.3113903045654297
0.2728969573974609,0.3162969589233398
0.2728969573974609,0.3162969589233398
0.2669534683227539,0.3166814804077148
0.2669534683227539,0.3166814804077148
0.2692182540893555,0.3116924285888672
0.2692182540893555,0.3116924285888672
0.2719900131225586,0.3179357528686523
0.2719900131225586,0.3179357528686523
0.2657861709594727,0.3098573684692383
0.2657861709594727,0.3098573684692383
0.2722337722778320,0.3146072387695312
0.2722337722778320,0.3146072387695312
0.2660717010498047,0.3152137756347656
0.2660717010498047,0.3152137756347656
0.2685012817382812,0.3095729827880859
0.2685012817382812,0.3095729827880859
0.2712656021118164,0.3163690567016602
0.2712656021118164,0.3163690567016602
0.2652099609375000,0.3085046768188476
0.2652099609375000,0.3085046768188476
0.2717897415161133,0.3138696670532227
0.2717897415161133,0.3138696670532227
0.2656528472900391,0.3141317367553711
0.2656528472900391,0.3141317367553711
0.2682546615600586,0.3088451385498047
0.2682546615600586,0.3088451385498047
0.2712450027465820,0.3157711029052734
0.2712450027465820,0.3157711029052734
0.2649290084838867,0.3082500457763672
0.2649290084838867,0.3082500457763672
0.2716037750244141,0.3129501342773438
0.2716037750244141,0.3129501342773438
0.2653329849243164,0.3134639739990234
0.2653329849243164,0.3134639739990234
0.2679977416992188,0.3082197189331055
0.2679977416992188,0.3082197189331055
0.2709371566772461,0.3154512405395508
0.2709371566772461,0.3154512405395508
0.2647144317626953,0.3073986053466797
0.2647144317626953,0.3073986053466797
0.2713520050048828,0.3124975204467773
0.2713520050048828,0.3124975204467773
0.2653970718383789,0.3130691528320312
0.2653970718383789,0.3130691528320312
0.2678764343261719,0.3084823608398438
0.2630750656127930,0.3084823608398438
0.2709354400634765,0.3151004791259766
0.2694145202636719,0.3151004791259766
0.2646732330322266,0.3077116012573242
0.2646732330322266,0.3077116012573242
0.2716243743896484,0.3129341125488281
0.2716243743896484,0.3129341125488281
0.2656654357910156,0.3140035629272461
0.2656654357910156,0.3140035629272461
0.2681201934814453,0.3088233947753906
0.2681201934814453,0.3088233947753906
0.2712381362915039,0.3159084320068359
0.2712381362915039,0.3159084320068359
0.2652231216430664,0.3084074020385742
0.2652231216430664,0.3084074020385742
0.2717977523803711,0.3138639450073242
0.2717977523803711,0.3138639450073242
0.2658267974853515,0.3141363143920898
0.2658267974853515,0.3141363143920898
0.2682329177856445,0.3091300964355468
0.2682329177856445,0.3091300964355468
0.2714132308959961,0.3160766601562500
0.2714132308959961,0.3160766601562500
0.2652082443237305,0.3088399887084961
0.2652082443237305,0.3088399887084961
0.2718069076538086,0.3136785507202148
0.2718069076538086,0.3136785507202148
0.2659967422485351,0.3143016815185547
0.2659967422485351,0.3143016815185547
0.2684194564819336,0.3093549728393555
0.2684194564819336,0.3093549728393555
0.2714023590087891,0.3165195465087891
0.2714023590087891,0.3165195465087891
0.2653587341308594,0.3088645935058594
0.2653587341308594,0.3088645935058594
0.2717908859252929,0.3140796661376953
0.2717908859252929,0.3140796661376953
0.2662445068359375,0.3148904800415039
0.2662445068359375,0.3148904800415039
0.2685522079467773,0.3103265762329102
0.2685522079467773,0.3103265762329102
0.2717142105102539,0.3170831680297851
0.2717142105102539,0.3170831680297851
0.2655784606933594,0.3095512390136719
0.2655784606933594,0.3095512390136719
0.2724758148193359,0.3150209426879882
0.2724758148193359,0.3150209426879882
0.2664327621459961,0.3160978317260742
0.2664327621459961,0.3160978317260742
0.2689361572265625,0.3109130859375000
0.2689361572265625,0.3109130859375000
0.2720254898071289,0.3179145812988281
0.2720254898071289,0.3179145812988281
0.2660774230957031,0.3102825164794922
0.2660774230957031,0.3102825164794922
0.2726480484008789,0.3158294677734375
0.2726480484008789,0.3158294677734375
0.2666593551635742,0.3161596298217773
0.2666593551635742,0.3161596298217773
0.2690792083740234,0.3112352371215820
0.2690792083740234,0.3112352371215820
0.2721960067749024,0.3181818008422851
0.2721960067749024,0.3181818008422851
0.2660385131835937,0.3108707427978515
0.2660385131835937,0.3108707427978515
0.2727882385253906,0.3158557891845703
0.2727882385253906,0.3158557891845703
0.2666193008422851,0.3164783477783203
0.2666193008422851,0.3164783477783203
0.2692182540893555,0.3114223480224609
0.2692182540893555,0.3114223480224609
0.2722497940063476,0.3188192367553711
0.2722497940063476,0.3188192367553711
0.2661546707153320,0.3108243942260742
0.2661546707153320,0.3108243942260742
0.2727819442749023,0.3160629272460938
0.2727819442749023,0.3160629272460938
0.2669099807739257,0.3166980743408203
0.2669099807739257,0.3166980743408203
0.2692062377929688,0.3120111465454101
0.2692062377929688,0.3120111465454101
0.2723402023315429,0.3184764862060547
0.2723402023315429,0.3184764862060547
0.2660671234130859,0.3110309600830078
0.2660671234130859,0.3110309600830078
0.2727951049804687,0.3162088394165039
0.2727951049804687,0.3162088394165039
0.2669048309326172,0.3171667098999023
0.2669048309326172,0.3171667098999023
0.2692966461181641,0.3119522094726562
0.2692966461181641,0.3119522094726562
0.2723367691040039,0.3189308166503906
0.2723367691040039,0.3189308166503906
0.2662788391113281,0.3113931655883789
0.2662788391113281,0.3113931655883789
0.2729604721069336,0.3169218063354492
0.2729604721069336,0.3169218063354492
0.2671279907226562,0.3173538208007812
0.2671279907226562,0.3173538208007812
0.2693893432617188,0.3123813629150390
0.2693893432617188,0.3123813629150390
0.2726280212402344,0.3192031860351562
0.2726280212402344,0.3192031860351562
0.2663606643676757,0.3118360519409180
0.2663606643676757,0.3118360519409180
0.2727813720703125,0.3162940979003906
0.2727813720703125,0.3162940979003906
0.2668138504028320,0.3166706085205078
0.2668138504028320,0.3166706085205078
0.2689950942993164,0.3111270904541015
0.2689950942993164,0.3111270904541015
0.2719121932983398,0.3180444717407226
0.2719121932983398,0.3180444717407226
0.2655492782592773,0.3096897125244141
0.2655492782592773,0.3096897125244141
0.2720432281494141,0.3145660400390625
0.2720432281494141,0.3145660400390625
0.2660379409790039,0.3148567199707031
0.2660379409790039,0.3148567199707031
0.2682254791259766,0.3097034454345703
0.2635076522827148,0.3097034454345703
0.2712318420410156,0.3161098480224609
0.2712318420410156,0.3161098480224609
0.2649547576904297,0.3081659317016601
0.2649547576904297,0.3081659317016601
0.2715734481811523,0.3131069183349609
0.2715734481811523,0.3131069183349609
0.2655378341674804,0.3139234542846679
0.2655378341674804,0.3139234542846679
0.2677179336547851,0.3083850860595703
0.2677179336547851,0.3083850860595703
0.2706808090209961,0.3151748657226562
0.2706808090209961,0.3151748657226562
0.2648036956787109,0.3075078964233398
0.2648036956787109,0.3075078964233398
0.2712152481079101,0.3128334045410156
0.2712152481079101,0.3128334045410156
0.2653095245361328,0.3131784439086914
0.2653095245361328,0.3131784439086914
0.2676624298095703,0.3080423355102539
0.2629692077636719,0.3080423355102539
0.2708044052124023,0.3149614334106445
0.2708044052124023,0.3149614334106445
0.2646577835083008,0.3077350616455078
0.2646577835083008,0.3077350616455078
0.2712352752685547,0.3125432968139648
0.2712352752685547,0.3125432968139648
0.2654788970947266,0.3132871627807617
0.2654788970947266,0.3132871627807617
0.2678203582763672,0.3083662033081054
0.2678203582763672,0.3083662033081054
0.2709302902221680,0.3156360626220703
0.2709302902221680,0.3156360626220703
0.2648288726806641,0.3079599380493164
0.2648288726806641,0.3079599380493164
0.2715093612670899,0.3132453918457031
0.2715093612670899,0.3132453918457031
0.2657850265502930,0.3140756607055664
0.2657850265502930,0.3140756607055664
0.2680841445922851,0.3094161987304687
0.2680841445922851,0.3094161987304687
0.2712604522705078,0.3160778045654297
0.2712604522705078,0.3160778045654297
0.2650806427001953,0.3084817886352539
0.2650806427001953,0.3084817886352539
0.2717525482177734,0.3136121749877930
0.2717525482177734,0.3136121749877930
0.2659418106079102,0.3145574569702148
0.2659418106079102,0.3145574569702148
0.2680011749267578,0.3091798782348633
0.2680011749267578,0.3091798782348633
0.2712232589721680,0.3160394668579101
0.2695821762084961,0.3160394668579101
0.2706579208374023,0.3085573196411133
0.2688560485839844,0.3085573196411133
0.2716461181640625,0.3139434814453125
0.2716461181640625,0.3139434814453125
0.2659446716308594,0.3143199920654297
0.2659446716308594,0.3143199920654297
0.2680532455444336,0.3094608306884766
0.2680532455444336,0.3094608306884766
0.2714818954467773,0.3165103912353516
0.2714818954467773,0.3165103912353516
0.2653884887695312,0.3094173431396484
0.2653884887695312,0.3094173431396484
0.2720054626464843,0.3142513275146484
0.2720054626464843,0.3142513275146484
0.2662096023559570,0.3150621414184570
0.2662096023559570,0.3150621414184570
0.2685464859008789,0.3101709365844726
0.2685464859008789,0.3101709365844726
0.2717342376708984,0.3174636840820312
0.2717342376708984,0.3174636840820312
0.2655704498291016,0.3096902847290039
0.2655704498291016,0.3096902847290039
0.2720546722412109,0.3148258209228516
0.2720546722412109,0.3148258209228516
0.2664276123046875,0.3156023025512695
0.2664276123046875,0.3156023025512695
0.2685596466064453,0.3107923507690429
0.2685596466064453,0.3107923507690429
0.2717542648315430,0.3174848556518555
0.2717542648315430,0.3174848556518555
0.2657157897949219,0.3100433349609375
0.2657157897949219,0.3100433349609375
0.2723327636718750,0.3150089263916016
0.2723327636718750,0.3150089263916016
0.2665220260620117,0.3161773681640625
0.2737518310546875,0.3161773681640625
0.2687032699584961,0.3108907699584961
0.2687032699584961,0.3108907699584961
0.2718898773193359,0.3176879882812500
0.2718898773193359,0.3176879882812500
0.2659177780151367,0.3102756500244140
0.2659177780151367,0.3102756500244140
0.2722864151000977,0.3155702590942382
0.2722864151000977,0.3155702590942382
0.2666685104370117,0.3162054061889648
0.2666685104370117,0.3162054061889648
0.2687702178955078,0.3112541198730469
0.2687702178955078,0.3112541198730469
0.2721633911132812,0.3182762145996094
0.2721633911132812,0.3182762145996094
0.2660436630249023,0.3112129211425781
0.2660436630249023,0.3112129211425781
0.2725730895996094,0.3160257339477539
0.2725730895996094,0.3160257339477539
0.2669054031372070,0.3168628692626953
0.2669054031372070,0.3168628692626953
0.2691198348999023,0.3120471954345703
0.2691198348999023,0.3120471954345703
0.2723739624023437,0.3193473815917969
0.2723739624023437,0.3193473815917969
0.2663709640502930,0.3115058898925781
0.2663709640502930,0.3115058898925781
0.2728122711181640,0.3165441513061523
0.2728122711181640,0.3165441513061523
0.2672029495239258,0.3173698425292968
0.2672029495239258,0.3173698425292968
0.2692531585693359,0.3127149581909179
0.2692531585693359,0.3127149581909179
0.2724964141845703,0.3194583892822265
0.2724964141845703,0.3194583892822265
0.2662914276123047,0.3117662429809570
0.2662914276123047,0.3117662429809570
0.2729673385620117,0.3167593002319336
0.2729673385620117,0.3167593002319336
0.2670793533325195,0.3176731109619140
0.2670793533325195,0.3176731109619140
0.2691501617431640,0.3120843887329102
0.2691501617431640,0.3120843887329102
0.2722057342529297,0.3185914993286132
0.2722057342529297,0.3185914993286132
0.2660093307495117,0.3106687545776367
0.2660093307495117,0.3106687545776367
0.2722869873046875,0.3155038833618164
0.2722869873046875,0.3155038833618164
0.2663732528686523,0.3155508041381836
0.2663732528686523,0.3155508041381836
0.2682220458984375,0.3100278854370117
0.2682220458984375,0.3100278854370117
0.2714687347412109,0.3166494369506836
0.2696805953979492,0.3166494369506836
0.2651447296142578,0.3091192245483398
0.2651447296142578,0.3091192245483398
0.2715551376342774,0.3136001586914062
0.2715551376342774,0.3136001586914062
0.2657970428466797,0.3141963958740234
0.2657970428466797,0.3141963958740234
0.2678403854370117,0.3089693069458008
0.2678403854370117,0.3089693069458008
0.2710939407348633,0.3161453247070312
0.2710939407348633,0.3161453247070312
0.2648242950439453,0.3081167221069336
0.2648242950439453,0.3081167221069336
0.2712907791137695,0.3129398345947266
0.2712907791137695,0.3129398345947266
0.2656866073608398,0.3135034561157227
0.2656866073608398,0.3135034561157227
0.2675817489624023,0.3085779190063476
0.2675817489624023,0.3085779190063476
0.2707592010498047,0.3151010513305664
0.2690723419189453,0.3151010513305664
0.2644844055175781,0.3074031829833984
0.2644844055175781,0.3074031829833984
0.2710470199584961,0.3123601913452148
0.2710470199584961,0.3123601913452148
0.2651927947998047,0.3131864547729492
0.2651927947998047,0.3131864547729492
0.2672813415527344,0.3078804016113281
0.2672813415527344,0.3078804016113281
0.2704977035522461,0.3148458480834961
0.2704977035522461,0.3148458480834961
0.2645902633666992,0.3073568344116211
0.2645902633666992,0.3073568344116211
0.2711317062377930,0.3128974914550781
0.2711317062377930,0.3128974914550781
0.2654926300048828,0.3135046005249023
0.2654926300048828,0.3135046005249023
0.2676166534423828,0.3086643218994141
0.2676166534423828,0.3086643218994141
0.2710550308227539,0.3157979965209961
0.2710550308227539,0.3157979965209961
0.2650091171264649,0.3087221145629883
0.2650091171264649,0.3087221145629883
0.2715476989746093,0.3135686874389648
0.2639883041381836,0.3135686874389648
0.2657958984375000,0.3143325805664062
0.2657958984375000,0.3143325805664062
0.2680629730224609,0.3094196319580078
0.2680629730224609,0.3094196319580078
0.2712158203125000,0.3167261123657226
0.2712158203125000,0.3167261123657226
0.2651206970214844,0.3087175369262695
0.2651206970214844,0.3087175369262695
0.2718137741088867,0.3140682220458984
0.2718137741088867,0.3140682220458984
0.2659011840820312,0.3146152496337891
0.2659011840820312,0.3146152496337891
0.2681642532348633,0.3099643707275391
0.2681642532348633,0.3099643707275391
0.2714973449707031,0.3167673110961914
0.2714973449707031,0.3167673110961914
0.2651968002319336,0.3089727401733398
0.2651968002319336,0.3089727401733398
0.2719991683959961,0.3142198562622070
0.2719991683959961,0.3142198562622070
0.2661535263061524,0.3151777267456055
0.2661535263061524,0.3151777267456055
0.2682094573974609,0.3099523544311523
0.2682094573974609,0.3099523544311523
0.2715339660644531,0.3168691635131836
0.2715339660644531,0.3168691635131836
0.2654222488403320,0.3094356536865234
0.2654222488403320,0.3094356536865234
0.2720741271972656,0.3149242401123047
0.2720741271972656,0.3149242401123047
0.2663166046142578,0.3154003143310547
0.2663166046142578,0.3154003143310547
0.2683267593383789,0.3104948043823242
0.2683267593383789,0.3104948043823242
0.2718383789062500,0.3175792694091797
0.2718383789062500,0.3175792694091797
0.2656837463378906,0.3104181289672852
0.2656837463378906,0.3104181289672852
0.2723339080810547,0.3151634216308594
0.2723339080810547,0.3151634216308594
0.2665884017944336,0.3160446166992187
0.2665884017944336,0.3160446166992187
0.2687576293945312,0.3110212326049804
0.2687576293945312,0.3110212326049804
0.2720489501953125,0.3182985305786133
0.2720489501953125,0.3182985305786133
0.2659612655639648,0.3105154037475586
0.2659612655639648,0.3105154037475586
0.2723842620849609,0.3155948638916016
0.2723842620849609,0.3155948638916016
0.2667131423950195,0.3163913726806640
0.2667131423950195,0.3163913726806640
0.2689126968383789,0.3117593765258789
0.2643339157104492,0.3117593765258789
0.2721553802490234,0.3184667587280273
0.2704576492309570,0.3184667587280273
0.2659257888793945,0.3109851837158203
0.2659257888793945,0.3109851837158203
0.2727304458618164,0.3160749435424804
0.2727304458618164,0.3160749435424804
0.2667778015136719,0.3170545578002930
0.2667778015136719,0.3170545578002930
0.2690196990966797,0.3117731094360351
0.2690196990966797,0.3117731094360351
0.2722675323486328,0.3188684463500976
0.2722675323486328,0.3188684463500976
0.2662107467651367,0.3113502502441406
0.2662107467651367,0.3113502502441406
0.2727773666381836,0.3166963577270508
0.2727773666381836,0.3166963577270508
0.2669300079345703,0.3171621322631836
0.2669300079345703,0.3171621322631836
0.2691129684448242,0.3123144149780273
0.2691129684448242,0.3123144149780273
0.2725078582763672,0.3193056106567383
0.2725078582763672,0.3193056106567383
0.2663188934326172,0.3120923995971679
0.2663188934326172,0.3120923995971679
0.2730125427246093,0.3169767379760742
0.2730125427246093,0.3169767379760742
0.2671325683593750,0.3176055908203125
0.2671325683593750,0.3176055908203125
0.2694545745849609,0.3127069473266602
0.2694545745849609,0.3127069473266602
0.2725885391235351,0.3196838378906250
0.2725885391235351,0.3196838378906250
0.2662605285644531,0.3115728378295898
0.2662605285644531,0.3115728378295898
0.2726617813110351,0.3162403106689453
0.2726617813110351,0.3162403106689453
0.2667308807373047,0.3164800643920898
0.2667308807373047,0.3164800643920898
0.2686065673828125,0.3113124847412109
0.2686065673828125,0.3113124847412109
0.2717885971069336,0.3175735473632812
0.2717885971069336,0.3175735473632812
0.2652883529663086,0.3094047546386718
0.2652883529663086,0.3094047546386718
0.2719184875488281,0.3140607833862304
0.2719184875488281,0.3140607833862304
0.2657855987548828,0.3146535873413086
0.2657855987548828,0.3146535873413086
0.2678380966186523,0.3092153549194336
0.2678380966186523,0.3092153549194336
0.2710607528686523,0.3158540725708008
0.2694007873535156,0.3158540725708008
0.2648757934570312,0.3081356048583984
0.2648757934570312,0.3081356048583984
0.2713542938232422,0.3133758544921875
0.2713542938232422,0.3133758544921875
0.2654777526855469,0.3135852813720703
0.2654777526855469,0.3135852813720703
0.2674776077270508,0.3084772109985351
0.2674776077270508,0.3084772109985351
0.2707815170288086,0.3152509689331054
0.2707815170288086,0.3152509689331054
0.2646125793457031,0.3079982757568359
0.2646125793457031,0.3079982757568359
0.2711168289184570,0.3127578735351562
0.2711168289184570,0.3127578735351562
0.2654170989990234,0.3133621215820312
0.2654170989990234,0.3133621215820312
0.2675754547119141,0.3084651947021484
0.2675754547119141,0.3084651947021484
0.2708370208740234,0.3156234741210938
0.2708370208740234,0.3156234741210938
0.2647447586059570,0.3077671051025391
0.2647447586059570,0.3077671051025391
0.2712141036987304,0.3129083633422852
0.2712141036987304,0.3129083633422852
0.2656311035156250,0.3136093139648438
0.2656311035156250,0.3136093139648438
0.2677419662475586,0.3091203689575195
0.2677419662475586,0.3091203689575195
0.2710636138916016,0.3159770965576172
0.2710636138916016,0.3159770965576172
0.2650320053100586,0.3084205627441406
0.2650320053100586,0.3084205627441406
0.2717348098754883,0.3138147354125976
0.2717348098754883,0.3138147354125976
0.2658851623535156,0.3148149490356445
0.2658851623535156,0.3148149490356445
0.2680755615234375,0.3096364974975586
0.2680755615234375,0.3096364974975586
0.2713537216186523,0.3167655944824219
0.2713537216186523,0.3167655944824219
0.2653198242187500,0.3089487075805664
0.2653198242187500,0.3089487075805664
0.2719104766845703,0.3144453048706055
0.2719104766845703,0.3144453048706055
0.2660047531127930,0.3147119522094726
0.2660047531127930,0.3147119522094726
0.2681568145751953,0.3096719741821289
0.2681568145751953,0.3096719741821289
0.2714687347412109,0.3166454315185547
0.2714687347412109,0.3166454315185547
0.2652128219604492,0.3092376708984375
0.2652128219604492,0.3092376708984375
0.2718498229980469,0.3140962600708008
0.2718498229980469,0.3140962600708008
0.2659532546997070,0.3147439956665039
0.2659532546997070,0.3147439956665039
0.2682123184204102,0.3098630905151367
0.2682123184204102,0.3098630905151367
0.2715019226074218,0.3172702789306641
0.2708124160766601,0.3104221343994141
0.2653438568115234,0.3095071792602539
0.2711557388305664,0.3095071792602539
0.2720077514648437,0.3146375656127929
0.2720077514648437,0.3146375656127929
0.2662817001342773,0.3154094696044922
0.2662817001342773,0.3154094696044922
0.2684743881225586,0.3108547210693359
0.2639516830444336,0.3108547210693359
0.2718217849731445,0.3175283432006836
0.2718217849731445,0.3175283432006836
0.2655338287353515,0.3101737976074219
0.2655338287353515,0.3101737976074219
0.2723287582397461,0.3152973175048828
0.2723287582397461,0.3152973175048828
0.2664659500122070,0.3163467407226562
0.2664659500122070,0.3163467407226562
0.2687358856201172,0.3111219406127930
0.2687358856201172,0.3111219406127930
0.2719842910766602,0.3180358886718750
0.2719842910766602,0.3180358886718750
0.2658067703247070,0.3105709075927734
0.2658067703247070,0.3105709075927734
0.2724271774291992,0.3160898208618164
0.2724271774291992,0.3160898208618164
0.2667079925537109,0.3164176940917969
0.2667079925537109,0.3164176940917969
0.2687490463256836,0.3114212036132812
0.2687490463256836,0.3114212036132812
0.2722646713256836,0.3184324264526367
0.2722646713256836,0.3184324264526367
0.2659612655639648,0.3111505508422852
0.2659612655639648,0.3111505508422852
0.2725198745727539,0.3159656524658203
0.2725198745727539,0.3159656524658203
0.2668172836303711,0.3166591644287109
0.2668172836303711,0.3166591644287109
0.2689161300659180,0.3116117477416992
0.2689161300659180,0.3116117477416992
0.2722154617309570,0.3188844680786133
0.2722154617309570,0.3188844680786133
0.2659458160400390,0.3110315322875977
0.2659458160400390,0.3110315322875977
0.2724809646606445,0.3161733627319336
0.2724809646606445,0.3161733627319336
0.2669179916381836,0.3168382644653320
0.2669179916381836,0.3168382644653320
0.2689498901367187,0.3121593475341797
0.2689498901367187,0.3121593475341797
0.2722583770751953,0.3189376831054687
0.2722583770751953,0.3189376831054687
0.2660659790039062,0.3114177703857422
0.2660659790039062,0.3114177703857422
0.2727178573608398,0.3165504455566406
0.2727178573608398,0.3165504455566406
0.2669076919555664,0.3175289154052734
0.2669076919555664,0.3175289154052734
0.2690259933471680,0.3123435974121094
0.2690259933471680,0.3123435974121094
0.2723115921020507,0.3193685531616211
0.2723115921020507,0.3193685531616211
0.2663160324096679,0.3118869781494141
0.2663160324096679,0.3118869781494141
0.2728208541870117,0.3173412322998047
0.2728208541870117,0.3173412322998047
0.2671440124511719,0.3175392150878906
0.2671440124511719,0.3175392150878906
0.2690780639648437,0.3123332977294922
0.2690780639648437,0.3123332977294922
0.2723007202148438,0.3190464019775390
0.2723007202148438,0.3190464019775390
0.2659503936767578,0.3113765716552734
0.2659503936767578,0.3113765716552734
0.2722881317138672,0.3157253265380859
0.2722881317138672,0.3157253265380859
0.2661901473999023,0.3157922744750977
0.2661901473999023,0.3157922744750977
0.2683010101318359,0.3104598999023437
0.2683010101318359,0.3104598999023437
0.2714160919189453,0.3174081802368164
0.2714160919189453,0.3174081802368164
0.2650537490844727,0.3091506958007812
0.2650537490844727,0.3091506958007812
0.2714658737182617,0.3139062881469726
0.2638463973999023,0.3139062881469726
0.2657621383666992,0.3144104003906250
