REDsignal,IRsignal
0.4387367248535156,0.4631830215454101
0.4283672332763672,0.4493402481079101
0.4283672332763672,0.4493402481079101
0.4309255599975586,0.4436845779418945
0.4309255599975586,0.4436845779418945
0.4231121063232422,0.4386302947998047
0.4231121063232422,0.4386302947998047
0.4202659606933594,0.4270889282226563
0.4202659606933594,0.4270889282226563
0.4223098754882812,0.4300586700439453
0.4223098754882812,0.4300586700439453
0.4143802642822266,0.4219820022583008
0.4143802642822266,0.4219820022583008
0.4200302124023437,0.4231727600097656
0.4200302124023437,0.4231727600097656
0.4160030364990234,0.4251228332519531
0.4160030364990234,0.4251228332519531
0.4157861709594726,0.4188428878784179
0.4157861709594726,0.4188428878784179
0.4197996139526367,0.4254043579101562
0.4197996139526367,0.4254043579101562
0.4129949569702148,0.4195444107055664
0.4129949569702148,0.4195444107055664
0.4195970535278320,0.4219728469848633
0.4195970535278320,0.4219728469848633
0.4158193588256836,0.4247812271118164
0.4158193588256836,0.4247812271118164
0.4158319473266601,0.4188102722167968
0.4158319473266601,0.4188102722167968
0.4198396682739258,0.4256458282470703
0.4198396682739258,0.4256458282470703
0.4134218215942383,0.4197692871093750
0.4134218215942383,0.4197692871093750
0.4199186325073242,0.4226331710815430
0.4199186325073242,0.4226331710815430
0.4165723800659180,0.4259433746337891
0.4165723800659180,0.4259433746337891
0.4166759490966797,0.4208719253540039
0.4166759490966797,0.4208719253540039
0.4214910507202148,0.4288084030151367
0.4214910507202148,0.4288084030151367
0.4155738830566406,0.4245271682739258
0.4155738830566406,0.4245271682739258
0.4227041244506836,0.4285394668579102
0.4227041244506836,0.4285394668579102
0.4197647094726563,0.4331308364868164
0.4197647094726563,0.4331308364868164
0.4205245971679688,0.4287311553955078
0.4205245971679688,0.4287311553955078
0.4254026412963867,0.4368381500244141
0.4254026412963867,0.4368381500244141
0.4193429946899414,0.4321895599365234
0.4193429946899414,0.4321895599365234
0.4259296417236328,0.4352800369262695
0.4259296417236328,0.4352800369262695
0.4228963851928711,0.4386817932128906
0.4228963851928711,0.4386817932128906
0.4227190017700195,0.4328945159912109
0.4227190017700195,0.4328945159912109
0.4271678924560547,0.4398845672607422
0.4271678924560547,0.4398845672607422
0.4204233169555664,0.4343782424926758
0.4204233169555664,0.4343782424926758
0.4269893646240234,0.4369462966918945
0.4269893646240234,0.4369462966918945
0.4237037658691406,0.4402244567871094
0.4237037658691406,0.4402244567871094
0.4235870361328125,0.4346529006958008
0.4235870361328125,0.4346529006958008
0.4280416488647461,0.4421442031860351
0.4280416488647461,0.4421442031860351
0.4218183517456054,0.4373485565185547
0.4218183517456054,0.4373485565185547
0.4286762237548828,0.4407400131225586
0.4286762237548828,0.4407400131225586
0.4258838653564453,0.4451356887817383
0.4258838653564453,0.4451356887817383
0.4259239196777344,0.4402364730834961
0.4259239196777344,0.4402364730834961
0.4311332702636719,0.4487102508544922
0.4311332702636719,0.4487102508544922
0.4250696182250976,0.4444753646850586
0.4250696182250976,0.4444753646850586
0.4320734024047851,0.4482101440429687
0.4320734024047851,0.4482101440429687
0.4293851852416992,0.4528747558593750
0.4293851852416992,0.4528747558593750
0.4298543930053711,0.4482175827026367
0.4317037582397461,0.4482175827026367
0.4348434448242187,0.4567903518676757
0.4348434448242187,0.4567903518676757
0.4288095474243164,0.4526121139526367
0.4288095474243164,0.4526121139526367
0.4357194900512695,0.4563154220581054
0.4357194900512695,0.4563154220581054
0.4331697463989257,0.4607648849487305
0.4331697463989257,0.4607648849487305
0.4333477020263672,0.4558748245239257
0.4333477020263672,0.4558748245239257
0.4382577896118164,0.4640522003173828
0.4382577896118164,0.4640522003173828
0.4318416595458984,0.4594659805297852
0.4318416595458984,0.4594659805297852
0.4388895034790039,0.4627618789672852
0.4388895034790039,0.4627618789672852
0.4360410690307617,0.4668159484863281
0.4360410690307617,0.4668159484863281
0.4358934402465820,0.4614526748657226
0.4358934402465820,0.4614526748657226
0.4405380249023437,0.4692970275878906
0.4405380249023437,0.4692970275878906
0.4342437744140625,0.4641426086425781
0.4342437744140625,0.4641426086425781
0.4409185409545898,0.4672182083129883
0.4409185409545898,0.4672182083129883
0.4378503799438476,0.4709924697875976
0.4378503799438476,0.4709924697875976
0.4375030517578125,0.4651639938354492
0.4375030517578125,0.4651639938354492
0.4422420501708984,0.4725751876831055
0.4422420501708984,0.4725751876831055
0.4356216430664062,0.4670843124389648
0.4356216430664062,0.4670843124389648
0.4418237686157226,0.4689954757690429
0.4418237686157226,0.4689954757690429
0.4379384994506836,0.4708705902099609
0.4379384994506836,0.4708705902099609
0.4359884262084961,0.4615104675292969
0.4359884262084961,0.4615104675292969
0.4385856628417968,0.4631017684936523
0.4385856628417968,0.4631017684936523
0.4282281875610351,0.4495365142822266
0.4282281875610351,0.4495365142822266
0.4305873870849609,0.4431369781494141
0.4305873870849609,0.4431369781494141
0.4233358383178711,0.4378698348999023
0.4233358383178711,0.4378698348999023
0.4190883636474609,0.4247440338134765
0.4190883636474609,0.4247440338134765
0.4211339950561523,0.4274808883666992
0.4211339950561523,0.4274808883666992
0.4128433227539062,0.4191810607910156
0.4128433227539062,0.4191810607910156
0.4183427810668945,0.4195701599121094
0.4183427810668945,0.4195701599121094
0.4148895263671875,0.4221193313598633
0.4148895263671875,0.4221193313598633
0.4138864517211914,0.4154251098632812
0.4138864517211914,0.4154251098632812
0.4183032989501953,0.4224208831787109
0.4183032989501953,0.4224208831787109
0.4116886138916016,0.4168556213378906
0.4116886138916016,0.4168556213378906
0.4180458068847656,0.4189521789550781
0.4180458068847656,0.4189521789550781
0.4152339935302734,0.4226829528808594
0.4152339935302734,0.4226829528808594
0.4144397735595703,0.4165660858154297
0.4144397735595703,0.4165660858154297
0.4193206787109375,0.4238634109497070
0.4193206787109375,0.4238634109497070
0.4127569198608398,0.4185390472412109
0.4127569198608398,0.4185390472412109
0.4191009521484375,0.4207569122314453
0.4191009521484375,0.4207569122314453
0.4162067413330078,0.4248247146606445
0.4162067413330078,0.4248247146606445
0.4158153533935547,0.4193012237548828
0.4158153533935547,0.4193012237548828
0.4210189819335937,0.4277406692504883
0.4210189819335937,0.4277406692504883
0.4150005340576172,0.4237615585327149
0.4150005340576172,0.4237615585327149
0.4220094680786133,0.4273086547851562
0.4220094680786133,0.4273086547851562
0.4201789855957031,0.4328819274902344
0.4201789855957031,0.4328819274902344
0.4202253341674805,0.4284650802612305
0.4202253341674805,0.4284650802612305
0.4257957458496094,0.4373823165893554
0.4257957458496094,0.4373823165893554
0.4195604324340820,0.4332979202270508
0.4195604324340820,0.4332979202270508
0.4265510559082031,0.4360731124877930
0.4265510559082031,0.4360731124877930
0.4240671157836914,0.4406764984130859
0.4240671157836914,0.4406764984130859
0.4233764648437500,0.4347558975219726
0.4233764648437500,0.4347558975219726
0.4282070159912109,0.4422494888305664
0.4282070159912109,0.4422494888305664
0.4217943191528320,0.4371814727783203
0.4217943191528320,0.4371814727783203
0.4281332015991211,0.4391784667968750
0.4281332015991211,0.4391784667968750
0.4254941940307617,0.4434551239013672
0.4254941940307617,0.4434551239013672
0.4245557785034180,0.4375677108764648
0.4245557785034180,0.4375677108764648
0.4297004699707031,0.4453439712524414
0.4234949111938476,0.4408464431762695
0.4234949111938476,0.4408464431762695
0.4300197601318359,0.4435214996337891
0.4300197601318359,0.4435214996337891
0.4277040481567383,0.4483961105346679
0.4277040481567383,0.4483961105346679
0.4272588729858398,0.4432353973388672
0.4272588729858398,0.4432353973388672
0.4326541900634766,0.4516204833984375
0.4326541900634766,0.4516204833984375
0.4265876770019531,0.4476316452026367
0.4265876770019531,0.4476316452026367
0.4331302642822266,0.4506042480468750
0.4331302642822266,0.4506042480468750
0.4312522888183594,0.4559595108032226
0.4312522888183594,0.4559595108032226
0.4306737899780274,0.4508577346801758
0.4306737899780274,0.4508577346801758
0.4362155914306641,0.4592245101928711
0.4362155914306641,0.4592245101928711
0.4299682617187500,0.4552940368652343
0.4299682617187500,0.4552940368652343
0.4367649078369141,0.4579914093017578
0.4367649078369141,0.4579914093017578
0.4346248626708984,0.4630651473999023
0.4346248626708984,0.4630651473999023
0.4339056015014648,0.4577688217163086
0.4339056015014648,0.4577688217163086
0.4392150878906250,0.4658380508422851
0.4392150878906250,0.4658380508422851
0.4330009460449218,0.4614646911621094
0.4330009460449218,0.4614646911621094
0.4395229339599609,0.4636859893798828
0.4395229339599609,0.4636859893798828
0.4414918899536133,0.4684902191162109
0.4414918899536133,0.4649539947509765
0.4361160278320312,0.4627630233764648
0.4383899688720703,0.4627630233764648
0.4415136337280273,0.4704648971557617
0.4415136337280273,0.4704648971557617
0.4350185394287109,0.4657768249511718
0.4350185394287109,0.4657768249511718
0.4413814544677734,0.4677915573120117
0.4413814544677734,0.4677915573120117
0.4387023925781250,0.4722015380859375
0.4387023925781250,0.4722015380859375
0.4378034591674805,0.4661533355712890
0.4378034591674805,0.4661533355712890
0.4430253982543945,0.4736560821533203
0.4430253982543945,0.4736560821533203
0.4364370346069336,0.4688409805297851
0.4364370346069336,0.4688409805297851
0.4423885345458984,0.4703538894653320
0.4423885345458984,0.4703538894653320
0.4399085998535156,0.4744199752807617
0.4399085998535156,0.4744199752807617
0.4384071350097656,0.4673995971679688
0.4384071350097656,0.4673995971679688
0.4428537368774414,0.4728567123413085
0.4428537368774414,0.4728567123413085
0.4345991134643555,0.4643503189086914
0.4345991134643555,0.4643503189086914
0.4381885528564453,0.4597171783447265
0.4381885528564453,0.4597171783447265
0.4320436477661133,0.4556837081909180
0.4320436477661133,0.4556837081909180
0.4267141342163086,0.4407245635986328
0.4267141342163086,0.4407245635986328
0.4275690078735351,0.4392677307128906
0.4275690078735351,0.4392677307128906
0.4174032211303711,0.4275369644165039
0.4174032211303711,0.4275369644165039
0.4210315704345703,0.4244241714477539
0.4210315704345703,0.4244241714477539
0.4169197082519531,0.4259067535400390
0.4169197082519531,0.4259067535400390
0.4145381927490234,0.4179044723510742
0.4145381927490234,0.4179044723510742
0.4194339752197265,0.4241409301757812
0.4194339752197265,0.4241409301757812
0.4126270294189453,0.4188446044921875
0.4126270294189453,0.4188446044921875
0.4186889648437500,0.4200880050659180
0.4186889648437500,0.4200880050659180
0.4160814285278320,0.4244470596313477
0.4160814285278320,0.4244470596313477
0.4149061203002929,0.4182558059692383
0.4149061203002929,0.4182558059692383
0.4202659606933594,0.4256246566772461
0.4202659606933594,0.4256246566772461
0.4138029098510742,0.4209926605224609
0.4138029098510742,0.4209926605224609
0.4197813034057617,0.4225507736206054
0.4197813034057617,0.4225507736206054
0.4176252365112305,0.4271667480468750
0.4176252365112305,0.4271667480468750
0.4164848327636719,0.4214824676513672
0.4164848327636719,0.4214824676513672
0.4220970153808594,0.4295042037963867
0.4220970153808594,0.4295042037963867
0.4160642623901367,0.4261487960815429
0.4160642623901367,0.4261487960815429
0.4229370117187500,0.4290555953979492
0.4229370117187500,0.4290555953979492
0.4215236663818359,0.4354076385498047
0.4215236663818359,0.4354076385498047
0.4209457397460937,0.4310892105102539
0.4209457397460937,0.4310892105102539
0.4270156860351562,0.4399000167846679
0.4270156860351562,0.4399000167846679
0.4213222503662109,0.4367832183837890
0.4213222503662109,0.4367832183837890
0.4279832839965820,0.4391298294067383
0.4279832839965820,0.4391298294067383
0.4259370803833007,0.4441915512084961
0.4259370803833007,0.4441915512084961
0.4244625091552734,0.4383419036865234
0.4244625091552734,0.4383419036865234
0.4300317764282227,0.4455619812011719
0.4300317764282227,0.4455619812011719
0.4235464096069336,0.4410432815551757
0.4235464096069336,0.4410432815551757
0.4295631408691406,0.4421253204345703
0.4295631408691406,0.4421253204345703
0.4269847869873047,0.4464941024780273
0.4269847869873047,0.4464941024780273
0.4255542755126953,0.4403669357299805
0.4255542755126953,0.4403669357299805
0.4310274124145508,0.4474411010742188
0.4310274124145508,0.4474411010742188
0.4245700836181641,0.4433721542358398
0.4245700836181641,0.4433721542358398
0.4307132720947265,0.4449319839477539
0.4307132720947265,0.4449319839477539
0.4286539077758789,0.4499444961547852
0.4286539077758789,0.4499444961547852
0.4273092269897461,0.4442934036254882
0.4273092269897461,0.4442934036254882
0.4330804824829101,0.4521640777587890
0.4330804824829101,0.4521640777587890
0.4268222808837890,0.4485940933227539
0.4268222808837890,0.4485940933227539
0.4333969116210937,0.4505578994750976
0.4333969116210937,0.4505578994750976
0.4314371109008789,0.4559823989868164
0.4314371109008789,0.4559823989868164
0.4302749633789062,0.4506935119628906
0.4302749633789062,0.4506935119628906
0.4359930038452148,0.4587690353393554
0.4359930038452148,0.4587690353393554
0.4299739837646484,0.4552076339721680
0.4299739837646484,0.4552076339721680
0.4364227294921875,0.4570747375488281
0.4364227294921875,0.4570747375488281
0.4345224380493164,0.4624671936035156
0.4345224380493164,0.4624671936035156
0.4329345703125000,0.4568721771240234
0.4329345703125000,0.4568721771240234
0.4389289855957031,0.4646547317504883
0.4389289855957031,0.4646547317504883
0.4325901031494140,0.4609611511230469
0.4325901031494140,0.4609611511230469
0.4389421463012695,0.4625049591064453
0.4389421463012695,0.4625049591064453
0.4366945266723632,0.4676055908203125
0.4366945266723632,0.4676055908203125
0.4353595733642578,0.4617507934570312
0.4353595733642578,0.4617507934570312
0.4410879135131836,0.4692443847656250
0.4410879135131836,0.4692443847656250
0.4346391677856445,0.4653711318969727
0.4427570343017578,0.4653711318969727
0.4406833648681641,0.4667192459106445
0.4406833648681641,0.4667192459106445
0.4386434555053711,0.4716213226318359
0.4386434555053711,0.4716213226318359
0.4370447158813476,0.4655376434326172
0.4370447158813476,0.4655376434326172
0.4426837921142578,0.4727943420410156
0.4426837921142578,0.4727943420410156
0.4360376358032226,0.4686126708984375
0.4360376358032226,0.4686126708984375
0.4423725128173828,0.4698251724243164
0.4423725128173828,0.4698251724243164
0.4398262023925781,0.4741790771484375
0.4398262023925781,0.4741790771484375
0.4380443572998047,0.4672588348388672
0.4380443572998047,0.4672588348388672
0.4429178237915039,0.4728544235229492
0.4429178237915039,0.4728544235229492
0.4351530075073242,0.4657819747924805
0.4351530075073242,0.4657819747924805
0.4390766143798828,0.4617290496826172
0.4390766143798828,0.4617290496826172
0.4332647323608398,0.4582689285278320
0.4332647323608398,0.4582689285278320
0.4274934768676757,0.4432176589965820
0.4274934768676757,0.4432176589965820
0.4288055419921875,0.4410078048706055
0.4288055419921875,0.4410078048706055
0.4178770065307617,0.4288009643554687
0.4178770065307617,0.4288009643554687
0.4210441589355469,0.4243600845336914
0.4210441589355469,0.4243600845336914
0.4165472030639648,0.4252790451049804
0.4176944732666015,0.4252790451049804
0.4137033462524414,0.4166868209838867
0.4137033462524414,0.4166868209838867
0.4186346054077149,0.4222600936889648
0.4186346054077149,0.4222600936889648
0.4115032196044922,0.4172458648681641
0.4115032196044922,0.4172458648681641
0.4172527313232422,0.4176887512207031
0.4172527313232422,0.4176887512207031
0.4147733688354492,0.4217245101928711
0.4147733688354492,0.4217245101928711
0.4129446029663086,0.4151819229125976
0.4129446029663086,0.4151819229125976
0.4185487747192383,0.4219722747802734
0.4185487747192383,0.4219722747802734
0.4116926193237305,0.4176292419433594
0.4116926193237305,0.4176292419433594
0.4178695678710938,0.4183301925659180
0.4178695678710938,0.4183301925659180
0.4152431488037109,0.4225244522094727
0.4152431488037109,0.4225244522094727
0.4133955001831054,0.4160007476806640
0.4133955001831054,0.4160007476806640
0.4190483093261719,0.4230720520019531
0.4190483093261719,0.4230720520019531
0.4124490737915039,0.4192165374755859
0.4124490737915039,0.4192165374755859
0.4188274383544922,0.4205520629882812
0.4188274383544922,0.4205520629882812
0.4168882369995117,0.4259416580200195
0.4168882369995117,0.4259416580200195
0.4153713226318359,0.4206110000610351
0.4153713226318359,0.4206110000610351
0.4218177795410156,0.4287128448486328
0.4218177795410156,0.4287128448486328
0.4157855987548828,0.4259279251098633
0.4157855987548828,0.4259279251098633
0.4223047256469726,0.4276983261108399
0.4223047256469726,0.4276983261108399
0.4203712463378906,0.4330369949340820
0.4203712463378906,0.4330369949340820
0.4189613342285156,0.4273756027221680
0.4189613342285156,0.4273756027221680
0.4249763488769531,0.4345630645751953
0.4249763488769531,0.4345630645751953
0.4182901382446289,0.4309684753417969
0.4182901382446289,0.4309684753417969
0.4242828369140625,0.4315549850463867
0.4242828369140625,0.4315549850463867
0.4221479415893555,0.4361366271972656
0.4221479415893555,0.4361366271972656
0.4201990127563476,0.4297370910644531
0.4201990127563476,0.4297370910644531
0.4259685516357422,0.4366939544677734
0.4259685516357422,0.4366939544677734
0.4192079544067382,0.4330381393432617
0.4192079544067382,0.4330381393432617
0.4256298065185547,0.4341636657714844
0.4256298065185547,0.4341636657714844
0.4235973358154297,0.4392116546630859
0.4235973358154297,0.4392116546630859
0.4221004486083984,0.4336755752563476
0.4221004486083984,0.4336755752563476
0.4281354904174804,0.4415302276611328
0.4281354904174804,0.4415302276611328
0.4219934463500977,0.4388242721557617
0.4219934463500977,0.4388242721557617
0.4286087036132812,0.4406850814819336
0.4286087036132812,0.4406850814819336
0.4269950866699219,0.4466188430786133
0.4269950866699219,0.4466188430786133
0.4255485534667969,0.4414232254028320
0.4255485534667969,0.4414232254028320
0.4321237564086914,0.4496097564697266
0.4321237564086914,0.4496097564697266
0.4259525299072265,0.4472099304199219
0.4259525299072265,0.4472099304199219
0.4325672149658203,0.4491743087768554
0.4325672149658203,0.4491743087768554
0.4308443069458008,0.4548952102661132
0.4308443069458008,0.4548952102661132
0.4295711517333984,0.4497253417968750
0.4295711517333984,0.4497253417968750
0.4360313415527344,0.4576635360717773
0.4360313415527344,0.4576635360717773
0.4295974731445312,0.4551561355590820
0.4380867004394531,0.4551561355590820
0.4361320495605469,0.4566495895385742
0.4361320495605469,0.4566495895385742
0.4343484878540039,0.4619796752929687
0.4343484878540039,0.4619796752929687
0.4326971054077148,0.4564653396606445
0.4326971054077148,0.4564653396606445
0.4389501571655273,0.4640768051147461
0.4389501571655273,0.4640768051147461
0.4321643829345703,0.4609914779663086
0.4321643829345703,0.4609914779663086
0.4386777877807617,0.4621032714843750
0.4386777877807617,0.4621032714843750
0.4366859436035156,0.4671129226684570
0.4383739471435547,0.4671129226684570
0.4349201202392578,0.4611968994140625
0.4349201202392578,0.4611968994140625
0.4409317016601562,0.4682641983032226
0.4409317016601562,0.4682641983032226
0.4342134475708008,0.4650060653686523
0.4342134475708008,0.4650060653686523
0.4404275894165039,0.4656995773315429
0.4404275894165039,0.4656995773315429
0.4382211685180664,0.4703161239624023
0.4382211685180664,0.4703161239624023
0.4359609603881836,0.4639343261718750
0.4359609603881836,0.4639343261718750
0.4419742584228515,0.4700929641723632
0.4419742584228515,0.4700929641723632
0.4342781066894531,0.4649408340454101
0.4342781066894531,0.4649408340454101
0.4389776229858398,0.4620655059814453
0.4389776229858398,0.4620655059814453
0.4342420578002930,0.4607339859008789
0.4342420578002930,0.4607339859008789
0.4286258697509766,0.4460992813110352
0.4286258697509766,0.4460992813110352
0.4304466247558594,0.4437360763549805
0.4304466247558594,0.4437360763549805
0.4189092636108399,0.4311859130859375
0.4189092636108399,0.4311859130859375
0.4211894989013672,0.4246021270751953
0.4211894989013672,0.4246021270751953
0.4193778991699219,0.4181253433227539
0.4193778991699219,0.4212873458862305
0.4125818252563476,0.4198402404785156
0.4177906036376953,0.4198402404785156
0.4142412185668945,0.4142875671386719
0.4122310638427734,0.4142875671386719
0.4167234420776367,0.4204759597778320
0.4132770538330078,0.4204759597778320
0.4107582092285156,0.4136455535888672
0.4173231124877930,0.4136455535888672
0.4174032211303711,0.4176744461059570
0.4098735809326172,0.4176744461059570
0.4117910385131836,0.4182060241699219
0.4174243927001953,0.4182060241699219
0.4142097473144531,0.4141365051269531
0.4123386383056640,0.4141365051269531
0.4171274185180664,0.4209251403808594
0.4137382507324219,0.4209251403808594
0.4112703323364258,0.4146577835083008
0.4179353713989258,0.4146577835083008
0.4180137634277344,0.4185247421264648
0.4104949951171875,0.4185247421264648
0.4124422073364258,0.4193012237548828
0.4180315017700195,0.4193012237548828
0.4149318695068359,0.4153244018554688
0.4131059646606445,0.4153244018554688
0.4178335189819336,0.4225376129150391
0.4146148681640625,0.4225376129150391
0.4122797012329101,0.4166908264160156
0.4191020965576172,0.4166908264160156
0.4194259643554688,0.4214040756225586
0.4121017456054688,0.4214040756225586
0.4143796920776367,0.4234113693237305
0.4203060150146484,0.4234113693237305
0.4173002243041992,0.4207815170288086
0.4158388137817383,0.4207815170288086
0.4209297180175781,0.4288307189941406
0.4178964614868164,0.4288307189941406
0.4157552719116211,0.4239149093627930
0.4227710723876953,0.4239149093627930
0.4232345581054687,0.4289897918701172
0.4159915924072266,0.4289897918701172
0.4181001663208008,0.4309656143188477
0.4238565444946289,0.4309656143188477
0.4208084106445312,0.4275260925292969
0.4191003799438476,0.4275260925292969
0.4239555358886719,0.4346992492675781
0.4206556320190429,0.4346992492675781
0.4183433532714844,0.4286561965942383
0.4250284194946289,0.4286561965942383
0.4251113891601562,0.4326553344726562
0.4177139282226562,0.4326553344726562
0.4196170806884765,0.4335794448852539
0.4251852035522461,0.4335794448852539
0.4220014572143554,0.4297061920166015
0.4202596664428711,0.4297061920166015
0.4250827789306640,0.4367511749267578
0.4217182159423828,0.4367511749267578
0.4193355560302734,0.4310789108276367
0.4261756896972656,0.4310789108276367
0.4263353347778320,0.4352577209472656
0.4190219879150390,0.4352577209472656
0.4211408615112305,0.4369760513305664
0.4268531799316406,0.4369760513305664
0.4238822937011719,0.4338186264038086
0.4224008560180664,0.4338186264038086
0.4273344039916992,0.4419336318969727
0.4241243362426758,0.4419336318969727
0.4220643997192383,0.4366939544677734
0.4291534423828125,0.4366939544677734
0.4294086456298828,0.4416938781738281
0.4221593856811524,0.4416938781738281
0.4245042800903320,0.4441028594970703
0.4303762435913086,0.4441028594970703
0.4274368286132812,0.4416131973266602
0.4260280609130859,0.4416131973266602
0.4311143875122070,0.4496366500854492
0.4279552459716797,0.4496366500854492
0.4258398056030273,0.4448026657104492
0.4329328536987305,0.4448026657104492
0.4332956314086914,0.4498106002807617
0.4260120391845703,0.4498106002807617
0.4282608032226562,0.4524679183959961
0.4341670989990234,0.4524679183959961
0.4312574386596680,0.4496189117431640
0.4299362182617187,0.4496189117431640
0.4348989486694336,0.4577167510986328
0.4317283630371094,0.4577167510986328
0.4296249389648437,0.4528106689453125
0.4367603302001953,0.4528106689453125
0.4370155334472656,0.4578804016113281
0.4296180725097656,0.4578804016113281
0.4319509506225586,0.4599420547485351
0.4377817153930664,0.4599420547485351
0.4348136901855469,0.4570381164550781
0.4333574295043945,0.4570381164550781
0.4383733749389648,0.4649024963378906
0.4348669052124023,0.4649024963378906
0.4327234268188476,0.4596988677978515
0.4399108886718750,0.4596988677978515
0.4399806976318359,0.4640178680419922
0.4324470520019531,0.4640178680419922
0.4346969604492187,0.4658082962036132
0.4403926849365234,0.4658082962036132
0.4374074935913086,0.4624294281005859
0.4358407974243164,0.4624294281005859
0.4405786514282227,0.4699716567993164
0.4369331359863281,0.4699716567993164
0.4347576141357422,0.4639789581298828
0.4417791366577148,0.4639789581298828
0.4417631149291992,0.4680639266967773
0.4341396331787109,0.4680639266967773
0.4364181518554687,0.4693725585937500
0.4420143127441406,0.4693725585937500
0.4387870788574219,0.4655897140502929
0.4370573043823242,0.4655897140502929
0.4417207717895508,0.4721357345581054
0.4380186080932617,0.4721357345581054
0.4352989196777344,0.4651245117187500
0.4420074462890625,0.4651245117187500
0.4414031982421875,0.4666849136352539
0.4329196929931641,0.4666849136352539
0.4339622497558593,0.4637002944946289
0.4381690979003906,0.4637002944946289
0.4332653045654297,0.4520919799804687
0.4294246673583984,0.4520919799804687
0.4321660995483398,0.4501001358032226
0.4261384963989258,0.4501001358032226
0.4216552734375000,0.4343324661254883
0.4262197494506836,0.4343324661254883
0.4242073059082031,0.4298475265502930
0.4146514892578125,0.4298475265502930
0.4152734756469726,0.4251256942749023
0.4197458267211914,0.4251256942749023
0.4156688690185547,0.4173986434936524
0.4133245468139649,0.4173986434936524
0.4175863265991211,0.4218652725219726
0.4133737564086914,0.4218652725219726
0.4106563568115234,0.4144020080566406
0.4174570083618164,0.4144020080566406
0.4172075271606445,0.4171806335449219
0.4093477249145508,0.4171806335449219
0.4113378524780273,0.4179611206054688
0.4168464660644531,0.4179611206054688
0.4136489868164062,0.4137090682983398
0.4119649887084961,0.4137090682983398
0.4166496276855469,0.4205188751220703
0.4129961013793945,0.4205188751220703
0.4105155944824219,0.4141107559204101
0.4176355361938476,0.4141107559204101
0.4175165176391601,0.4177202224731445
0.4097929000854492,0.4177202224731445
0.4119993209838867,0.4188972473144531
0.4173706054687500,0.4188972473144531
0.4140832901000976,0.4147195816040039
0.4130041122436524,0.4147195816040039
0.4174575805664062,0.4214080810546875
0.4139928817749023,0.4214080810546875
0.4111650466918945,0.4157117843627929
0.4177608489990234,0.4157117843627929
0.4183021545410156,0.4191856384277344
0.4115358352661133,0.4191856384277344
0.4136198043823242,0.4220312118530273
0.4187685012817383,0.4220312118530273
0.4155286788940429,0.4184274673461914
0.4145404815673828,0.4184274673461914
0.4199804306030273,0.4266036987304687
0.4169769287109375,0.4266036987304687
0.4143573760986328,0.4222131729125976
0.4212232589721679,0.4222131729125976
0.4220592498779297,0.4270122528076172
0.4153387069702149,0.4270122528076172
0.4174839019775390,0.4300111770629882
0.4230451583862305,0.4300111770629882
0.4199838638305664,0.4269327163696289
0.4187467575073242,0.4269327163696289
0.4240087509155273,0.4348085403442383
0.4204124450683593,0.4348085403442383
0.4180807113647461,0.4295362472534179
0.4254495620727539,0.4295362472534179
0.4253826141357422,0.4333402633666992
0.4177156448364258,0.4333402633666992
0.4199449539184570,0.4349498748779297
0.4255994796752929,0.4349498748779297
0.4222990036010742,0.4309495925903320
0.4208496093750000,0.4309495925903320
0.4256011962890625,0.4381044387817383
0.4219081878662109,0.4381044387817383
0.4194803237915039,0.4320573806762695
0.4266008377075195,0.4320573806762695
0.4265905380249023,0.4358339309692383
0.4188394546508789,0.4358339309692383
0.4211711883544922,0.4375688552856445
0.4268629074096680,0.4375688552856445
0.4236631393432617,0.4341711044311523
0.4223184585571289,0.4341711044311523
0.4272108078002930,0.4416572570800781
0.4236471176147461,0.4416572570800781
0.4213880538940429,0.4364467620849609
0.4289451599121094,0.4364467620849609
0.4291116714477539,0.4410593032836914
0.4215047836303711,0.4410593032836914
0.4238548278808594,0.4436965942382812
0.4297279357910156,0.4436965942382812
0.4267278671264648,0.4405843734741211
0.4254575729370117,0.4405843734741211
0.4305084228515625,0.4487445831298828
0.4270259857177734,0.4487445831298828
0.4249551773071289,0.4438854217529297
0.4325998306274414,0.4438854217529297
0.4326192855834961,0.4489379882812500
0.4251840591430664,0.4489379882812500
0.4275054931640625,0.4513143539428711
0.4334392547607422,0.4513143539428711
0.4303470611572265,0.4484693527221680
0.4291654586791992,0.4484693527221680
0.4342191696166992,0.4564538955688476
0.4306291580200195,0.4564538955688476
0.4285039901733398,0.4515747070312500
0.4361314773559570,0.4515747070312500
0.4360548019409179,0.4560361862182617
0.4284954071044922,0.4560361862182617
0.4308580398559570,0.4584817886352539
0.4366933822631836,0.4584817886352539
0.4335748672485352,0.4553094863891601
0.4323354721069336,0.4553094863891601
0.4373777389526367,0.4632797241210938
0.4337808609008789,0.4632797241210938
0.4315750122070313,0.4578283309936523
0.4390628814697266,0.4578283309936523
0.4389976501464843,0.4622978210449218
0.4313501358032226,0.4622978210449218
0.4337184906005859,0.4644395828247070
0.4394720077514648,0.4644395828247070
0.4363071441650391,0.4612117767333984
0.4351129531860352,0.4612117767333984
0.4399497985839844,0.4685468673706055
0.4363100051879883,0.4685468673706055
0.4339313507080078,0.4630165100097656
0.4414690017700195,0.4630165100097656
0.4414175033569336,0.4671260833740234
0.4336910247802734,0.4671260833740234
0.4359603881835937,0.4692220687866211
0.4415513992309570,0.4692220687866211
0.4383745193481445,0.4653614044189453
0.4370515823364258,0.4653614044189453
0.4418294906616211,0.4724447250366210
0.4380781173706055,0.4724447250366210
0.4357807159423828,0.4666860580444336
0.4431798934936523,0.4666860580444336
0.4429492950439453,0.4703447341918945
0.4350122451782226,0.4703447341918945
0.4371425628662109,0.4715589523315429
0.4426500320434570,0.4715589523315429
0.4390485763549805,0.4666076660156250
0.4374423980712890,0.4666076660156250
0.4416715621948242,0.4715389251708984
0.4370058059692383,0.4715389251708984
0.4336452484130859,0.4615533828735351
0.4397935867309570,0.4615533828735351
0.4380889892578125,0.4582151412963867
0.4282957077026367,0.4582151412963867
0.4285543441772461,0.4514144897460937
0.4319452285766601,0.4514144897460937
0.4267330169677734,0.4386177062988281
0.4231773376464844,0.4386177062988281
0.4260423660278320,0.4374979019165039
0.4202024459838867,0.4374979019165039
0.4163578033447266,0.4251777648925781
0.4225341796875000,0.4251777648925781
0.4212902069091797,0.4246793746948242
0.4126676559448242,0.4246793746948242
0.4144208908081055,0.4238668441772461
0.4195306777954101,0.4238668441772461
0.4157730102539062,0.4183851242065429
0.4142658233642578,0.4183851242065429
0.4162508010864258,0.4180011749267578
0.4162508010864258,0.4244344711303711
0.4162508010864258,0.4236700057983399
0.4141056060791016,0.4260560989379883
0.4141056060791016,0.4232889175415039
0.4202253341674805,0.4240568161010742
0.4202253341674805,0.4240568161010742
0.4197904586791992,0.4261980056762695
0.4160253524780274,0.4261980056762695
0.4138040542602539,0.4205406188964844
0.4213319778442383,0.4205406188964844
0.4210802078247070,0.4243223190307617
0.4132781982421875,0.4243223190307617
0.4156007766723633,0.4262145996093750
0.4212621688842773,0.4262145996093750
0.4179182052612305,0.4225811004638672
0.4169277191162109,0.4225811004638672
0.4219367980957031,0.4303510665893555
0.4182867050170898,0.4303510665893555
0.4161277770996094,0.4256881713867187
0.4240150451660156,0.4256881713867187
0.4180984497070312,0.4271644592285156
0.4226160049438477,0.4271644592285156
0.4257745742797852,0.4355197906494140
0.4257745742797852,0.4355197906494140
0.4191370010375977,0.4344680786132812
0.4191370010375977,0.4344680786132812
0.4261161804199219,0.4354768753051758
0.4261161804199219,0.4354768753051758
0.4250347137451172,0.4415376663208008
0.4250347137451172,0.4415376663208008
0.4226612091064453,0.4360267639160156
0.4226612091064453,0.4360267639160156
0.4297033309936523,0.4432027816772461
0.4297033309936523,0.4432027816772461
0.4223339080810547,0.4407926559448242
0.4223339080810547,0.4407926559448242
0.4285852432250977,0.4403308868408203
0.4285852432250977,0.4403308868408203
0.4272983551025391,0.4453256607055664
0.4272983551025391,0.4453256607055664
0.4241586685180664,0.4388339996337891
0.4241586685180664,0.4388339996337891
0.4309467315673828,0.4455642700195312
0.4309467315673828,0.4455642700195312
0.4233810424804688,0.4429933547973633
0.4233810424804688,0.4429933547973633
0.4299488067626953,0.4426013946533203
0.4299488067626953,0.4426013946533203
0.4286350250244140,0.4481065750122070
0.4286350250244140,0.4481065750122070
0.4254838943481445,0.4421842575073242
0.4254838943481445,0.4421842575073242
0.4323640823364258,0.4490610122680664
0.4323640823364258,0.4490610122680664
0.4257797241210937,0.4479366302490234
0.4257797241210937,0.4479366302490234
0.4317712783813477,0.4478090286254883
0.4317712783813477,0.4478090286254883
0.4314313888549804,0.4540689468383789
0.4314313888549804,0.4540689468383789
0.4284822463989258,0.4487508773803711
0.4284822463989258,0.4487508773803711
0.4359575271606445,0.4562994003295898
0.4359575271606445,0.4562994003295898
0.4290744781494141,0.4551652908325195
0.4290744781494141,0.4551652908325195
0.4356273651123047,0.4555675506591796
0.4356273651123047,0.4555675506591796
0.4347799301147461,0.4616472244262695
0.4347799301147461,0.4616472244262695
0.4321111679077148,0.4561140060424804
0.4321111679077148,0.4561140060424804
0.4391572952270508,0.4635560989379883
0.4391572952270508,0.4635560989379883
0.4322799682617187,0.4619001388549804
0.4322799682617187,0.4619001388549804
0.4384729385375977,0.4619516372680664
0.4384729385375977,0.4619516372680664
0.4378051757812500,0.4677188873291016
0.4378051757812500,0.4677188873291016
0.4347547531127929,0.4618389129638671
0.4347547531127929,0.4618389129638671
0.4417379379272461,0.4686721801757812
0.4417379379272461,0.4686721801757812
0.4347799301147461,0.4672159194946289
0.4347799301147461,0.4672159194946289
0.4404567718505859,0.4663433074951172
0.4404567718505859,0.4663433074951172
0.4400745391845703,0.4721260070800781
0.4400745391845703,0.4721260070800781
0.4366430282592773,0.4660423278808594
0.4366430282592773,0.4660423278808594
0.4434665679931640,0.4721706390380859
0.4434665679931640,0.4721706390380859
0.4365428924560547,0.4706840515136719
0.4365428924560547,0.4706840515136719
0.4420801162719726,0.4696506500244140
0.4420801162719726,0.4696506500244140
0.4415016174316406,0.4751855850219726
0.4415016174316406,0.4751855850219726
0.4378641128540039,0.4688713073730468
0.4378641128540039,0.4688713073730468
0.4447940826416015,0.4749996185302734
0.4447940826416015,0.4749996185302734
0.4377410888671875,0.4730741500854492
0.4377410888671875,0.4730741500854492
0.4430517196655273,0.4716253280639648
0.4430517196655273,0.4716253280639648
0.4420194625854492,0.4762687683105469
0.4420194625854492,0.4762687683105469
0.4379625320434570,0.4682298660278320
0.4379625320434570,0.4682298660278320
0.4432359695434570,0.4711177825927734
0.4432359695434570,0.4711177825927734
0.4337362289428711,0.4634862899780273
0.4337362289428711,0.4634862899780273
0.4357389450073242,0.4542314529418945
0.4357389450073242,0.4542314529418945
0.4309999465942383,0.4511707305908203
0.4309999465942383,0.4511707305908203
0.4236499786376953,0.4363437652587890
0.4236499786376953,0.4363437652587890
0.4265607833862304,0.4356199264526367
0.4265607833862304,0.4356199264526367
0.4163286209106445,0.4282258987426757
0.4163286209106445,0.4282258987426757
0.4207580566406250,0.4241346359252929
0.4207580566406250,0.4241346359252929
0.4184589385986328,0.4274379730224609
0.4184589385986328,0.4274379730224609
0.4146514892578125,0.4199008941650391
0.4146514892578125,0.4199008941650391
0.4211643218994141,0.4261236190795898
0.4211643218994141,0.4261236190795898
0.4138092041015625,0.4236047744750976
0.4138092041015625,0.4236047744750976
0.4200777053833007,0.4229118347167969
0.4200777053833007,0.4229118347167969
0.4187650680541992,0.4281011581420898
0.4187650680541992,0.4281011581420898
0.4156368255615234,0.4218738555908203
0.4156368255615234,0.4218738555908203
0.4226675033569336,0.4288164138793945
0.4226675033569336,0.4288164138793945
0.4154920578002930,0.4266088485717773
0.4154920578002930,0.4266088485717773
0.4217720031738281,0.4262992858886719
0.4217720031738281,0.4262992858886719
0.4207139968872070,0.4320545196533203
0.4207139968872070,0.4320545196533203
0.4180429458618164,0.4266391754150390
0.4224048614501953,0.4266391754150390
0.4254987716674805,0.4346242904663086
0.4186563491821289,0.4346242904663086
0.4188383102416992,0.4340366363525390
0.4278116226196289,0.4340366363525390
0.4258821487426758,0.4351118087768555
0.4209846496582031,0.4351118087768555
0.4255943298339844,0.4419925689697266
0.4263536453247070,0.4419925689697266
0.4231029510498047,0.4370687484741211
0.4231029510498047,0.4370687484741211
0.4305713653564453,0.4450532913208008
0.4305713653564453,0.4450532913208008
0.4235309600830078,0.4434442520141602
0.4235309600830078,0.4434442520141602
0.4301359176635742,0.4431901931762695
0.4248916625976563,0.4431901931762695
0.4289119720458984,0.4484893798828125
0.4289119720458984,0.4484893798828125
0.4256870269775391,0.4419857025146484
0.4256870269775391,0.4419857025146484
0.4322925567626953,0.4485145568847656
0.4322925567626953,0.4485145568847656
0.4249168395996094,0.4459236145019531
0.4249168395996094,0.4459236145019531
0.4310943603515625,0.4449113845825195
0.4310943603515625,0.4449113845825195
0.4297302246093750,0.4501562118530273
0.4297302246093750,0.4501562118530273
0.4263307571411133,0.4437257766723633
0.4263307571411133,0.4437257766723633
0.4334770202636719,0.4506488800048828
0.4334770202636719,0.4506488800048828
0.4261854171752930,0.4487096786499024
0.4261854171752930,0.4487096786499024
0.4326101303100586,0.4485088348388672
0.4326101303100586,0.4485088348388672
0.4315195083618164,0.4544340133666992
0.4315195083618164,0.4544340133666992
0.4288398742675781,0.4488990783691406
0.4288398742675781,0.4488990783691406
0.4361051559448242,0.4566049575805664
0.4361051559448242,0.4566049575805664
0.4291425704956054,0.4551801681518555
0.4291425704956054,0.4551801681518555
0.4356473922729492,0.4554800033569336
0.4356473922729492,0.4554800033569336
0.4349756240844727,0.4617410659790039
0.4349756240844727,0.4617410659790039
0.4321781158447265,0.4561820983886719
0.4321781158447265,0.4561820983886719
0.4394536972045898,0.4638891220092773
0.4394536972045898,0.4638891220092773
0.4323366165161133,0.4622720718383789
0.4323366165161133,0.4622720718383789
0.4389427185058594,0.4623252868652343
0.4389427185058594,0.4623252868652343
0.4380300521850586,0.4680347442626953
0.4384220123291016,0.4680347442626953
0.4350929260253906,0.4621873855590820
0.4350929260253906,0.4621873855590820
0.4419319152832031,0.4693811416625976
0.4419319152832031,0.4693811416625976
0.4348857879638672,0.4674951553344726
0.4348857879638672,0.4674951553344726
0.4412641525268555,0.4669744491577148
0.4412641525268555,0.4669744491577148
0.4401615142822266,0.4726049423217773
0.4401615142822266,0.4726049423217773
0.4369216918945312,0.4663272857666015
0.4369216918945312,0.4663272857666015
0.4438991546630859,0.4732715606689453
0.4438991546630859,0.4732715606689453
0.4366693496704102,0.4710388183593750
0.4366693496704102,0.4710388183593750
0.4428703308105469,0.4703824996948242
0.4428703308105469,0.4703824996948242
0.4414970397949219,0.4756828308105469
0.4414970397949219,0.4756828308105469
0.4383573532104492,0.4694263458251953
0.4383573532104492,0.4694263458251953
0.4452856063842773,0.4761274337768555
0.4452856063842773,0.4761274337768555
0.4379070281982422,0.4737258911132812
0.4379070281982422,0.4737258911132812
0.4438859939575195,0.4728664398193359
0.4438859939575195,0.4728664398193359
0.4427495956420898,0.4779716491699219
0.4427495956420898,0.4779716491699219
0.4393243789672852,0.4712688446044921
0.4393243789672852,0.4712688446044921
0.4458280563354492,0.4771980285644531
0.4458280563354492,0.4771980285644531
0.4377222061157227,0.4731685638427734
0.4377222061157227,0.4731685638427734
0.4425378799438476,0.4689903259277344
0.4425378799438476,0.4689903259277344
0.4387767791748047,0.4683179855346680
0.4387767791748047,0.4683179855346680
0.4317289352416992,0.4533285140991211
0.4317289352416992,0.4533285140991211
0.4344131469726563,0.4510917663574219
0.4344131469726563,0.4510917663574219
0.4228099822998047,0.4398387908935547
0.4228099822998047,0.4398387908935547
0.4248218536376953,0.4313547134399414
0.4248218536376953,0.4313547134399414
0.4205669403076172,0.4312906265258789
0.4205669403076172,0.4312906265258789
0.4154050827026367,0.4214790344238281
0.4154050827026367,0.4214790344238281
0.4213314056396484,0.4261276245117188
0.4213314056396484,0.4261276245117188
0.4134218215942383,0.4227127075195312
0.4134218215942383,0.4227127075195312
0.4192222595214843,0.4212078094482422
0.4192222595214843,0.4212078094482422
0.4177654266357422,0.4261156082153320
0.4177654266357422,0.4261156082153320
0.4145009994506836,0.4196050643920898
0.4145009994506836,0.4196050643920898
0.4213336944580078,0.4261304855346680
0.4213336944580078,0.4261304855346680
0.4140289306640625,0.4238159179687500
0.4140289306640625,0.4238159179687500
0.4201194763183594,0.4230840682983398
0.4147842407226562,0.4230840682983398
0.4190917968750000,0.4283861160278320
0.4190917968750000,0.4283861160278320
0.4158010482788086,0.4220157623291015
0.4158010482788086,0.4220157623291015
0.4227676391601562,0.4289159774780273
0.4227676391601562,0.4289159774780273
0.4155784606933594,0.4270248413085938
0.4155784606933594,0.4270248413085938
0.4221256256103516,0.4270225524902344
0.4221256256103516,0.4270225524902344
0.4214607238769531,0.4334781646728516
0.4214607238769531,0.4334781646728516
0.4188463211059570,0.4285875320434570
0.4188463211059570,0.4285875320434570
0.4264635086059570,0.4369050979614258
0.4264635086059570,0.4369050979614258
0.4201023101806641,0.4363140106201172
0.4201023101806641,0.4363140106201172
0.4269979476928711,0.4370538711547852
0.4269979476928711,0.4370538711547852
0.4264240264892578,0.4436748504638672
0.4264240264892578,0.4436748504638672
0.4235635757446289,0.4381759643554687
0.4235635757446289,0.4381759643554687
0.4308523178100586,0.4454538345336914
0.4308523178100586,0.4454538345336914
0.4237615585327149,0.4433916091918945
0.4237615585327149,0.4433916091918945
0.4298452377319336,0.4427799224853515
0.4298452377319336,0.4427799224853515
0.4285228729248047,0.4480155944824218
0.4287717819213867,0.4480155944824218
0.4254352569580078,0.4414690017700195
0.4254352569580078,0.4414690017700195
0.4321357727050781,0.4481563568115234
0.4321357727050781,0.4481563568115234
0.4248115539550781,0.4459121704101562
0.4248115539550781,0.4459121704101562
0.4308826446533203,0.4451082229614258
0.4308826446533203,0.4451082229614258
0.4328098297119141,0.4485214233398437
0.4328098297119141,0.4485214233398437
0.4330930709838867,0.4513704299926757
0.4338735580444336,0.4513704299926757
0.4297788619995117,0.4475429534912109
0.4297788619995117,0.4475429534912109
0.4339765548706054,0.4552551269531250
0.4301759719848633,0.4552551269531250
0.4281080245971680,0.4504835128784179
0.4281080245971680,0.4504835128784179
0.4356365203857422,0.4548694610595703
0.4356365203857422,0.4548694610595703
0.4307613372802734,0.4579685211181641
0.4307613372802734,0.4579685211181641
0.4330684661865234,0.4546617507934570
0.4325958251953125,0.4546617507934570
0.4374950408935547,0.4627441406250000
0.4374950408935547,0.4627441406250000
0.4316139221191406,0.4581699371337891
0.4316139221191406,0.4581699371337891
0.4389701843261719,0.4619184494018554
0.4389701843261719,0.4619184494018554
0.4341819763183594,0.4650947570800781
0.4341819763183594,0.4650947570800781
0.4361583709716797,0.4613410949707031
0.4361583709716797,0.4613410949707031
0.4404973983764648,0.4690258026123046
0.4404973983764648,0.4690258026123046
0.4343696594238281,0.4639474868774414
0.4343696594238281,0.4639474868774414
0.4414083480834961,0.4673189163208007
0.4414083480834961,0.4673189163208007
0.4368101119995117,0.4702840805053711
0.4368101119995117,0.4702840805053711
0.4382160186767578,0.4662162780761718
0.4376827239990234,0.4662162780761718
0.4426134109497070,0.4731948852539062
0.4426134109497070,0.4731948852539062
0.4363489151000977,0.4681972503662109
0.4363489151000977,0.4681972503662109
0.4433023452758789,0.4711429595947265
0.4433023452758789,0.4711429595947265
0.4386234283447266,0.4741458892822266
0.4386234283447266,0.4741458892822266
0.4398920059204102,0.4694452285766602
0.4398920059204102,0.4694452285766602
0.4441343307495117,0.4764438629150390
0.4441343307495117,0.4764438629150390
0.4378601074218750,0.4712768554687500
0.4378601074218750,0.4712768554687500
0.4446613311767578,0.4741298675537109
0.4446613311767578,0.4741298675537109
0.4398616790771484,0.4766933441162109
0.4398616790771484,0.4766933441162109
0.4411216735839844,0.4719715118408203
0.4411216735839844,0.4719715118408203
0.4452810287475586,0.4786960601806640
0.4452810287475586,0.4786960601806640
0.4385272979736328,0.4728115081787109
0.4385272979736328,0.4728115081787109
0.4450338363647461,0.4744554519653320
0.4450338363647461,0.4744554519653320
0.4387321472167969,0.4741041183471679
0.4387321472167969,0.4741041183471679
0.4384386062622070,0.4647428512573242
0.4384386062622070,0.4647428512573242
0.4389358520507812,0.4639205932617188
0.4389358520507812,0.4639205932617188
0.4284879684448242,0.4491971969604492
0.4284879684448242,0.4491971969604492
0.4312007904052734,0.4433830261230469
0.4312007904052734,0.4433830261230469
0.4216066360473633,0.4374074935913086
0.4216066360473633,0.4374074935913086
0.4201137542724609,0.4269069671630859
0.4201137542724609,0.4269069671630859
0.4217565536499023,0.4299104690551758
0.4169889450073242,0.4299104690551758
0.4141937255859375,0.4217845916748047
0.4141937255859375,0.4217845916748047
0.4205801010131836,0.4235658645629883
0.4205801010131836,0.4235658645629883
0.4146852493286133,0.4251497268676758
0.4146852493286133,0.4251497268676758
0.4163887023925781,0.4200490951538086
0.4163887023925781,0.4200490951538086
0.4200456619262695,0.4267559051513672
0.4200456619262695,0.4267559051513672
0.4136661529541015,0.4208078384399414
0.4136661529541015,0.4208078384399414
0.4208221435546875,0.4242244720458984
0.4208221435546875,0.4242244720458984
0.4153615951538086,0.4261613845825195
0.4153615951538086,0.4261613845825195
0.4172945022583008,0.4217336654663086
0.4172945022583008,0.4217336654663086
0.4203409194946289,0.4233020782470703
0.4192102432250976,0.4286722183227539
0.4192102432250976,0.4286722183227539
0.4159378051757812,0.4226263046264648
0.4159378051757812,0.4226263046264648
0.4232826232910156,0.4299980163574219
0.4232826232910156,0.4299980163574219
0.4163784027099609,0.4286813735961914
0.4163784027099609,0.4286813735961914
0.4231475830078125,0.4291728973388672
0.4231475830078125,0.4291728973388672
0.4225404739379883,0.4361171722412109
0.4225404739379883,0.4361171722412109
0.4202219009399414,0.4312374114990234
0.4202219009399414,0.4312374114990234
0.4278556823730469,0.4394353866577148
0.4278556823730469,0.4394353866577148
0.4211528778076172,0.4383848190307617
0.4211528778076172,0.4383848190307617
0.4276422500610351,0.4385101318359375
0.4276422500610351,0.4385101318359375
0.4268583297729492,0.4444679260253906
0.4268583297729492,0.4444679260253906
0.4238817214965820,0.4383241653442383
0.4238817214965820,0.4383241653442383
0.4309329986572266,0.4453731536865234
0.4309329986572266,0.4453731536865234
0.4234937667846679,0.4430585861206054
0.4234937667846679,0.4430585861206054
0.4297433853149414,0.4422924041748047
0.4297433853149414,0.4422924041748047
0.4285806655883789,0.4476230621337891
0.4285806655883789,0.4476230621337891
0.4253368377685547,0.4413070678710938
0.4253368377685547,0.4413070678710938
0.4322502136230469,0.4483011245727539
0.4322502136230469,0.4483011245727539
0.4250553131103516,0.4462783813476562
0.4250553131103516,0.4462783813476562
0.4315492630004883,0.4460271835327148
0.4315492630004883,0.4460271835327148
0.4304655075073242,0.4519254684448242
0.4304655075073242,0.4519254684448242
0.4275581359863281,0.4462812423706055
0.4275581359863281,0.4462812423706055
0.4349521636962890,0.4540008544921875
0.4349521636962890,0.4540008544921875
0.4279695510864258,0.4525365829467773
0.4279695510864258,0.4525365829467773
0.4346500396728515,0.4528707504272461
0.4346500396728515,0.4528707504272461
0.4337928771972656,0.4593652725219726
0.4337928771972656,0.4593652725219726
0.4311790466308594,0.4538629531860351
0.4357795715332031,0.4538629531860351
0.4384849548339844,0.4616889953613281
0.4384849548339844,0.4616889953613281
0.4315710067749023,0.4602830886840820
0.4315710067749023,0.4602830886840820
0.4381376266479492,0.4603231430053711
0.4381376266479492,0.4603231430053711
0.4372123718261718,0.4663564682006835
0.4372123718261718,0.4663564682006835
0.4343965530395508,0.4605222702026367
0.4343965530395508,0.4605222702026367
0.4414930343627930,0.4678310394287109
0.4414930343627930,0.4678310394287109
0.4342168807983398,0.4659742355346679
0.4342168807983398,0.4659742355346679
0.4407817840576172,0.4656623840332031
0.4407817840576172,0.4656623840332031
0.4397134780883789,0.4712768554687500
0.4397134780883789,0.4712768554687500
0.4364913940429687,0.4650381088256836
0.4364913940429687,0.4650381088256836
0.4434453964233399,0.4721134185791016
0.4434453964233399,0.4721134185791016
0.4362636566162109,0.4699436187744140
0.4362636566162109,0.4699436187744140
0.4425504684448242,0.4693811416625976
0.4425504684448242,0.4693811416625976
0.4412429809570312,0.4747295379638672
0.4412429809570312,0.4747295379638672
0.4378326416015625,0.4683036804199219
0.4378326416015625,0.4683036804199219
0.4449720382690430,0.4751787185668945
0.4449720382690430,0.4751787185668945
0.4376043319702148,0.4727096557617188
0.4376043319702148,0.4727096557617188
0.4438556671142578,0.4719938278198242
0.4438556671142578,0.4719938278198242
0.4423347473144531,0.4772111892700195
0.4423347473144531,0.4772111892700195
0.4391132354736328,0.4704568862915039
0.4391132354736328,0.4704568862915039
0.4457971572875977,0.4768163681030273
0.4457971572875977,0.4768163681030273
0.4379007339477539,0.4735290527343750
0.4379007339477539,0.4735290527343750
0.4431913375854492,0.4704906463623046
0.4369646072387695,0.4704906463623046
0.4402147293090820,0.4714937210083008
0.4402147293090820,0.4714937210083008
0.4340229034423828,0.4579725265502930
0.4340229034423828,0.4579725265502930
0.4368370056152344,0.4559383392333984
0.4368370056152344,0.4559383392333984
0.4251754760742187,0.4448181152343750
0.4251754760742187,0.4448181152343750
0.4272937774658203,0.4355758666992187
0.4272937774658203,0.4355758666992187
0.4222955703735352,0.4342878341674805
0.4222955703735352,0.4342878341674805
0.4166610717773437,0.4233844757080078
0.4166610717773437,0.4233844757080078
0.4220632553100586,0.4275043487548828
0.4220632553100586,0.4275043487548828
0.4137519836425781,0.4235361099243164
0.4137519836425781,0.4235361099243164
0.4195970535278320,0.4218446731567383
0.4195970535278320,0.4218446731567383
0.4179508209228516,0.4266323089599609
0.4179508209228516,0.4266323089599609
0.4145479202270508,0.4198556900024414
0.4145479202270508,0.4198556900024414
0.4215024948120117,0.4264657974243164
0.4215024948120117,0.4264657974243164
0.4140901565551758,0.4240814208984375
0.4140901565551758,0.4240814208984375
0.4202888488769531,0.4233066558837891
0.4202888488769531,0.4233066558837891
0.4188520431518555,0.4284748077392578
0.4188520431518555,0.4284748077392578
0.4157873153686523,0.4219064712524414
0.4157873153686523,0.4219064712524414
0.4226583480834961,0.4288238525390625
0.4226583480834961,0.4288238525390625
0.4154508590698242,0.4267993927001953
0.4154508590698242,0.4267993927001953
0.4217697143554687,0.4265768051147461
0.4217697143554687,0.4265768051147461
0.4210350036621094,0.4327875137329101
0.4210350036621094,0.4327875137329101
0.4184738159179687,0.4277069091796875
0.4184738159179687,0.4277069091796875
0.4262083053588867,0.4360754013061524
0.4262083053588867,0.4360754013061524
0.4194087982177734,0.4354196548461914
0.4194087982177734,0.4354196548461914
0.4266374588012695,0.4363300323486328
0.4266374588012695,0.4363300323486328
0.4260463714599609,0.4430128097534179
0.4260463714599609,0.4430128097534179
0.4233346939086914,0.4376781463623047
0.4233346939086914,0.4376781463623047
0.4306114196777344,0.4450836181640625
0.4306114196777344,0.4450836181640625
0.4235132217407226,0.4430665969848633
0.4235132217407226,0.4430665969848633
0.4298807144165039,0.4426231384277344
0.4298807144165039,0.4426231384277344
0.4286396026611328,0.4479057312011719
0.4286396026611328,0.4479057312011719
0.4251714706420898,0.4413442611694336
0.4251714706420898,0.4413442611694336
0.4322267532348633,0.4481346130371094
0.4322267532348633,0.4481346130371094
0.4247371673583984,0.4457410812377929
0.4247371673583984,0.4457410812377929
0.4311235427856445,0.4451625823974609
0.4311235427856445,0.4451625823974609
0.4297628402709961,0.4506454467773438
0.4297628402709961,0.4506454467773438
0.4268520355224609,0.4446081161499023
0.4268520355224609,0.4446081161499023
0.4339365005493164,0.4518573760986328
0.4339365005493164,0.4518573760986328
0.4267662048339844,0.4501688003540039
0.4267662048339844,0.4501688003540039
0.4333522796630859,0.4502048492431641
0.4333522796630859,0.4502048492431641
0.4325162887573242,0.4564504623413086
0.4325162887573242,0.4564504623413086
0.4298555374145508,0.4510288238525391
0.4298555374145508,0.4510288238525391
0.4370721817016601,0.4587507247924805
0.4370721817016601,0.4587507247924805
0.4300180435180664,0.4574066162109375
0.4300180435180664,0.4574066162109375
0.4368770599365234,0.4576898574829101
0.4368770599365234,0.4576898574829101
0.4359878540039062,0.4639188766479492
0.4359878540039062,0.4639188766479492
0.4333482742309570,0.4582923889160156
0.4333482742309570,0.4582923889160156
0.4403818130493164,0.4657436370849609
0.4403818130493164,0.4657436370849609
0.4333133697509766,0.4640968322753906
0.4333133697509766,0.4640968322753906
0.4398593902587891,0.4640104293823242
0.4398593902587891,0.4640104293823242
0.4388660430908203,0.4696849822998047
0.4418249130249023,0.4676027297973633
0.4428617477416992,0.4701456069946289
0.4428617477416992,0.4678310394287109
0.4386989593505859,0.4662775039672851
0.4380346298217773,0.4662775039672851
0.4426952362060547,0.4737304687500000
0.4426952362060547,0.4737304687500000
0.4364112854003906,0.4679094314575195
0.4364112854003906,0.4679094314575195
0.4436353683471679,0.4715623855590820
0.4436353683471679,0.4715623855590820
0.4383350372314453,0.4738986968994141
0.4383350372314453,0.4738986968994141
0.4403177261352539,0.4698137283325195
0.4403177261352539,0.4698137283325195
0.4442430496215820,0.4768495559692383
0.4442430496215820,0.4768495559692383
0.4379035949707031,0.4709432601928711
0.4379035949707031,0.4709432601928711
0.4450510025024414,0.4743267059326172
0.4450510025024414,0.4743267059326172
0.4395097732543945,0.4767065048217773
0.4395097732543945,0.4767065048217773
0.4415399551391602,0.4721220016479492
0.4415399551391602,0.4721220016479492
0.4452341079711914,0.4789672851562500
0.4452341079711914,0.4789672851562500
0.4387905120849609,0.4728361129760742
0.4387905120849609,0.4728361129760742
0.4456226348876953,0.4756771087646484
0.4456226348876953,0.4756771087646484
0.4394702911376953,0.4761823654174804
0.4394702911376953,0.4761823654174804
0.4401666641235352,0.4685966491699218
0.4401666641235352,0.4685966491699218
0.4416080474853515,0.4700700759887695
0.4416080474853515,0.4700700759887695
0.4316213607788086,0.4562192916870117
0.4316213607788086,0.4562192916870117
0.4349035263061523,0.4509395599365234
0.4349035263061523,0.4509395599365234
0.4252481460571289,0.4446739196777343
0.4252481460571289,0.4446739196777343
0.4235057830810547,0.4328029632568359
0.4235057830810547,0.4328029632568359
0.4242261886596679,0.4346242904663086
0.4242261886596679,0.4346242904663086
0.4159383773803711,0.4251754760742187
0.4159383773803711,0.4251754760742187
0.4219350814819336,0.4263725280761719
0.4219350814819336,0.4263725280761719
0.4158153533935547,0.4273733139038086
0.4158153533935547,0.4273733139038086
0.4174833297729492,0.4225988388061523
0.4174833297729492,0.4225988388061523
0.4211500167846680,0.4292901992797851
0.4211500167846680,0.4292901992797851
0.4147527694702148,0.4233518600463867
0.4147527694702148,0.4233518600463867
0.4221227645874023,0.4266769409179688
0.4221227645874023,0.4266769409179688
0.4166233062744141,0.4291128158569336
0.4166233062744141,0.4291128158569336
0.4188314437866211,0.4247165679931640
0.4188314437866211,0.4247165679931640
0.4227281570434570,0.4319566726684570
0.4227281570434570,0.4319566726684570
0.4165683746337890,0.4262695312500000
0.4165683746337890,0.4262695312500000
0.4237924575805664,0.4302789688110352
0.4237924575805664,0.4302789688110352
0.4185939788818359,0.4330175399780273
0.4185939788818359,0.4330175399780273
0.4211471557617187,0.4298171997070312
0.4211471557617187,0.4298171997070312
0.4257225036621093,0.4383144378662109
0.4257225036621093,0.4383144378662109
0.4201097488403320,0.4343296051025390
0.4201097488403320,0.4343296051025390
0.4281555175781250,0.4393850326538086
0.4281555175781250,0.4393850326538086
0.4234760284423828,0.4430803298950195
0.4234760284423828,0.4430803298950195
0.4263885498046875,0.4403160095214844
0.4263885498046875,0.4403160095214844
0.4307069778442383,0.4486192703247070
0.4307069778442383,0.4486192703247070
0.4247634887695312,0.4433166503906250
0.4247634887695312,0.4433166503906250
0.4322261810302734,0.4473215103149414
0.4322261810302734,0.4473215103149414
0.4268062591552734,0.4496515274047851
0.4268062591552734,0.4496515274047851
0.4289691925048828,0.4455860137939453
0.4289691925048828,0.4455860137939453
0.4327829360961914,0.4524644851684570
0.4327829360961914,0.4524644851684570
0.4263502120971679,0.4466068267822266
0.4263502120971679,0.4466068267822266
0.4336383819580078,0.4499931335449219
0.4336383819580078,0.4499931335449219
0.4279821395874023,0.4521446228027344
0.4279821395874023,0.4521446228027344
0.4301433563232422,0.4480390548706055
0.4301433563232422,0.4480390548706055
0.4340612411499024,0.4553867340087890
0.4340612411499024,0.4553867340087890
0.4279781341552734,0.4499959945678711
0.4279781341552734,0.4499959945678711
0.4353200912475586,0.4540437698364257
0.4353200912475586,0.4540437698364257
0.4301118850708008,0.4566947937011718
0.4301118850708008,0.4566947937011718
0.4325929641723633,0.4532941818237304
0.4325929641723633,0.4532941818237304
0.4368839263916016,0.4612855911254883
0.4368839263916016,0.4612855911254883
0.4308511734008789,0.4565574645996093
0.4308511734008789,0.4565574645996093
0.4385330200195313,0.4607191085815430
0.4385330200195313,0.4607191085815430
0.4332996368408203,0.4636613845825195
0.4332996368408203,0.4636613845825195
0.4359798431396484,0.4603672027587891
0.4359798431396484,0.4603672027587891
0.4400568008422852,0.4683900833129883
0.4400568008422852,0.4683900833129883
0.4340429306030273,0.4629180908203125
0.4340429306030273,0.4629180908203125
0.4415119171142578,0.4669143676757812
0.4415119171142578,0.4669143676757812
0.4362539291381836,0.4694938659667969
0.4362539291381836,0.4694938659667969
0.4384998321533203,0.4659376144409180
0.4384998321533203,0.4659376144409180
0.4424938201904297,0.4732183456420898
0.4424938201904297,0.4732183456420898
0.4361726760864258,0.4676015853881836
0.4361726760864258,0.4676015853881836
0.4435844421386719,0.4712585449218750
0.4435844421386719,0.4712585449218750
0.4380643844604492,0.4738100051879883
0.4380643844604492,0.4738100051879883
0.4403526306152344,0.4695007324218750
0.4403526306152344,0.4695007324218750
0.4440885543823242,0.4767499923706054
0.4440885543823242,0.4767499923706054
0.4379184722900391,0.4708648681640625
0.4379184722900391,0.4708648681640625
0.4450229644775390,0.4745275497436523
0.4450229644775390,0.4745275497436523
0.4394760131835938,0.4763511657714843
0.4394760131835938,0.4763511657714843
0.4415536880493164,0.4721889495849609
0.4415536880493164,0.4721889495849609
0.4454383850097656,0.4792665481567382
0.4454383850097656,0.4792665481567382
0.4389123916625977,0.4735330581665039
0.4389123916625977,0.4735330581665039
0.4461347579956055,0.4765972137451172
0.4461347579956055,0.4765972137451172
0.4404573440551758,0.4784477233886719
0.4404573440551758,0.4784477233886719
0.4424812316894531,0.4738271713256836
0.4424812316894531,0.4738271713256836
0.4458189010620117,0.4803405761718750
0.4458189010620117,0.4803405761718750
0.4387086868286132,0.4726318359375000
0.4387086868286132,0.4726318359375000
0.4444805145263672,0.4724613189697265
0.4444805145263672,0.4724613189697265
0.4365028381347656,0.4686618804931640
0.4365028381347656,0.4686618804931640
0.4349378585815429,0.4562639236450195
0.4349378585815429,0.4562639236450195
0.4346317291259765,0.4548334121704101
0.4346317291259765,0.4548334121704101
0.4243165969848633,0.4406438827514648
0.4243165969848633,0.4406438827514648
0.4276874542236328,0.4367162704467774
0.4276874542236328,0.4367162704467774
0.4191278457641601,0.4337190628051757
0.4191278457641601,0.4337190628051757
0.4195690155029297,0.4260686874389648
0.4195690155029297,0.4260686874389648
0.4221382141113281,0.4310977935791016
0.4221382141113281,0.4310977935791016
0.4152935028076172,0.4242061614990234
0.4152935028076172,0.4242061614990234
0.4221038818359375,0.4272840499877930
0.4221038818359375,0.4272840499877930
0.4165225982666015,0.4289308547973633
0.4165225982666015,0.4289308547973633
0.4187604904174805,0.4248018264770508
0.4187604904174805,0.4248018264770508
0.4226514816284180,0.4321163177490234
0.4226514816284180,0.4321163177490234
0.4164470672607422,0.4265916824340820
0.4164470672607422,0.4265916824340820
0.4237712860107422,0.4300449371337891
0.4237712860107422,0.4300449371337891
0.4182586669921875,0.4323280334472656
0.4182586669921875,0.4323280334472656
0.4206544876098633,0.4284988403320312
0.4206544876098633,0.4284988403320312
0.4246896743774414,0.4364736557006836
0.4246896743774414,0.4364736557006836
0.4188503265380859,0.4313695907592773
0.4269218444824219,0.4313695907592773
0.4266014099121094,0.4360982894897461
0.4266014099121094,0.4360982894897461
0.4218103408813477,0.4397415161132812
0.4218103408813477,0.4397415161132812
0.4249151229858398,0.4376392364501953
0.4249151229858398,0.4376392364501953
0.4294229507446289,0.4463001251220703
0.4294229507446289,0.4463001251220703
0.4239360809326172,0.4419879913330078
0.4239360809326172,0.4419879913330078
0.4319034576416015,0.4466955184936524
0.4319034576416015,0.4466955184936524
0.4267238616943359,0.4497035980224609
0.4267238616943359,0.4497035980224609
0.4292100906372070,0.4459842681884765
0.4292100906372070,0.4459842681884765
0.4330839157104492,0.4533628463745117
0.4330839157104492,0.4533628463745117
0.4269241333007812,0.4476305007934570
0.4269241333007812,0.4476305007934570
0.4340555191040039,0.4511867523193359
0.4340555191040039,0.4511867523193359
0.4284862518310547,0.4528942108154297
0.4284862518310547,0.4528942108154297
0.4306022644042969,0.4487594604492187
0.4306022644042969,0.4487594604492187
0.4343301773071289,0.4558147430419922
0.4343301773071289,0.4558147430419922
0.4280387878417969,0.4502202987670898
0.4280387878417969,0.4502202987670898
0.4352972030639649,0.4537021636962890
0.4352972030639649,0.4537021636962890
0.4298480987548828,0.4559177398681640
0.4298480987548828,0.4559177398681640
0.4323051452636719,0.4522876739501953
0.4323051452636719,0.4522876739501953
0.4362161636352539,0.4602138519287109
0.4362161636352539,0.4602138519287109
0.4302257537841797,0.4548402786254883
0.4302257537841797,0.4548402786254883
0.4377227783203125,0.4590105056762695
0.4377227783203125,0.4590105056762695
0.4326164245605469,0.4617605209350586
0.4326164245605469,0.4617605209350586
0.4351581573486328,0.4586568832397461
0.4351581573486328,0.4586568832397461
0.4391538619995117,0.4664543151855469
0.4391538619995117,0.4664543151855469
0.4332292556762695,0.4612924575805664
0.4332292556762695,0.4612924575805664
0.4407978057861328,0.4654895782470703
0.4407978057861328,0.4654895782470703
0.4355278015136719,0.4681640625000000
0.4355278015136719,0.4681640625000000
0.4379819869995117,0.4645151138305664
0.4379819869995117,0.4645151138305664
0.4417945861816406,0.4721179962158203
0.4417945861816406,0.4721179962158203
0.4358373641967773,0.4665470123291016
0.4358373641967773,0.4665470123291016
0.4431776046752929,0.4705936431884765
0.4431776046752929,0.4705936431884765
0.4375356674194336,0.4725631713867187
0.4375356674194336,0.4725631713867187
0.4399715423583984,0.4687128067016602
0.4399715423583984,0.4687128067016602
0.4437046051025391,0.4759328842163086
0.4437046051025391,0.4759328842163086
0.4375225067138672,0.4703922271728516
0.4375225067138672,0.4703922271728516
0.4447528839111328,0.4737796783447266
0.4447528839111328,0.4737796783447266
0.4391229629516601,0.4756319046020507
0.4391229629516601,0.4756319046020507
0.4414873123168945,0.4717191696166992
0.4414873123168945,0.4717191696166992
0.4449811935424804,0.4790479660034179
0.4449811935424804,0.4790479660034179
0.4388002395629882,0.4729688644409180
0.4388002395629882,0.4729688644409180
0.4459791183471680,0.4763242721557617
0.4459791183471680,0.4763242721557617
0.4402936935424804,0.4779155731201172
0.4402936935424804,0.4779155731201172
0.4424468994140625,0.4741378784179687
0.4424468994140625,0.4741378784179687
0.4459751129150391,0.4807720184326172
0.4459751129150391,0.4807720184326172
0.4394639968872070,0.4744142532348632
0.4394639968872070,0.4744142532348632
0.4462903976440429,0.4769210815429688
0.4398553848266601,0.4728418350219726
0.4397214889526367,0.4765377044677734
0.4445045471191406,0.4765377044677734
0.4401071548461914,0.4680358886718750
0.4401071548461914,0.4680358886718750
0.4406930923461914,0.4679597854614257
0.4406930923461914,0.4679597854614257
0.4303756713867187,0.4530355453491210
0.4359661102294922,0.4530355453491210
0.4333585739135742,0.4477151870727539
0.4333585739135742,0.4477151870727539
0.4232408523559570,0.4405717849731445
0.4232408523559570,0.4405717849731445
0.4216896057128906,0.4296346664428711
0.4216896057128906,0.4296346664428711
0.4228271484375000,0.4321929931640625
0.4228271484375000,0.4321929931640625
0.4149667739868164,0.4235486984252930
0.4149667739868164,0.4235486984252930
0.4211769104003906,0.4250947952270508
0.4211769104003906,0.4250947952270508
0.4150760650634766,0.4258432388305664
0.4150760650634766,0.4258432388305664
0.4169837951660156,0.4212009429931641
0.4169837951660156,0.4212009429931641
0.4203197479248047,0.4281057357788086
0.4203197479248047,0.4281057357788086
0.4140506744384765,0.4217502593994141
0.4140506744384765,0.4217502593994141
0.4211952209472656,0.4250701904296875
0.4211952209472656,0.4250701904296875
0.4155681610107422,0.4266197204589844
0.4155681610107422,0.4266197204589844
0.4177677154541016,0.4226280212402344
0.4177677154541016,0.4226280212402344
0.4212152481079102,0.4294160842895507
0.4212152481079102,0.4294160842895507
0.4149850845336914,0.4234079360961914
0.4149850845336914,0.4234079360961914
0.4222475051879883,0.4269767761230469
0.4222475051879883,0.4269767761230469
0.4167119979858399,0.4292552947998047
0.4167119979858399,0.4292552947998047
0.4193555831909180,0.4258701324462891
0.4193555831909180,0.4258701324462891
0.4233667373657227,0.4339107513427734
0.4233667373657227,0.4339107513427734
0.4178787231445312,0.4293508529663086
0.4178787231445312,0.4293508529663086
0.4257934570312500,0.4345653533935547
0.4257934570312500,0.4345653533935547
0.4208581924438476,0.4376438140869141
0.4208581924438476,0.4376438140869141
0.4238588333129883,0.4350122451782226
0.4238588333129883,0.4350122451782226
0.4280204772949219,0.4433561325073242
0.4280204772949219,0.4433561325073242
0.4221811294555664,0.4382537841796875
0.4221811294555664,0.4382537841796875
0.4297021865844726,0.4421195983886719
0.4297021865844726,0.4421195983886719
0.4241809844970703,0.4440942764282226
0.4241809844970703,0.4440942764282226
0.4266786575317383,0.4401901245117187
0.4266786575317383,0.4401901245117187
0.4300889968872070,0.4474817276000976
0.4300889968872070,0.4474817276000976
0.4239063262939453,0.4412733078002929
0.4239063262939453,0.4412733078002929
0.4311046600341797,0.4448461532592773
0.4311046600341797,0.4448461532592773
0.4254930496215820,0.4465524673461914
0.4254930496215820,0.4465524673461914
0.4279558181762695,0.4430242538452148
0.4279558181762695,0.4430242538452148
0.4316013336181641,0.4504411697387695
0.4278001785278320,0.4504411697387695
0.4255531311035156,0.4449714660644531
0.4255531311035156,0.4449714660644531
0.4331125259399414,0.4492349624633789
0.4331125259399414,0.4492349624633789
0.4277120590209961,0.4517555236816406
0.4277120590209961,0.4517555236816406
0.4304557800292969,0.4486083984375000
0.4304557800292969,0.4486083984375000
0.4344577789306641,0.4567028045654297
0.4344577789306641,0.4567028045654297
0.4287220001220703,0.4517349243164062
0.4287220001220703,0.4517349243164062
0.4364439010620117,0.4565031051635742
0.4364439010620117,0.4565031051635742
0.4311893463134766,0.4589824676513672
0.4311893463134766,0.4589824676513672
0.4339462280273437,0.4559852600097656
0.4339462280273437,0.4559852600097656
0.4378984451293945,0.4640636444091797
0.4378984451293945,0.4640636444091797
0.4320579528808594,0.4590402603149414
0.4320579528808594,0.4590402603149414
0.4396636962890625,0.4632585525512695
0.4396636962890625,0.4632585525512695
0.4343868255615234,0.4655536651611328
0.4343868255615234,0.4655536651611328
0.4370716094970703,0.4622915267944336
0.4370716094970703,0.4622915267944336
0.4407749176025391,0.4702806472778320
0.4407749176025391,0.4702806472778320
0.4348857879638672,0.4645231246948242
0.4348857879638672,0.4645231246948242
0.4421499252319336,0.4685205459594726
0.4421499252319336,0.4685205459594726
0.4367254257202148,0.4704980850219727
0.4367254257202148,0.4704980850219727
0.4392631530761719,0.4671524047851562
0.4380237579345703,0.4671524047851562
0.4428159713745117,0.4743432998657227
0.4428159713745117,0.4743432998657227
0.4367351531982422,0.4685308456420898
0.4367351531982422,0.4685308456420898
0.4440645217895507,0.4723308563232422
0.4440645217895507,0.4723308563232422
0.4383825302124023,0.4742179870605469
0.4383825302124023,0.4742179870605469
0.4407434463500977,0.4700860977172852
0.4407434463500977,0.4700860977172852
0.4441165924072266,0.4772438049316406
0.4441165924072266,0.4772438049316406
0.4380832672119140,0.4711338043212890
0.4380832672119140,0.4711338043212890
0.4450550079345703,0.4745613098144531
0.4450550079345703,0.4745613098144531
0.4389793395996094,0.4750659942626953
0.4389793395996094,0.4750659942626953
0.4405265808105469,0.4693119049072265
0.4405265808105469,0.4693119049072265
0.4421184539794922,0.4723960876464843
0.4421184539794922,0.4723960876464843
0.4333431243896484,0.4598922729492188
0.4333431243896484,0.4598922729492188
0.4364610671997070,0.4545564651489258
0.4364610671997070,0.4545564651489258
0.4265378952026367,0.4468116760253906
0.4265378952026367,0.4468116760253906
0.4243652343750000,0.4339056015014648
0.4243652343750000,0.4339056015014648
0.4238313674926757,0.4340801239013672
0.4238313674926757,0.4340801239013672
0.4151985168457031,0.4232568740844727
0.4151985168457031,0.4232568740844727
0.4206768035888672,0.4239870071411133
0.4206768035888672,0.4239870071411133
0.4139608383178711,0.4235578536987304
0.4139608383178711,0.4235578536987304
0.4157163619995117,0.4186105728149414
0.4157163619995117,0.4186105728149414
0.4187318801879883,0.4248395919799804
0.4187318801879883,0.4248395919799804
0.4123558044433593,0.4182970046997070
0.4123558044433593,0.4182970046997070
0.4194471359252930,0.4215688705444336
0.4194471359252930,0.4215688705444336
0.4136335372924805,0.4229793548583984
0.4136335372924805,0.4229793548583984
0.4158777236938476,0.4186752319335937
0.4158777236938476,0.4186752319335937
0.4192113876342773,0.4256240844726563
0.4192113876342773,0.4256240844726563
0.4130807876586914,0.4192600250244141
0.4130807876586914,0.4192600250244141
0.4200267791748047,0.4228420257568359
0.4200267791748047,0.4228420257568359
0.4143190383911133,0.4239498138427734
0.4143190383911133,0.4239498138427734
0.4166873931884765,0.4201040267944336
0.4166873931884765,0.4201040267944336
0.4202705383300781,0.4277767181396484
0.4202705383300781,0.4277767181396484
0.4143991470336914,0.4225347518920898
0.4143991470336914,0.4225347518920898
0.4220649719238281,0.4271810531616211
0.4220649719238281,0.4271810531616211
0.4170816421508789,0.4297937393188476
0.4170816421508789,0.4297937393188476
0.4201406478881836,0.4273733139038086
0.4201406478881836,0.4273733139038086
0.4242610931396484,0.4361766815185547
0.4242610931396484,0.4361766815185547
0.4187862396240234,0.4309913635253906
0.4187862396240234,0.4309913635253906
0.4263622283935547,0.4356393814086914
0.4263622283935547,0.4356393814086914
0.4210676193237304,0.4376077651977539
0.4210676193237304,0.4376077651977539
0.4236831665039062,0.4342351913452148
0.4236831665039062,0.4342351913452148
0.4270614624023437,0.4413276672363281
0.4270614624023437,0.4413276672363281
0.4210086822509765,0.4351181030273437
0.4210086822509765,0.4351181030273437
0.4281194686889648,0.4387132644653320
0.4281194686889648,0.4387132644653320
0.4223196029663086,0.4401317596435547
0.4223196029663086,0.4401317596435547
0.4247577667236328,0.4361406326293945
0.4247577667236328,0.4361406326293945
0.4280651092529297,0.4434162139892578
0.4280651092529297,0.4434162139892578
0.4222320556640625,0.4375865936279297
0.4222320556640625,0.4375865936279297
0.4294704437255859,0.4419576644897461
0.4294704437255859,0.4419576644897461
0.4240207672119141,0.4437578201293945
0.4240207672119141,0.4437578201293945
0.4268011093139648,0.4407354354858398
0.4268011093139648,0.4407354354858398
0.4305055618286133,0.4487543106079102
0.4305055618286133,0.4487543106079102
0.4247085571289063,0.4437166213989258
0.4247085571289063,0.4437166213989258
0.4324642181396484,0.4483491897583008
0.4324642181396484,0.4483491897583008
0.4271432876586914,0.4506174087524414
0.4271432876586914,0.4506174087524414
0.4302680969238281,0.4479063034057617
0.4302680969238281,0.4479063034057617
0.4340366363525390,0.4563268661499023
0.4340366363525390,0.4563268661499023
0.4285068511962891,0.4510047912597656
0.4285068511962891,0.4510047912597656
0.4359495162963867,0.4557489395141601
0.4359495162963867,0.4557489395141601
0.4307373046875000,0.4580234527587890
0.4307373046875000,0.4580234527587890
0.4335840225219726,0.4552190780639648
0.4335840225219726,0.4552190780639648
0.4373159408569336,0.4630125045776367
0.4373159408569336,0.4630125045776367
0.4316007614135742,0.4573722839355469
0.4316007614135742,0.4573722839355469
0.4390748977661132,0.4622491836547851
0.4390748977661132,0.4622491836547851
0.4336503982543945,0.4643503189086914
0.4336503982543945,0.4643503189086914
0.4365194320678711,0.4610240936279297
0.4365194320678711,0.4610240936279297
0.4399875640869140,0.4687065124511718
0.4399875640869140,0.4687065124511718
0.4342346191406250,0.4629381179809570
0.4342346191406250,0.4629381179809570
0.4414541244506836,0.4674797058105469
0.4414541244506836,0.4674797058105469
0.4358665466308594,0.4688735961914062
0.4358665466308594,0.4688735961914062
0.4384752273559570,0.4652709960937500
0.4384752273559570,0.4652709960937500
0.4419284820556640,0.4726764678955078
0.4419284820556640,0.4726764678955078
0.4359958648681641,0.4668731689453125
0.4359958648681641,0.4668731689453125
0.4430700302124023,0.4706628799438476
0.4430700302124023,0.4706628799438476
0.4372398376464844,0.4716058731079101
0.4372398376464844,0.4716058731079101
0.4396339416503906,0.4674545288085937
0.4396339416503906,0.4674545288085937
0.4422540664672852,0.4734901428222656
0.4422540664672852,0.4734901428222656
0.4351358413696289,0.4641912460327148
0.4351358413696289,0.4641912460327148
0.4398799896240234,0.4627910614013672
0.4398799896240234,0.4627910614013672
0.4306245803833008,0.4557826995849609
0.4306245803833008,0.4557826995849609
0.4289669036865234,0.4432313919067383
0.4289669036865234,0.4432313919067383
0.4275180816650391,0.4406496047973633
0.4275180816650391,0.4406496047973633
0.4170003890991211,0.4263736724853516
0.4170003890991211,0.4263736724853516
0.4210922241210938,0.4249763488769531
0.4210922241210938,0.4249763488769531
0.4135465621948242,0.4229003906250000
0.4135465621948242,0.4229003906250000
0.4149793624877929,0.4167669296264648
0.4149793624877929,0.4167669296264648
0.4173952102661133,0.4224998474121094
0.4173952102661133,0.4224998474121094
0.4110494613647461,0.4153284072875976
0.4110494613647461,0.4153284072875976
0.4177310943603516,0.4188697814941406
0.4177310943603516,0.4188697814941406
0.4117721557617187,0.4192960739135742
0.4117721557617187,0.4192960739135742
0.4142761230468750,0.4150955200195313
0.4142761230468750,0.4150955200195313
0.4172475814819336,0.4219963073730469
0.4172475814819336,0.4219963073730469
0.4112422943115234,0.4156173706054687
0.4112422943115234,0.4156173706054687
0.4101018905639648,0.4191764831542968
0.4119163513183594,0.4151464462280273
0.4119163513183594,0.4142795562744140
0.4182220458984375,0.4207981109619141
0.4113309860229492,0.4207981109619141
0.4107284545898438,0.4174907684326172
0.4107284545898438,0.4174907684326172
0.4172470092773438,0.4177316665649414
0.4172470092773438,0.4177316665649414
0.4152563095092773,0.4225696563720703
0.4152563095092773,0.4225696563720703
0.4131259918212891,0.4166416168212890
0.4131259918212891,0.4166416168212890
0.4198699951171875,0.4243526458740234
0.4198699951171875,0.4243526458740234
0.4130699157714844,0.4221765518188477
0.4130699157714844,0.4221765518188477
0.4199998855590820,0.4237037658691406
0.4145816802978515,0.4237037658691406
0.4185688018798828,0.4293622970581055
0.4199632644653320,0.4293622970581055
0.4167423248291016,0.4238113403320312
0.4167423248291016,0.4238113403320312
0.4234376907348633,0.4314353942871094
0.4234376907348633,0.4314353942871094
0.4162250518798828,0.4286081314086914
0.4162250518798828,0.4286081314086914
0.4229478836059570,0.4292306900024414
0.4229478836059570,0.4292306900024414
0.4208965301513672,0.4337848663330078
0.4208965301513672,0.4337848663330078
0.4185092926025391,0.4271146774291992
0.4185092926025391,0.4271146774291992
0.4246135711669922,0.4337007522583008
0.4246135711669922,0.4337007522583008
0.4172521591186523,0.4302892684936523
0.4260057449340820,0.4302892684936523
0.4236688613891602,0.4306428909301758
0.4179880142211914,0.4306428909301758
0.4215894699096679,0.4352394104003906
0.4215894699096679,0.4352394104003906
0.4192537307739257,0.4289840698242187
0.4192537307739257,0.4289840698242187
0.4257808685302734,0.4363443374633789
0.4257808685302734,0.4363443374633789
0.4187656402587890,0.4336275100708007
0.4187656402587890,0.4336275100708007
0.4257247924804687,0.4350025177001953
0.4257247924804687,0.4350025177001953
0.4239789962768555,0.4405145645141602
0.4239789962768555,0.4405145645141602
0.4222463607788086,0.4351055145263672
0.4222463607788086,0.4351055145263672
0.4289674758911133,0.4432062149047851
0.4289674758911133,0.4432062149047851
0.4223207473754882,0.4410209655761719
0.4223207473754882,0.4410209655761719
0.4292850494384766,0.4428588867187500
0.4292850494384766,0.4428588867187500
0.4277875900268555,0.4484458923339844
0.4277875900268555,0.4484458923339844
0.4260154724121094,0.4430694580078125
0.4260154724121094,0.4430694580078125
0.4327188491821289,0.4510007858276367
0.4327188491821289,0.4510007858276367
0.4258850097656250,0.4485260009765625
0.4258850097656250,0.4485260009765625
0.4328578948974609,0.4501253128051758
0.4328578948974609,0.4501253128051758
0.4313123703002930,0.4556373596191406
0.4313123703002930,0.4556373596191406
0.4293016433715820,0.4500217437744141
0.4331130981445312,0.4500217437744141
0.4358739852905273,0.4577877044677734
0.4358739852905273,0.4577877044677734
0.4290842056274414,0.4551000595092773
0.4290842056274414,0.4551000595092773
0.4359661102294922,0.4565649032592773
0.4359661102294922,0.4565649032592773
0.4341665267944336,0.4618200302124023
0.4341665267944336,0.4618200302124023
0.4321340560913086,0.4558897018432617
0.4321340560913086,0.4558897018432617
0.4386062622070312,0.4633918762207031
0.4386062622070312,0.4633918762207031
0.4317037582397461,0.4605165481567383
0.4317037582397461,0.4605165481567383
0.4383579254150390,0.4616746902465820
0.4383579254150390,0.4616746902465820
0.4362127304077149,0.4665447235107422
0.4362127304077149,0.4665447235107422
0.4342958450317383,0.4604238510131836
0.4342958450317383,0.4604238510131836
0.4405998229980468,0.4674934387207031
0.4405998229980468,0.4674934387207031
0.4334129333496093,0.4641254425048828
0.4334129333496093,0.4641254425048828
0.4396802902221680,0.4645591735839844
0.4396802902221680,0.4645591735839844
0.4373245239257812,0.4682733535766601
0.4373245239257812,0.4682733535766601
0.4342689514160156,0.4598550796508789
0.4342689514160156,0.4598550796508789
0.4387779235839844,0.4628545761108398
0.4387779235839844,0.4628545761108398
0.4286882400512695,0.4526378631591796
0.4286882400512695,0.4526378631591796
0.4315607070922852,0.4452478408813477
0.4315607070922852,0.4452478408813477
0.4248991012573242,0.4403629302978516
0.4248991012573242,0.4403629302978516
0.4181613922119141,0.4253688812255859
0.4181613922119141,0.4253688812255859
0.4207969665527344,0.4260852813720703
0.4207969665527344,0.4260852813720703
0.4114568710327148,0.4184474945068359
0.4114568710327148,0.4184474945068359
0.4165260314941406,0.4165266036987305
0.4165260314941406,0.4165266036987305
0.4133485794067382,0.4193309783935547
0.4133485794067382,0.4193309783935547
0.4104600906372070,0.4117738723754883
0.4104600906372070,0.4117738723754883
0.4162736892700195,0.4179742813110351
0.4162736892700195,0.4179742813110351
0.4089151382446289,0.4137537002563477
0.4089151382446289,0.4137537002563477
0.4151481628417968,0.4141839981079101
0.4151481628417968,0.4141839981079101
0.4127861022949219,0.4182512283325195
0.4127861022949219,0.4182512283325195
0.4105682373046875,0.4115535736083984
0.4105682373046875,0.4115535736083984
0.4165431976318359,0.4180881500244141
0.4165431976318359,0.4180881500244141
0.4092458724975586,0.4140541076660156
0.4092458724975586,0.4140541076660156
0.4154485702514648,0.4146303176879882
0.4096063613891601,0.4146303176879882
0.4131814956665039,0.4188056945800781
0.4131814956665039,0.4188056945800781
0.4110008239746094,0.4123420715332031
0.4110008239746094,0.4123420715332031
0.4171749114990234,0.4195821762084961
0.4171749114990234,0.4195821762084961
0.4102106094360352,0.4162353515625000
0.4102106094360352,0.4162353515625000
0.4171760559082031,0.4179576873779297
0.4171760559082031,0.4179576873779297
0.4153741836547851,0.4233587265014648
0.4153741836547851,0.4233587265014648
0.4137411117553711,0.4180973052978516
0.4137411117553711,0.4180973052978516
0.4202888488769531,0.4259920120239258
0.4202888488769531,0.4259920120239258
0.4137577056884765,0.4232242584228516
0.4137577056884765,0.4232242584228516
0.4206155776977539,0.4247840881347656
0.4206155776977539,0.4247840881347656
0.4185287475585938,0.4296907424926757
0.4185287475585938,0.4296907424926757
0.4164802551269531,0.4234067916870117
0.4164802551269531,0.4234067916870117
0.4226177215576172,0.4303447723388672
0.4226177215576172,0.4303447723388672
0.4154354095458984,0.4263565063476563
0.4154354095458984,0.4263565063476563
0.4218177795410156,0.4270854949951172
0.4218177795410156,0.4270854949951172
0.4192731857299805,0.4313541412353515
0.4192731857299805,0.4313541412353515
0.4173013687133789,0.4248744964599609
0.4173013687133789,0.4248744964599609
0.4232608795166016,0.4317873001098633
0.4232608795166016,0.4317873001098633
0.4164001464843750,0.4280782699584961
0.4164001464843750,0.4280782699584961
0.4228460311889649,0.4295705795288086
0.4228460311889649,0.4295705795288086
0.4209148406982422,0.4345436096191406
0.4209148406982422,0.4345436096191406
0.4192245483398437,0.4289165496826172
0.4192245483398437,0.4289165496826172
0.4255994796752929,0.4369176864624023
0.4255994796752929,0.4369176864624023
0.4190351486206055,0.4340520858764648
0.4190351486206055,0.4340520858764648
0.4261522293090820,0.4362756729125977
0.4261522293090820,0.4362756729125977
0.4243675231933594,0.4419353485107422
0.4243675231933594,0.4419353485107422
0.4229530334472656,0.4367317199707031
0.4229530334472656,0.4367317199707031
0.4293548583984375,0.4448192596435547
0.4293548583984375,0.4448192596435547
0.4229919433593750,0.4419725418090820
0.4229919433593750,0.4419725418090820
0.4298624038696289,0.4440668106079101
0.4298624038696289,0.4440668106079101
0.4280702590942383,0.4495262145996093
0.4280702590942383,0.4495262145996093
0.4263782501220703,0.4441886901855469
0.4263782501220703,0.4441886901855469
0.4328567504882813,0.4520387649536133
0.4328567504882813,0.4520387649536133
0.4262443542480469,0.4488927841186524
0.4262443542480469,0.4488927841186524
0.4331708908081054,0.4508211135864257
0.4331708908081054,0.4508211135864257
0.4309793472290039,0.4560276031494140
0.4309793472290039,0.4560276031494140
0.4295522689819336,0.4505201339721679
0.4295522689819336,0.4505201339721679
0.4357240676879883,0.4582952499389648
0.4357240676879883,0.4582952499389648
0.4290716171264649,0.4549381256103515
0.4290716171264649,0.4549381256103515
0.4357160568237304,0.4567657470703125
0.4357160568237304,0.4567657470703125
0.4338317871093750,0.4618017196655273
0.4338317871093750,0.4618017196655273
0.4321386337280274,0.4559692382812500
0.4321386337280274,0.4559692382812500
0.4383001327514648,0.4634445190429687
0.4313684463500976,0.4597921371459961
0.4380941390991211,0.4613777160644531
0.4380941390991211,0.4613777160644531
0.4358659744262695,0.4661275863647460
0.4358659744262695,0.4661275863647460
0.4340314865112305,0.4600725173950195
0.4340314865112305,0.4600725173950195
0.4398857116699219,0.4670402526855468
0.4398857116699219,0.4670402526855468
0.4329809188842773,0.4625473022460938
0.4329809188842773,0.4625473022460938
0.4388483047485351,0.4626588821411133
0.4388483047485351,0.4626588821411133
0.4354190826416016,0.4645076751708984
0.4354190826416016,0.4645076751708984
0.4313713073730469,0.4534166336059570
0.4313713073730469,0.4534166336059570
0.4340091705322265,0.4530235290527344
0.4340091705322265,0.4530235290527344
0.4232746124267578,0.4402193069458007
0.4232746124267578,0.4402193069458007
0.4250638961791992,0.4322296142578125
0.4250638961791992,0.4322296142578125
0.4183914184570313,0.4289268493652343
0.4183914184570313,0.4289268493652343
0.4137039184570312,0.4174192428588867
0.4137039184570312,0.4174192428588867
0.4176630020141601,0.4209297180175781
0.4176630020141601,0.4209297180175781
0.4096235275268554,0.4144947052001953
0.4096235275268554,0.4144947052001953
0.4151006698608398,0.4142995834350586
0.4151006698608398,0.4142995834350586
0.4122940063476562,0.4177047729492188
0.4122940063476562,0.4177047729492188
0.4101413726806640,0.4108657836914062
0.4101413726806640,0.4108657836914062
0.4157238006591797,0.4174661636352539
0.4157238006591797,0.4174661636352539
0.4086439132690430,0.4127775192260742
0.4086439132690430,0.4127775192260742
0.4150102615356445,0.4137851715087891
0.4150102615356445,0.4137851715087891
0.4124467849731445,0.4178169250488281
0.4124467849731445,0.4178169250488281
0.4104200363159179,0.4112165451049805
0.4104200363159179,0.4112165451049805
0.4159315109252930,0.4178775787353515
0.4159315109252930,0.4178775787353515
0.4090702056884766,0.4132810592651367
0.4090702056884766,0.4132810592651367
0.4154108047485351,0.4144763946533203
0.4154108047485351,0.4144763946533203
0.4130224227905273,0.4189104080200195
0.4130224227905273,0.4189104080200195
0.4111982345581054,0.4130310058593750
0.4111982345581054,0.4130310058593750
0.4173889160156250,0.4207426071166992
0.4173889160156250,0.4207426071166992
0.4110260009765625,0.4174203872680664
0.4110260009765625,0.4174203872680664
0.4179508209228516,0.4199947357177734
0.4179508209228516,0.4199947357177734
0.4160591125488281,0.4255628585815430
0.4160591125488281,0.4255628585815430
0.4149106979370117,0.4203729629516602
0.4149106979370117,0.4203729629516602
0.4211454391479492,0.4284107208251953
0.4211454391479492,0.4284107208251953
0.4146532058715820,0.4246707916259765
0.4146532058715820,0.4246707916259765
0.4212358474731445,0.4264932632446289
0.4212358474731445,0.4264932632446289
0.4189556121826172,0.4309335708618164
0.4189556121826172,0.4309335708618164
0.4170581817626953,0.4295974731445312
0.4170581817626953,0.4295974731445312
0.4198917388916015,0.4257276535034180
0.4198917388916015,0.4257276535034180
0.4222675323486328,0.4327920913696289
0.4222675323486328,0.4327920913696289
0.4170021057128906,0.4259027481079101
0.4170021057128906,0.4259027481079101
0.4237987518310547,0.4316076278686523
0.4237987518310547,0.4316076278686523
0.4179388046264648,0.4313163757324219
0.4179388046264648,0.4313163757324219
0.4209651947021484,0.4282854080200195
0.4209651947021484,0.4282854080200195
0.4238033294677734,0.4360857009887695
0.4238033294677734,0.4360857009887695
0.4190088272094726,0.4303527832031250
0.4190088272094726,0.4303527832031250
0.4260486602783203,0.4366544723510742
0.4260486602783203,0.4366544723510742
0.4207546234130859,0.4373914718627930
0.4207546234130859,0.4373914718627930
0.4233461380004883,0.4349905014038086
0.4233461380004883,0.4349905014038086
0.4274454116821289,0.4434808731079101
0.4254570007324219,0.4434808731079101
0.4223922729492187,0.4384935379028320
0.4223922729492187,0.4384935379028320
0.4296117782592773,0.4439924240112305
0.4296117782592773,0.4439924240112305
0.4252967834472656,0.4461656570434570
0.4252967834472656,0.4461656570434570
0.4275089263916015,0.4433103561401367
0.4275089263916015,0.4433103561401367
0.4313043594360351,0.4513463973999023
0.4313043594360351,0.4513463973999023
0.4262134552001953,0.4461942672729492
0.4262134552001953,0.4461942672729492
0.4331640243530273,0.4515323638916016
0.4331640243530273,0.4515323638916016
0.4286293029785156,0.4534383773803711
0.4286293029785156,0.4534383773803711
0.4307207107543945,0.4499874114990234
0.4307207107543945,0.4499874114990234
0.4344652175903320,0.4580183029174805
0.4344652175903320,0.4580183029174805
0.4292987823486328,0.4525760650634765
0.4292987823486328,0.4525760650634765
0.4360748291015625,0.4578729629516601
0.4360748291015625,0.4578729629516601
0.4315429687500000,0.4594367980957031
0.4315429687500000,0.4594367980957031
0.4335611343383789,0.4559984207153320
0.4335611343383789,0.4559984207153320
0.4371826171875000,0.4637277603149414
0.4371826171875000,0.4637277603149414
0.4318828582763672,0.4582780838012695
0.4318828582763672,0.4582780838012695
0.4385953903198242,0.4630874633789062
0.4385953903198242,0.4630874633789062
0.4340131759643555,0.4643903732299804
0.4340131759643555,0.4643903732299804
0.4358705520629882,0.4607814788818359
0.4358705520629882,0.4607814788818359
0.4392333984375000,0.4683517456054687
0.4392333984375000,0.4683517456054687
0.4339513778686523,0.4621639251708984
0.4339513778686523,0.4621639251708984
0.4404253005981445,0.4669904708862305
0.4404253005981445,0.4669904708862305
0.4356754302978516,0.4679203033447266
0.4356754302978516,0.4679203033447266
0.4373920440673828,0.4639537811279297
0.4373920440673828,0.4639537811279297
0.4403623580932617,0.4703023910522461
0.4403623580932617,0.4703023910522461
0.4343484878540039,0.4626502990722656
0.4389822006225586,0.4626502990722656
0.4395698547363281,0.4642902374267578
0.4395698547363281,0.4642902374267578
0.4324293136596680,0.4598934173583984
0.4324293136596680,0.4598934173583984
0.4305461883544922,0.4478525161743164
0.4305461883544922,0.4478525161743164
0.4296787261962891,0.4462875366210937
0.4296787261962891,0.4462875366210937
0.4200782775878906,0.4311681747436523
0.4200782775878906,0.4311681747436523
0.4224346160888672,0.4284164428710938
0.4224346160888672,0.4284164428710938
0.4147521972656250,0.4238988876342774
0.4147521972656250,0.4238988876342774
0.4146841049194336,0.4166015625000000
0.4146841049194336,0.4166015625000000
0.4167572021484375,0.4215196609497070
0.4167572021484375,0.4215196609497070
0.4105934143066406,0.4140089035034180
0.4105934143066406,0.4140089035034180
0.4165517807006836,0.4176984786987304
0.4165517807006836,0.4176984786987304
0.4113807678222656,0.4178043365478515
0.4113807678222656,0.4178043365478515
0.4130104064941406,0.4134521484375000
0.4130104064941406,0.4134521484375000
0.4160287857055664,0.4203477859497070
0.4160287857055664,0.4203477859497070
0.4105974197387695,0.4136421203613281
0.4105974197387695,0.4136421203613281
0.4169042587280273,0.4180601119995117
0.4169042587280273,0.4180601119995117
0.4119449615478515,0.4183771133422852
0.4119449615478515,0.4183771133422852
0.4135740280151367,0.4143579483032226
0.4135740280151367,0.4143579483032226
0.4164934158325195,0.4211568832397461
0.4164934158325195,0.4211568832397461
0.4112005233764648,0.4149164199829101
0.4112005233764648,0.4149164199829101
0.4178678512573242,0.4200536727905274
0.4178678512573242,0.4200536727905274
0.4132026672363281,0.4214578628540039
0.4132026672363281,0.4214578628540039
0.4156024932861328,0.4184915542602539
0.4156024932861328,0.4184915542602539
0.4192022323608398,0.4268812179565429
0.4192022323608398,0.4268812179565429
0.4146263122558594,0.4219367980957031
0.4146263122558594,0.4219367980957031
0.4217542648315429,0.4282756805419922
0.4217542648315429,0.4282756805419922
0.4175085067749023,0.4298841476440430
0.4230852127075195,0.4298841476440430
0.4197395324707031,0.4269773483276367
0.4197395324707031,0.4269773483276367
0.4232168197631836,0.4346580505371094
0.4232168197631836,0.4346580505371094
0.4181259155273437,0.4287712097167969
0.4181259155273437,0.4287712097167969
0.4247577667236328,0.4335571289062500
0.4247577667236328,0.4335571289062500
0.4197669982910156,0.4341882705688476
0.4197669982910156,0.4341882705688476
0.4215219497680664,0.4301216125488281
0.4215219497680664,0.4301216125488281
0.4245271682739258,0.4371969223022461
0.4245271682739258,0.4371969223022461
0.4192085266113281,0.4307075500488281
0.4192085266113281,0.4307075500488281
0.4256961822509766,0.4356885910034179
0.4256961822509766,0.4356885910034179
0.4209091186523438,0.4364072799682617
0.4209091186523438,0.4364072799682617
0.4229278564453125,0.4333070755004882
0.4229278564453125,0.4333070755004882
0.4262214660644531,0.4407772064208984
0.4262214660644531,0.4407772064208984
0.4213050842285156,0.4352926254272461
0.4213050842285156,0.4352926254272461
0.4283454895019531,0.4410707473754883
0.4283454895019531,0.4410707473754883
0.4237495422363281,0.4427467346191406
0.4237495422363281,0.4427467346191406
0.4261951446533203,0.4399852752685547
0.4261951446533203,0.4399852752685547
0.4295402526855469,0.4482479095458984
0.4295402526855469,0.4482479095458984
0.4250633239746094,0.4431655883789062
0.4250633239746094,0.4431655883789062
0.4322078704833984,0.4495244979858398
0.4322078704833984,0.4495244979858398
0.4278316497802734,0.4511283874511718
0.4278316497802734,0.4511283874511718
0.4302600860595703,0.4485551834106445
0.4302600860595703,0.4485551834106445
0.4337276458740234,0.4566633224487304
0.4337276458740234,0.4566633224487304
0.4290664672851562,0.4516021728515625
0.4290664672851562,0.4516021728515625
0.4359872817993164,0.4573677062988281
0.4359872817993164,0.4573677062988281
0.4313655853271484,0.4586339950561523
0.4313655853271484,0.4586339950561523
0.4337877273559570,0.4557884216308594
0.4337877273559570,0.4557884216308594
0.4369119644165039,0.4637603759765625
0.4369119644165039,0.4637603759765625
0.4321426391601562,0.4577974319458007
0.4321426391601562,0.4577974319458007
0.4388957977294922,0.4633890151977539
0.4388957977294922,0.4633890151977539
0.4342100143432617,0.4643520355224609
0.4342100143432617,0.4643520355224609
0.4362573623657227,0.4612089157104492
0.4362573623657227,0.4612089157104492
0.4392528533935547,0.4682933807373046
0.4392528533935547,0.4682933807373046
0.4341894149780273,0.4621662139892578
0.4341894149780273,0.4621662139892578
0.4410284042358398,0.4673704147338867
0.4410284042358398,0.4673704147338867
0.4359380722045899,0.4681612014770508
0.4359380722045899,0.4681612014770508
0.4379779815673828,0.4644653320312500
0.4379779815673828,0.4644653320312500
0.4407697677612304,0.4714691162109375
0.4407697677612304,0.4714691162109375
0.4356456756591797,0.4651514053344726
0.4356456756591797,0.4651514053344726
0.4422140121459961,0.4702915191650390
0.4422140121459961,0.4702915191650390
0.4370876312255859,0.4702789306640625
0.4370876312255859,0.4702789306640625
0.4387928009033203,0.4662694931030273
0.4387928009033203,0.4662694931030273
0.4412893295288086,0.4723703384399414
0.4412893295288086,0.4723703384399414
0.4353286743164063,0.4639726638793945
0.4353286743164063,0.4639726638793945
0.4401008605957031,0.4646169662475585
0.4401008605957031,0.4646169662475585
0.4319881439208984,0.4580783843994141
0.4319881439208984,0.4580783843994141
0.4299087524414062,0.4455694198608398
0.4299087524414062,0.4455694198608398
0.4282768249511719,0.4436079025268554
0.4282768249511719,0.4436079025268554
0.4188097000122070,0.4281847000122070
0.4188097000122070,0.4281847000122070
0.4216655731201172,0.4264429092407226
0.4216655731201172,0.4264429092407226
0.4139877319335937,0.4221920013427734
0.4139877319335937,0.4221920013427734
0.4143384933471679,0.4158691406250000
0.4143384933471679,0.4158691406250000
0.4160367965698242,0.4207626342773437
0.4160367965698242,0.4207626342773437
0.4103170394897461,0.4130453109741211
0.4103170394897461,0.4130453109741211
0.4165981292724609,0.4172304153442383
0.4165981292724609,0.4172304153442383
0.4109739303588867,0.4170209884643555
0.4109739303588867,0.4170209884643555
0.4128267288208008,0.4128204345703125
0.4128267288208008,0.4128204345703125
0.4153621673583984,0.4194179534912109
0.4153621673583984,0.4194179534912109
0.4101974487304688,0.4122625350952148
0.4101974487304688,0.4122625350952148
0.4167188644409179,0.4175554275512695
0.4167188644409179,0.4175554275512695
0.4109722137451172,0.4165609359741211
0.4109722137451172,0.4165609359741211
0.4133079528808594,0.4127958297729492
0.4133079528808594,0.4127958297729492
0.4153839111328125,0.4200634002685547
0.4153839111328125,0.4200634002685547
0.4105487823486328,0.4129932403564453
0.4105487823486328,0.4129932403564453
0.4178152084350586,0.4195953369140625
0.4178152084350586,0.4195953369140625
0.4119375228881836,0.4191329956054687
0.4119375228881836,0.4191329956054687
0.4155715942382812,0.4172109603881836
0.4155715942382812,0.4172109603881836
0.4178134918212891,0.4253969192504883
0.4178134918212891,0.4253969192504883
0.4139619827270508,0.4191919326782226
0.4139619827270508,0.4191919326782226
0.4214212417602539,0.4266586303710938
0.4214212417602539,0.4266586303710938
0.4157272338867187,0.4264131546020508
0.4157272338867187,0.4264131546020508
0.4191667556762695,0.4242639541625977
0.4191667556762695,0.4242639541625977
0.4210155487060547,0.4314250946044922
0.4210155487060547,0.4314250946044922
0.4166570663452148,0.4242719650268554
0.4166570663452148,0.4242719650268554
0.4236682891845703,0.4309329986572266
0.4236682891845703,0.4309329986572266
0.4174558639526367,0.4298595428466797
0.4174558639526367,0.4298595428466797
0.4205898284912109,0.4268909454345703
0.4205898284912109,0.4268909454345703
0.4222360610961914,0.4338701248168945
0.4222360610961914,0.4338701248168945
0.4179330825805664,0.4268857955932617
0.4179330825805664,0.4268857955932617
0.4250970840454101,0.4339719772338867
0.4250970840454101,0.4339719772338867
0.4191078186035156,0.4331285476684570
0.4191078186035156,0.4331285476684570
0.4225090026855469,0.4311246871948242
0.4225090026855469,0.4311246871948242
0.4246004104614258,0.4391206741333007
0.4246004104614258,0.4391206741333007
0.4207225799560547,0.4331136703491211
0.4207225799560547,0.4331136703491211
0.4230445861816406,0.4358665466308594
0.4254346847534179,0.4358665466308594
0.4285062789916992,0.4446315765380859
0.4232122421264649,0.4446315765380859
0.4224082946777344,0.4406736373901367
0.4224082946777344,0.4406736373901367
0.4294544219970703,0.4443500518798828
0.4294544219970703,0.4443500518798828
0.4273075103759765,0.4494815826416015
0.4273075103759765,0.4494815826416015
0.4273893356323242,0.4447837829589844
0.4273893356323242,0.4447837829589844
0.4326404571533203,0.4532999038696289
0.4326404571533203,0.4532999038696289
0.4265613555908203,0.4492166519165039
0.4265613555908203,0.4492166519165039
0.4333723068237305,0.4526773452758789
0.4333723068237305,0.4526773452758789
0.4311910629272461,0.4574850082397461
0.4311910629272461,0.4574850082397461
0.4310422897338867,0.4523717880249023
0.4310422897338867,0.4523717880249023
0.4361738204956054,0.4604141235351562
0.4361738204956054,0.4604141235351562
0.4296752929687500,0.4559040069580078
0.4296752929687500,0.4559040069580078
0.4364673614501953,0.4588582992553711
0.4364673614501953,0.4588582992553711
0.4340286254882812,0.4633638381958007
0.4340286254882812,0.4633638381958007
0.4334541320800781,0.4577419281005859
0.4334541320800781,0.4577419281005859
0.4386091232299805,0.4655050277709961
0.4386091232299805,0.4655050277709961
0.4318931579589844,0.4608707427978516
0.4318931579589844,0.4608707427978516
0.4386411666870117,0.4633678436279297
0.4326004028320312,0.4633678436279297
0.4360141754150391,0.4675340652465820
0.4360141754150391,0.4675340652465820
0.4355352401733398,0.4617645263671875
0.4355352401733398,0.4617645263671875
0.4403686523437500,0.4693651199340820
0.4403686523437500,0.4693651199340820
0.4337099075317383,0.4642307281494140
0.4337099075317383,0.4642307281494140
0.4401655197143555,0.4666328430175781
0.4401655197143555,0.4666328430175781
0.4373096466064453,0.4704826354980469
0.4373096466064453,0.4704826354980469
0.4367008209228516,0.4642827987670898
0.4367008209228516,0.4642827987670898
0.4411251068115234,0.4708196640014648
0.4411251068115234,0.4708196640014648
0.4336767196655273,0.4639251708984375
0.4336767196655273,0.4639251708984375
0.4385066986083984,0.4627573013305664
0.4385066986083984,0.4627573013305664
0.4333076477050781,0.4604261398315430
0.4333076477050781,0.4604261398315430
0.4290464401245117,0.4460866928100586
0.4290464401245117,0.4460866928100586
0.4294813156127930,0.4444364547729492
0.4294813156127930,0.4444364547729492
0.4182672500610352,0.4302234649658203
0.4182672500610352,0.4302234649658203
0.4207952499389648,0.4254947662353515
0.4207952499389648,0.4254947662353515
0.4153890609741211,0.4243068695068359
0.4153890609741211,0.4243068695068359
0.4132816314697266,0.4153867721557617
0.4132816314697266,0.4153867721557617
0.4166004180908203,0.4204198837280274
0.4166004180908203,0.4204198837280274
0.4094552993774414,0.4138927459716797
0.4094552993774414,0.4138927459716797
0.4152482986450195,0.4152774810791016
0.4152482986450195,0.4152774810791016
0.4121463775634766,0.4183851242065429
0.4121463775634766,0.4183851242065429
0.4113910675048828,0.4121028900146484
0.4113910675048828,0.4121028900146484
0.4159120559692382,0.4186305999755859
0.4159120559692382,0.4186305999755859
0.4091497421264648,0.4131935119628906
0.4091497421264648,0.4131935119628906
0.4152317047119141,0.4150011062622070
0.4152317047119141,0.4150011062622070
0.4121034622192383,0.4183542251586914
0.4121034622192383,0.4183542251586914
0.4117572784423828,0.4122945785522461
0.4117572784423828,0.4122945785522461
0.4162239074707031,0.4192142486572266
0.4162239074707031,0.4192142486572266
0.4095245361328125,0.4140203475952148
0.4095245361328125,0.4140203475952148
0.4159635543823242,0.4166347503662109
0.4159635543823242,0.4166347503662109
0.4133531570434570,0.4210035324096680
0.4133531570434570,0.4210035324096680
0.4136913299560547,0.4163784027099609
0.4136913299560547,0.4163784027099609
0.4188091278076172,0.4248647689819336
0.4188091278076172,0.4248647689819336
0.4128725051879883,0.4211700439453125
0.4128725051879883,0.4211700439453125
0.4202161788940429,0.4253660202026367
0.4202161788940429,0.4253660202026367
0.4180257797241211,0.4305564880371094
0.4180257797241211,0.4305564880371094
0.4185750961303711,0.4262689590454101
0.4185750961303711,0.4262689590454101
0.4234399795532227,0.4344749450683594
0.4234399795532227,0.4344749450683594
0.4174003601074219,0.4298761367797851
0.4174003601074219,0.4298761367797851
0.4241300582885742,0.4328533172607422
0.4241300582885742,0.4328533172607422
0.4211952209472656,0.4366802215576172
0.4211952209472656,0.4366802215576172
0.4210727691650391,0.4312986373901367
0.4210727691650391,0.4312986373901367
0.4256961822509766,0.4385192871093750
0.4256961822509766,0.4385192871093750
0.4193412780761719,0.4335319519042969
0.4193412780761719,0.4335319519042969
0.4258541107177734,0.4363660812377930
0.4195976257324219,0.4363660812377930
0.4227481842041015,0.4402507781982422
0.4227481842041015,0.4402507781982422
0.4231052398681641,0.4353000640869141
0.4231052398681641,0.4353000640869141
0.4279317855834961,0.4430580139160156
0.4279317855834961,0.4430580139160156
0.4217422485351562,0.4387853622436523
0.4217422485351562,0.4387853622436523
0.4282957077026367,0.4420143127441406
0.4224763870239258,0.4420143127441406
0.4259502410888672,0.4467006683349609
0.4297485351562500,0.4467006683349609
0.4262523651123047,0.4422466278076172
0.4262523651123047,0.4422466278076172
0.4314079284667969,0.4505172729492187
0.4314079284667969,0.4505172729492187
0.4252607345581055,0.4464700698852539
0.4252607345581055,0.4464700698852539
0.4322982788085937,0.4501728057861328
0.4322982788085937,0.4501728057861328
0.4296266555786133,0.4548471450805664
0.4296266555786133,0.4548471450805664
0.4302286148071289,0.4502592086791992
0.4302286148071289,0.4502592086791992
0.4349184036254883,0.4583301544189453
0.4349184036254883,0.4583301544189453
0.4289136886596679,0.4539402008056641
0.4289136886596679,0.4539402008056641
0.4357509613037109,0.4571250915527343
0.4357509613037109,0.4571250915527343
0.4327377319335937,0.4614772796630859
0.4327377319335937,0.4614772796630859
0.4330461502075195,0.4565763473510742
0.4330461502075195,0.4565763473510742
0.4377302169799804,0.4640155792236328
0.4377302169799804,0.4640155792236328
0.4314474105834961,0.4593400955200195
0.4314474105834961,0.4593400955200195
0.4381410598754883,0.4623504638671875
0.4381410598754883,0.4623504638671875
0.4347393035888672,0.4660818099975585
0.4347393035888672,0.4660818099975585
0.4352422714233398,0.4610057830810547
0.4352422714233398,0.4610057830810547
0.4397546768188477,0.4682819366455078
0.4397546768188477,0.4682819366455078
0.4333333969116211,0.4632740020751953
0.4333333969116211,0.4632740020751953
0.4398525238037109,0.4661224365234375
0.4398525238037109,0.4661224365234375
0.4364267349243164,0.4696214675903320
0.4364267349243164,0.4696214675903320
0.4369628906250000,0.4643560409545898
0.4369628906250000,0.4643560409545898
0.4413419723510742,0.4714639663696289
0.4413419723510742,0.4714639663696289
0.4346792221069336,0.4662494659423828
0.4346792221069336,0.4662494659423828
0.4413768768310547,0.4689153671264648
0.4413768768310547,0.4689153671264648
0.4377061843872070,0.4723217010498046
0.4377061843872070,0.4723217010498046
0.4380586624145508,0.4667409896850586
0.4380586624145508,0.4667409896850586
0.4419776916503906,0.4732240676879882
0.4419776916503906,0.4732240676879882
0.4352336883544922,0.4669218063354492
0.4352336883544922,0.4669218063354492
0.4407743453979492,0.4670682907104492
0.4407743453979492,0.4670682907104492
0.4351060867309570,0.4657768249511718
0.4351060867309570,0.4657768249511718
0.4321706771850586,0.4528942108154297
0.4321706771850586,0.4528942108154297
0.4324459075927734,0.4509407043457031
0.4324459075927734,0.4509407043457031
0.4215940475463867,0.4365068435668945
0.4215940475463867,0.4365068435668945
0.4236665725708008,0.4304363250732422
0.4236665725708008,0.4304363250732422
0.4162988662719727,0.4273326873779297
0.4162988662719727,0.4273326873779297
0.4144929885864257,0.4178009033203125
0.4144929885864257,0.4178009033203125
0.4174953460693359,0.4220661163330078
0.4174953460693359,0.4220661163330078
0.4099187850952148,0.4149908065795898
0.4099187850952148,0.4149908065795898
0.4157690048217773,0.4164230346679688
0.4157690048217773,0.4164230346679688
0.4117469787597656,0.4190322875976563
0.4117469787597656,0.4190322875976563
0.4121389389038086,0.4132879257202148
0.4121389389038086,0.4132879257202148
0.4162908554077148,0.4197767257690430
0.4162908554077148,0.4197767257690430
0.4095623016357422,0.4141897201538086
0.4095623016357422,0.4141897201538086
0.4161214828491211,0.4164573669433594
0.4161214828491211,0.4164573669433594
0.4120845794677734,0.4194019317626953
0.4120845794677734,0.4194019317626953
0.4125555038452148,0.4138526916503906
0.4125555038452148,0.4138526916503906
0.4165426254272461,0.4204650878906250
0.4165426254272461,0.4204650878906250
0.4102764129638672,0.4150829315185547
0.4102764129638672,0.4150829315185547
0.4168241500854492,0.4178501129150390
0.4168241500854492,0.4178501129150390
0.4130413055419922,0.4215465545654297
0.4130413055419922,0.4215465545654297
0.4140386581420898,0.4172161102294922
0.4140386581420898,0.4172161102294922
0.4190477371215820,0.4254055023193359
0.4147842407226562,0.4254055023193359
0.4133422851562500,0.4217451095581055
0.4133422851562500,0.4217451095581055
0.4207815170288086,0.4262638092041016
0.4207815170288086,0.4262638092041016
0.4176000595092773,0.4313140869140625
0.4176000595092773,0.4313140869140625
0.4192348480224609,0.4277910232543945
0.4192348480224609,0.4277910232543945
0.4242090225219726,0.4359128952026367
0.4242090225219726,0.4359128952026367
0.4182294845581054,0.4316265106201172
0.4182294845581054,0.4316265106201172
0.4249820709228516,0.4348932266235351
0.4249820709228516,0.4348932266235351
0.4212965011596679,0.4383367538452148
0.4212965011596679,0.4383367538452148
0.4221971511840820,0.4334249496459961
0.4221971511840820,0.4334249496459961
0.4265493392944336,0.4403509140014648
0.4265493392944336,0.4403509140014648
0.4200313568115234,0.4351741790771484
0.4200313568115234,0.4351741790771484
0.4267753601074218,0.4379922866821289
0.4267753601074218,0.4379922866821289
0.4227510452270508,0.4414140701293945
0.4227510452270508,0.4414140701293945
0.4237386703491211,0.4365697860717773
0.4237386703491211,0.4365697860717773
0.4281091690063477,0.4440238952636719
0.4281091690063477,0.4440238952636719
0.4221239089965820,0.4393987655639648
0.4221239089965820,0.4393987655639648
0.4289783477783203,0.4427284240722656
0.4289783477783203,0.4427284240722656
0.4252916336059570,0.4468460083007812
0.4252916336059570,0.4468460083007812
0.4264051437377930,0.4427450180053711
0.4264051437377930,0.4427450180053711
0.4313604354858399,0.4506734848022461
0.4313604354858399,0.4506734848022461
0.4253963470458984,0.4465095520019531
0.4253963470458984,0.4465095520019531
0.4325391769409180,0.4504188537597656
0.4325391769409180,0.4504188537597656
0.4288375854492187,0.4546937942504883
0.4288375854492187,0.4546937942504883
0.4302274703979492,0.4506454467773438
0.4302274703979492,0.4506454467773438
0.4351564407348633,0.4585023880004883
0.4351564407348633,0.4585023880004883
0.4291362762451172,0.4542091369628906
0.4291362762451172,0.4542091369628906
0.4358705520629882,0.4577304840087890
0.4358705520629882,0.4577304840087890
0.4322187423706055,0.4616638183593750
0.4322187423706055,0.4616638183593750
0.4332916259765625,0.4571084976196289
0.4340200424194336,0.4571084976196289
0.4337293624877930,0.4645757675170898
0.4366796493530273,0.4645757675170898
0.4316986083984375,0.4597623825073242
0.4316986083984375,0.4597623825073242
0.4385633468627930,0.4628499984741211
0.4385633468627930,0.4628499984741211
0.4345132827758789,0.4664051055908203
0.4345132827758789,0.4664051055908203
0.4356170654296875,0.4617982864379883
0.4356170654296875,0.4617982864379883
0.4400774002075195,0.4688398361206054
0.4400774002075195,0.4688398361206054
0.4337579727172852,0.4639446258544921
0.4337579727172852,0.4639446258544921
0.4405071258544922,0.4668159484863281
0.4405071258544922,0.4668159484863281
0.4362327575683594,0.4702474594116210
0.4362327575683594,0.4702474594116210
0.4371631622314453,0.4652212142944336
0.4371631622314453,0.4652212142944336
0.4417762756347656,0.4723348617553711
0.4417762756347656,0.4723348617553711
0.4353309631347656,0.4671432495117187
0.4353309631347656,0.4671432495117187
0.4419828414916992,0.4699001312255859
0.4419828414916992,0.4699001312255859
0.4375116348266602,0.4730312347412109
0.4375116348266602,0.4730312347412109
0.4385118484497070,0.4679180145263672
0.4385118484497070,0.4679180145263672
0.4429618835449219,0.4747220993041992
0.4429618835449219,0.4747220993041992
0.4363409042358398,0.4691957473754882
0.4363409042358398,0.4691957473754882
0.4426975250244141,0.4714611053466797
0.4426975250244141,0.4714611053466797
0.4378469467163086,0.4734054565429687
0.4378469467163086,0.4734054565429687
0.4378400802612304,0.4658935546875000
0.4378400802612304,0.4658935546875000
0.4402359008789062,0.4681446075439453
0.4402359008789062,0.4681446075439453
0.4305015563964844,0.4555074691772460
0.4305015563964844,0.4555074691772460
0.4333803176879883,0.4497968673706055
0.4333803176879883,0.4497968673706055
0.4248704910278320,0.4446453094482422
0.4248704910278320,0.4446453094482422
0.4220741271972656,0.4318113327026367
0.4220741271972656,0.4318113327026367
0.4227722167968750,0.4324104309082031
0.4227722167968750,0.4324104309082031
0.4141324996948242,0.4227733612060547
0.4141324996948242,0.4227733612060547
0.4193492889404297,0.4226903915405273
0.4193492889404297,0.4226903915405273
0.4137765884399414,0.4239578247070312
0.4137765884399414,0.4239578247070312
0.4141633987426758,0.4178283691406250
0.4141633987426758,0.4178283691406250
0.4183004379272461,0.4240339279174805
0.4183004379272461,0.4240339279174805
0.4115163803100586,0.4180223464965820
0.4115163803100586,0.4180223464965820
0.4180973052978516,0.4204107284545898
0.4180973052978516,0.4204107284545898
0.4131568908691406,0.4227899551391601
0.4131568908691406,0.4227899551391601
0.4143716812133789,0.4175886154174804
0.4143716812133789,0.4175886154174804
0.4183542251586914,0.4241374969482422
0.4183542251586914,0.4241374969482422
0.4117824554443359,0.4184160232543945
0.4117824554443359,0.4184160232543945
0.4182924270629882,0.4209560394287109
0.4182924270629882,0.4209560394287109
0.4136186599731445,0.4235509872436523
0.4136186599731445,0.4235509872436523
0.4148780822753906,0.4191026687622070
0.4148780822753906,0.4191026687622070
0.4193870544433594,0.4265996932983399
0.4193870544433594,0.4265996932983399
0.4133508682250976,0.4221439361572266
0.4133508682250976,0.4221439361572266
0.4209188461303711,0.4264434814453125
0.4209188461303711,0.4264434814453125
0.4168590545654297,0.4307516098022461
0.4168590545654297,0.4307516098022461
0.4190792083740234,0.4277795791625976
0.4190792083740234,0.4277795791625976
0.4238908767700195,0.4361211776733399
0.4238908767700195,0.4361211776733399
0.4183364868164062,0.4321071624755859
0.4183364868164062,0.4321071624755859
0.4256452560424804,0.4359369277954102
0.4256452560424804,0.4359369277954102
0.4211854934692383,0.4394519805908203
0.4211854934692383,0.4394519805908203
0.4226102828979492,0.4349699020385742
0.4226102828979492,0.4349699020385742
0.4272697448730469,0.4422689437866211
0.4272697448730469,0.4422689437866211
0.4207763671875000,0.4369697570800781
0.4207763671875000,0.4369697570800781
0.4277435302734375,0.4399068832397461
0.4277435302734375,0.4399068832397461
0.4227773666381836,0.4427833557128906
0.4227773666381836,0.4427833557128906
0.4243160247802734,0.4380615234375000
0.4243160247802734,0.4380615234375000
0.4287265777587890,0.4453874588012695
0.4287265777587890,0.4453874588012695
0.4223550796508789,0.4403795242309570
0.4223550796508789,0.4403795242309570
0.4294801712036133,0.4436891555786133
0.4294801712036133,0.4436891555786133
0.4249780654907226,0.4470668792724609
0.4249780654907226,0.4470668792724609
0.4266660690307617,0.4431015014648437
0.4266660690307617,0.4431015014648437
0.4312757492065429,0.4509475708007812
0.4312757492065429,0.4509475708007812
0.4251028060913086,0.4464746475219726
0.4251028060913086,0.4464746475219726
0.4326496124267578,0.4503170013427734
0.4326496124267578,0.4503170013427734
0.4282579421997070,0.4541891098022461
0.4282579421997070,0.4541891098022461
0.4300706863403320,0.4505664825439453
0.4300706863403320,0.4505664825439453
0.4348371505737305,0.4587186813354492
0.4348371505737305,0.4587186813354492
0.4288988113403320,0.4543773651123046
0.4288988113403320,0.4543773651123046
0.4364301681518555,0.4581590652465820
0.4364301681518555,0.4581590652465820
0.4317712783813477,0.4618143081665039
0.4317712783813477,0.4618143081665039
0.4335021972656250,0.4578449249267578
0.4335021972656250,0.4578449249267578
0.4381542205810547,0.4655902862548828
0.4381542205810547,0.4655902862548828
0.4319555282592774,0.4606979370117187
0.4319555282592774,0.4606979370117187
0.4393060684204101,0.4641340255737305
0.4320745468139648,0.4641340255737305
0.4342672348022461,0.4672811508178711
0.4342672348022461,0.4672811508178711
0.4360507965087890,0.4629684448242187
0.4360507965087890,0.4629684448242187
0.4404150009155273,0.4702932357788085
0.4404150009155273,0.4702932357788085
0.4340578079223633,0.4651216506958007
0.4340578079223633,0.4651216506958007
0.4411399841308594,0.4682968139648437
0.4411399841308594,0.4682968139648437
0.4362384796142578,0.4711481094360351
0.4362384796142578,0.4711481094360351
0.4378641128540039,0.4666643142700195
0.4378641128540039,0.4666643142700195
0.4421173095703125,0.4739833831787109
0.4421173095703125,0.4739833831787109
0.4355535507202148,0.4684570312500000
0.4355535507202148,0.4684570312500000
0.4427684783935547,0.4714239120483398
0.4427684783935547,0.4714239120483398
0.4377490997314453,0.4740983963012695
0.4377490997314453,0.4740983963012695
0.4392414093017578,0.4695356369018555
0.4392414093017578,0.4695356369018555
0.4433492660522461,0.4766807556152344
0.4433492660522461,0.4766807556152344
0.4368782043457031,0.4710737228393554
0.4368782043457031,0.4710737228393554
0.4439775466918945,0.4738712310791016
0.4439775466918945,0.4738712310791016
0.4387504577636719,0.4762498855590820
0.4387504577636719,0.4762498855590820
0.4400402069091797,0.4713380813598633
0.4400402069091797,0.4713380813598633
0.4439111709594726,0.4776580810546875
0.4439111709594726,0.4776580810546875
0.4367019653320313,0.4703659057617187
0.4367019653320313,0.4703659057617187
0.4423164367675781,0.4696483612060547
0.4423164367675781,0.4696483612060547
0.4346397399902344,0.4661561965942382
0.4346397399902344,0.4661561965942382
0.4323514938354492,0.4532094955444336
0.4323514938354492,0.4532094955444336
0.4325048446655274,0.4518218994140625
0.4325048446655274,0.4518218994140625
0.4220787048339844,0.4379384994506836
0.4220787048339844,0.4379384994506836
0.4251995086669922,0.4333734512329102
0.4251995086669922,0.4333734512329102
0.4172601699829102,0.4305250167846680
0.4172601699829102,0.4305250167846680
0.4168550491333008,0.4225542068481445
0.4168550491333008,0.4225542068481445
0.4195375442504883,0.4274637222290039
0.4195375442504883,0.4274637222290039
0.4124193191528320,0.4205068588256836
0.4124193191528320,0.4205068588256836
0.4192205429077148,0.4227848052978516
0.4192205429077148,0.4227848052978516
0.4137788772583008,0.4244745254516601
0.4137788772583008,0.4244745254516601
0.4153753280639648,0.4199638366699219
0.4153753280639648,0.4199638366699219
0.4190231323242187,0.4266054153442383
0.4190231323242187,0.4266054153442383
0.4128421783447265,0.4209045410156250
0.4128421783447265,0.4209045410156250
0.4197750091552734,0.4237483978271484
0.4197750091552734,0.4237483978271484
0.4144575119018555,0.4256286621093750
0.4144575119018555,0.4256286621093750
0.4161180496215820,0.4213130950927734
0.4161180496215820,0.4213130950927734
0.4199998855590820,0.4282928466796875
0.4199998855590820,0.4282928466796875
0.4138927459716797,0.4230194091796875
0.4138927459716797,0.4230194091796875
0.4213336944580078,0.4269304275512695
0.4213336944580078,0.4269304275512695
0.4163040161132812,0.4300746917724609
0.4163040161132812,0.4300746917724609
0.4191501617431641,0.4273223876953125
0.4191501617431641,0.4273223876953125
0.4236825942993164,0.4361371994018555
0.4236825942993164,0.4361371994018555
