REDsignal,IRsignal
0.4957780838012695,0.4378841400146484
0.4944814682006836,0.4326169967651367
0.4944814682006836,0.4326169967651367
0.4938297271728516,0.4334764480590820
0.4938297271728516,0.4334764480590820
0.4903535842895508,0.4289400100708008
0.4903535842895508,0.4289400100708008
0.4928009033203125,0.4292610168457031
0.4928009033203125,0.4292610168457031
0.4900257110595703,0.4290126800537109
0.4900257110595703,0.4290126800537109
0.4903810501098633,0.4266580581665039
0.4903810501098633,0.4266580581665039
0.4915048599243164,0.4300294876098633
0.4915048599243164,0.4300294876098633
0.4897699356079102,0.4276473999023437
0.4897699356079102,0.4276473999023437
0.4929840087890625,0.4297325134277344
0.4929840087890625,0.4297325134277344
0.4911397933959961,0.4308265686035156
0.4911397933959961,0.4308265686035156
0.4920083999633789,0.4292421340942383
0.4920083999633789,0.4292421340942383
0.4940185546875000,0.4338409423828125
0.4940185546875000,0.4338409423828125
0.4921417236328125,0.4320899963378906
0.4921417236328125,0.4320899963378906
0.4958530426025390,0.4348955154418945
0.4958530426025390,0.4348955154418945
0.4942966461181640,0.4368249893188477
0.4942966461181640,0.4368249893188477
0.4964796066284179,0.4364702224731445
0.4964796066284179,0.4364702224731445
0.4977499008178711,0.4408584594726562
0.4977499008178711,0.4408584594726562
0.4961219787597656,0.4394227981567383
0.4961219787597656,0.4394227981567383
0.5003980636596680,0.4430053710937500
0.5003980636596680,0.4430053710937500
0.4989692687988281,0.4442934036254882
0.4989692687988281,0.4442934036254882
0.5005548477172851,0.4433813095092773
0.5005548477172851,0.4433813095092773
0.5024671554565430,0.4480756759643554
0.5024671554565430,0.4480756759643554
0.5002676010131836,0.4457199096679688
0.5002676010131836,0.4457199096679688
0.5053007125854492,0.4496824264526367
0.5053007125854492,0.4496824264526367
0.5030645370483399,0.4498872756958008
0.5030645370483399,0.4498872756958008
0.5038209915161133,0.4486335754394531
0.5038209915161133,0.4486335754394531
0.5057550430297851,0.4530378341674804
0.5057550430297851,0.4530378341674804
0.5033849716186524,0.4502243041992187
0.5033849716186524,0.4502243041992187
0.5060903549194335,0.4517475128173828
0.5060903549194335,0.4517475128173828
0.5040338516235351,0.4526750564575195
0.5040338516235351,0.4526750564575195
0.5050397872924804,0.4510826110839843
0.5050397872924804,0.4510826110839843
0.5061916351318360,0.4545495986938476
0.5061916351318360,0.4545495986938476
0.5037517547607422,0.4522281646728515
0.5037517547607422,0.4522281646728515
0.5071048736572266,0.4540855407714843
0.5071048736572266,0.4540855407714843
0.5049207687377929,0.4544855117797851
0.5049207687377929,0.4544855117797851
0.5059993743896484,0.4527025222778320
0.5059993743896484,0.4527025222778320
0.5066013336181641,0.4554862976074219
0.5066013336181641,0.4554862976074219
0.5045288085937499,0.4533988952636718
0.5045288085937499,0.4533988952636718
0.5073589324951172,0.4548820495605468
0.5073589324951172,0.4548820495605468
0.5058906555175781,0.4554519653320312
0.5058906555175781,0.4554519653320312
0.5064971923828124,0.4537038803100586
0.5064971923828124,0.4537038803100586
0.5073892593383789,0.4569156646728516
0.5073892593383789,0.4569156646728516
0.5053018569946289,0.4545850753784180
0.5053018569946289,0.4545850753784180
0.5078046798706054,0.4548631668090820
0.5078046798706054,0.4548631668090820
0.5043279647827148,0.4526201248168945
0.5043279647827148,0.4526201248168945
0.5031909942626953,0.4478084564208984
0.5031909942626953,0.4478084564208984
0.5015241622924804,0.4460718154907227
0.5015241622924804,0.4460718154907227
0.4977121353149414,0.4402004241943359
0.4977121353149414,0.4402004241943359
0.4979930877685547,0.4381416320800781
0.4979930877685547,0.4381416320800781
0.4942319869995117,0.4353498458862304
0.4942319869995117,0.4353498458862304
0.4938961029052734,0.4319932937622070
0.4938961029052734,0.4319932937622070
0.4935424804687500,0.4330009460449218
0.4935424804687500,0.4330009460449218
0.4907215118408203,0.4295110702514648
0.4907215118408203,0.4295110702514648
0.4931859970092773,0.4306411743164062
0.4931859970092773,0.4306411743164062
0.4906831741333008,0.4301834106445312
0.4906831741333008,0.4301834106445312
0.4920295715332031,0.4289016723632812
0.4920295715332031,0.4289016723632812
0.4926492691040039,0.4320075988769531
0.4926492691040039,0.4320075988769531
0.4911031723022461,0.4303928375244140
0.4911031723022461,0.4303928375244140
0.4946559906005859,0.4327932357788086
0.4946559906005859,0.4327932357788086
0.4933290481567383,0.4336172103881836
0.4933290481567383,0.4336172103881836
0.4945541381835937,0.4330329895019531
0.4945541381835937,0.4330329895019531
0.4955429077148437,0.4368370056152344
0.4955429077148437,0.4368370056152344
0.4943561553955078,0.4357069015502930
0.4943561553955078,0.4357069015502930
0.4979667663574219,0.4385084152221679
0.4979667663574219,0.4385084152221679
0.4963325500488281,0.4398462295532227
0.4963325500488281,0.4398462295532227
0.4980388641357422,0.4398851394653320
0.4980388641357422,0.4398851394653320
0.4994379043579101,0.4439626693725586
0.4994379043579101,0.4439626693725586
0.4982728958129883,0.4429927825927734
0.4982728958129883,0.4429927825927734
0.5019075393676757,0.4458309173583984
0.5019075393676757,0.4458309173583984
0.5002338409423828,0.4466262817382812
0.5002338409423828,0.4466262817382812
0.5017690658569336,0.4458938598632812
0.5017690658569336,0.4458938598632812
0.5026096343994141,0.4490850448608398
0.5026096343994141,0.4490850448608398
0.5008192062377930,0.4467309951782226
0.5008192062377930,0.4467309951782226
0.5042312622070312,0.4491577148437500
0.5042312622070312,0.4491577148437500
0.5020620346069335,0.4491262435913086
0.5020620346069335,0.4491262435913086
0.5040813446044922,0.4487176895141601
0.5040813446044922,0.4487176895141601
0.5042718887329102,0.4512960433959960
0.5042718887329102,0.4512960433959960
0.5028264999389648,0.4495628356933594
0.5028264999389648,0.4495628356933594
0.5063083648681640,0.4517171859741211
0.5063083648681640,0.4517171859741211
0.5042095184326172,0.4516267776489258
0.5042095184326172,0.4516267776489258
0.5047142028808593,0.4505601882934570
0.5047142028808593,0.4505601882934570
0.5059083938598633,0.4536437988281250
0.5059083938598633,0.4536437988281250
0.5037334442138671,0.4516582489013672
0.5037334442138671,0.4516582489013672
0.5070762634277344,0.4535013198852539
0.5070762634277344,0.4535013198852539
0.5051118850708007,0.4542091369628906
0.5051118850708007,0.4542091369628906
0.5061550140380859,0.4536403656005859
0.5061550140380859,0.4536403656005859
0.5074069976806640,0.4571165084838867
0.5074069976806640,0.4571165084838867
0.5060153961181640,0.4557220458984375
0.5060153961181640,0.4557220458984375
0.5089439392089844,0.4575548171997070
0.5089439392089844,0.4575548171997070
0.5094881057739258,0.4595523834228515
0.5078424453735352,0.4595523834228515
0.5070734024047852,0.4584766387939453
0.5095287322998047,0.4584766387939453
0.5086332321166992,0.4570341110229492
0.5086332321166992,0.4570341110229492
0.5070899963378906,0.4565803527832031
0.5083780288696289,0.4565803527832031
0.5037712097167969,0.4504308700561523
0.5037712097167969,0.4504308700561523
0.5036985397338867,0.4482398986816406
0.5036985397338867,0.4482398986816406
0.4985881805419922,0.4426397323608398
0.4985881805419922,0.4426397323608398
0.4977882385253906,0.4380226135253906
0.4977882385253906,0.4380226135253906
0.4955080032348633,0.4370246887207031
0.4955080032348633,0.4370246887207031
0.4927253723144531,0.4321741104125976
0.4927253723144531,0.4321741104125976
0.4941656112670898,0.4329654693603516
0.4941656112670898,0.4329654693603516
0.4906471252441406,0.4308546066284180
0.4906471252441406,0.4308546066284180
0.4928386688232422,0.4302520751953125
0.4928386688232422,0.4302520751953125
0.4924884796142578,0.4319744110107422
0.4924884796142578,0.4319744110107422
0.4913280487060547,0.4295082092285156
0.4913280487060547,0.4295082092285156
0.4936780929565430,0.4322359085083008
0.4936780929565430,0.4322359085083008
0.4916135787963867,0.4318193435668945
0.4916135787963867,0.4318193435668945
0.4939521789550781,0.4318897247314453
0.4939521789550781,0.4318897247314453
0.4940780639648437,0.4350706100463867
0.4940780639648437,0.4350706100463867
0.4934595108032226,0.4332887649536133
0.4934595108032226,0.4332887649536133
0.4967594146728516,0.4372924804687500
0.4967594146728516,0.4372924804687500
0.4948431015014648,0.4378492355346680
0.4948431015014648,0.4378492355346680
0.4978334426879882,0.4386857986450195
0.4978334426879882,0.4386857986450195
0.4984903335571289,0.4428703308105469
0.4984903335571289,0.4428703308105469
0.4986259460449218,0.4421985626220703
0.4986259460449218,0.4421985626220703
0.5025243759155273,0.4472826004028320
0.5025243759155273,0.4472826004028320
0.5011098861694335,0.4484333038330078
0.5011098861694335,0.4484333038330078
0.5041311264038085,0.4493597030639648
0.5041311264038085,0.4493597030639648
0.5048658370971679,0.4536621093750000
0.5048658370971679,0.4536621093750000
0.5041265487670898,0.4525571823120117
0.5041265487670898,0.4525571823120117
0.5079059600830078,0.4566524505615234
0.5079059600830078,0.4566524505615234
0.5058305740356445,0.4570730209350586
0.5058305740356445,0.4570730209350586
0.5083585739135742,0.4571376800537109
0.5083585739135742,0.4571376800537109
0.5086893081665039,0.4606653213500976
0.5086893081665039,0.4606653213500976
0.5077148437500000,0.4584342956542968
0.5077148437500000,0.4584342956542968
0.5107406616210938,0.4613216400146484
0.5107406616210938,0.4613216400146484
0.5077617645263671,0.4603271484375000
0.5077617645263671,0.4603271484375000
0.5101140975952149,0.4600948333740234
0.5101140975952149,0.4600948333740234
0.5101667404174804,0.4624305725097656
0.5101667404174804,0.4624305725097656
0.5084112167358398,0.4597297668457031
0.5084112167358398,0.4597297668457031
0.5120613098144531,0.4631046295166015
0.5120613098144531,0.4631046295166015
0.5089290618896484,0.4619247436523437
0.5089290618896484,0.4619247436523437
0.5125654220581054,0.4628602981567382
0.5125654220581054,0.4628602981567382
0.5118656158447266,0.4644235610961914
0.5118656158447266,0.4644235610961914
0.5102262496948242,0.4621999740600586
0.5102262496948242,0.4621999740600586
0.5142848968505859,0.4657716751098633
0.5142848968505859,0.4657716751098633
0.5106943130493163,0.4647520065307617
0.5106943130493163,0.4647520065307617
0.5126226425170898,0.4640974044799804
0.5126226425170898,0.4640974044799804
0.5126661300659180,0.4672634124755859
0.5126661300659180,0.4672634124755859
0.5114707946777344,0.4652915954589844
0.5114707946777344,0.4652915954589844
0.5144308090209960,0.4680261611938477
0.5144308090209960,0.4680261611938477
0.5114427566528320,0.4663496017456055
0.5114427566528320,0.4663496017456055
0.5124807357788086,0.4637426376342773
0.5124807357788086,0.4637426376342773
0.5103778839111328,0.4621753692626953
0.5112401962280273,0.4621753692626953
0.5059215545654296,0.4544694900512695
0.5059215545654296,0.4544694900512695
0.5053218841552735,0.4509103775024414
0.5053218841552735,0.4509103775024414
0.4995471954345703,0.4450452804565430
0.4995471954345703,0.4450452804565430
0.4986894607543945,0.4400539398193359
0.4986894607543945,0.4400539398193359
0.4968189239501953,0.4392625808715820
0.4968189239501953,0.4392625808715820
0.4939470291137695,0.4348096847534180
0.4939470291137695,0.4348096847534180
0.4957603454589843,0.4359209060668945
0.4957603454589843,0.4359209060668945
0.4929370880126953,0.4344823837280273
0.4929370880126953,0.4344823837280273
0.4944889068603515,0.4334793090820312
0.4944889068603515,0.4334793090820312
0.4943578720092773,0.4357057571411133
0.4943578720092773,0.4357057571411133
0.4933559417724609,0.4337316513061523
0.4933559417724609,0.4337316513061523
0.4963142395019531,0.4368701934814453
0.4963142395019531,0.4368701934814453
0.4945049285888672,0.4369365692138672
0.4945049285888672,0.4369365692138672
0.4967227935791015,0.4376564025878906
0.4967227935791015,0.4376564025878906
0.4973155975341796,0.4409019470214844
0.4973155975341796,0.4409019470214844
0.4975742340087890,0.4404550552368164
0.4975742340087890,0.4404550552368164
0.5007385253906250,0.4446361541748047
0.5007385253906250,0.4446361541748047
0.4993743896484375,0.4453817367553711
0.4993743896484375,0.4453817367553711
0.5026565551757812,0.4476070404052734
0.5013622283935547,0.4476070404052734
0.5032281875610352,0.4508840560913085
0.5032281875610352,0.4508840560913085
0.5034708023071289,0.4508840560913085
0.5034708023071289,0.4508840560913085
0.5070281982421875,0.4554925918579101
0.5070281982421875,0.4554925918579101
0.5059284210205078,0.4567571640014648
0.5059284210205078,0.4567571640014648
0.5091115951538085,0.4586563110351562
0.5091115951538085,0.4586563110351562
0.5097009658813476,0.4618692398071289
0.5097009658813476,0.4618692398071289
0.5093050003051758,0.4610532760620117
0.5093050003051758,0.4610532760620117
0.5122833251953125,0.4645837783813476
0.5122833251953125,0.4645837783813476
0.5104402542114258,0.4643886566162109
0.5104402542114258,0.4643886566162109
0.5125648498535156,0.4647245407104492
0.5125648498535156,0.4647245407104492
0.5123931884765625,0.4666625976562500
0.5123931884765625,0.4666625976562500
0.5114158630371094,0.4649419784545898
0.5114158630371094,0.4649419784545898
0.5137224197387695,0.4671375274658203
0.5137224197387695,0.4671375274658203
0.5110879898071289,0.4660057067871093
0.5110879898071289,0.4660057067871093
0.5131135940551758,0.4651891708374023
0.5131135940551758,0.4651891708374023
0.5118444442749023,0.4660446166992187
0.5118444442749023,0.4660446166992187
0.5102519989013672,0.4627727508544922
0.5102519989013672,0.4627727508544922
0.5125408172607422,0.4651971817016601
0.5125408172607422,0.4651971817016601
0.5097015380859374,0.4632196426391602
0.5097015380859374,0.4632196426391602
0.5114885330200195,0.4625032424926758
0.5114885330200195,0.4625032424926758
0.5113346099853515,0.4643016815185547
0.5113346099853515,0.4643016815185547
0.5098159790039062,0.4620557785034179
0.5098159790039062,0.4620557785034179
0.5134031295776367,0.4656995773315429
0.5134031295776367,0.4656995773315429
0.5110221862792969,0.4644092559814453
0.5110221862792969,0.4644092559814453
0.5133396148681640,0.4649288177490234
0.5133396148681640,0.4649288177490234
0.5134346008300781,0.4681560516357421
0.5134346008300781,0.4681560516357421
0.5121397018432617,0.4650135040283203
0.5121397018432617,0.4650135040283203
0.5139513015747070,0.4665533065795898
0.5139513015747070,0.4665533065795898
0.5107114791870117,0.4639429092407226
0.5107114791870117,0.4639429092407226
0.5107000350952148,0.4601177215576172
0.5107000350952148,0.4601177215576172
0.5080753326416015,0.4576704025268554
0.5080753326416015,0.4576704025268554
0.5035354614257812,0.4505516052246094
0.5035354614257812,0.4505516052246094
0.5032779693603515,0.4477340698242188
0.5000719070434571,0.4477340698242188
0.4984657287597656,0.4432668685913086
0.4984657287597656,0.4432668685913086
0.4982889175415039,0.4393060684204101
0.4982889175415039,0.4393060684204101
0.4966495513916016,0.4388854980468750
0.4966495513916016,0.4388854980468750
0.4941993713378906,0.4354677200317383
0.4941993713378906,0.4354677200317383
0.4962249755859375,0.4366338729858398
0.4962249755859375,0.4366338729858398
0.4937507629394531,0.4355787277221679
0.4937507629394531,0.4355787277221679
0.4951435089111328,0.4349269866943359
0.4951435089111328,0.4349269866943359
0.4955978393554688,0.4372129440307617
0.4955978393554688,0.4372129440307617
0.4944036483764648,0.4357784271240234
0.4944036483764648,0.4357784271240234
0.4972492218017578,0.4386577606201172
0.4972492218017578,0.4386577606201172
0.4958839416503906,0.4391172409057617
0.4958839416503906,0.4391172409057617
0.4980480194091796,0.4393621444702148
0.4980480194091796,0.4393621444702148
0.4989727020263672,0.4430156707763672
0.4989727020263672,0.4430156707763672
0.4985544204711914,0.4426786422729492
0.4985544204711914,0.4426786422729492
0.5019979476928711,0.4468877792358398
0.5019979476928711,0.4468877792358398
0.5010578155517578,0.4479589462280273
0.5010578155517578,0.4479589462280273
0.5038696289062500,0.4495920181274414
0.5038696289062500,0.4495920181274414
0.5049968719482422,0.4534584045410156
0.5049968719482422,0.4534584045410156
0.5048772811889648,0.4535894393920898
0.5048772811889648,0.4535894393920898
0.5085720062255860,0.4577779769897461
0.5085720062255860,0.4577779769897461
0.5074527740478515,0.4589996337890625
0.5074527740478515,0.4589996337890625
0.5100254058837891,0.4600021362304687
0.5100254058837891,0.4600021362304687
0.5111898422241211,0.4638713836669922
0.5111898422241211,0.4638713836669922
0.5100414276123046,0.4629787445068359
0.5100414276123046,0.4629787445068359
0.5137201309204101,0.4670082092285156
0.5137201309204101,0.4670082092285156
0.5119171142578125,0.4670402526855468
0.5119171142578125,0.4670402526855468
0.5141733169555663,0.4672290802001953
0.5141733169555663,0.4672290802001953
0.5151111602783203,0.4705261230468750
0.5151111602783203,0.4705261230468750
0.5136646270751953,0.4688398361206054
0.5136646270751953,0.4688398361206054
0.5171693801879883,0.4718667984008789
0.5171693801879883,0.4718667984008789
0.5146070480346679,0.4718645095825195
0.5146070480346679,0.4718645095825195
0.5164352416992187,0.4707532882690429
0.5164352416992187,0.4707532882690429
0.5169015884399414,0.4738752365112304
0.5169015884399414,0.4738752365112304
0.5146562576293945,0.4710571289062500
0.5146562576293945,0.4710571289062500
0.5180849075317383,0.4738128662109375
0.5180849075317383,0.4738128662109375
0.5152971267700195,0.4733510971069336
0.5152971267700195,0.4733510971069336
0.5172397613525390,0.4721500396728515
0.5172397613525390,0.4721500396728515
0.5177495956420898,0.4750900268554688
0.5177495956420898,0.4750900268554688
0.5153440475463867,0.4719892501831054
0.5153440475463867,0.4719892501831054
0.5184619903564452,0.4745000839233398
0.5184619903564452,0.4745000839233398
0.5159917831420898,0.4741041183471679
0.5159917831420898,0.4741041183471679
0.5177267074584960,0.4727479934692382
0.5177267074584960,0.4727479934692382
0.5174222946166992,0.4749195098876953
0.5174222946166992,0.4749195098876953
0.5152032852172851,0.4702148437500000
0.5152032852172851,0.4702148437500000
0.5162755966186523,0.4693193435668945
0.5128412246704102,0.4693193435668945
0.5136211395263671,0.4650730133056640
0.5133756637573242,0.4650730133056640
0.5104070663452148,0.4581424713134765
0.5104070663452148,0.4581424713134765
0.5069692611694335,0.4556613922119140
0.5069692611694335,0.4556613922119140
0.5032802581787109,0.4491537094116211
0.5032802581787109,0.4491537094116211
0.5038095474243164,0.4478084564208984
0.5038095474243164,0.4478084564208984
0.4994098663330078,0.4444021224975586
0.4994098663330078,0.4444021224975586
0.4993080139160156,0.4415073394775391
0.4993080139160156,0.4415073394775391
0.4987346649169921,0.4424617767333984
0.4987346649169921,0.4424617767333984
0.4964841842651367,0.4393833160400391
0.4964841842651367,0.4393833160400391
0.4988153457641601,0.4409683227539062
0.4988153457641601,0.4409683227539062
0.4966089248657226,0.4404327392578125
0.4966089248657226,0.4404327392578125
0.4980325698852539,0.4395223617553711
0.4980325698852539,0.4395223617553711
0.4985469818115234,0.4422529220581055
0.4985469818115234,0.4422529220581055
0.4970209121704101,0.4405546188354492
0.4970209121704101,0.4405546188354492
0.5002807617187500,0.4432834625244140
0.5002807617187500,0.4432834625244140
0.4987546920776367,0.4438974380493164
0.4987546920776367,0.4438974380493164
0.5005296707153321,0.4440839767456055
0.5005296707153321,0.4440839767456055
0.5018463134765625,0.4476922988891601
0.5018463134765625,0.4476922988891601
0.5009279251098633,0.4469547271728516
0.5009279251098633,0.4469547271728516
0.5044979095458985,0.4505538940429688
0.5044979095458985,0.4505538940429688
0.5032985687255859,0.4519140243530273
0.5032985687255859,0.4519140243530273
0.5056171417236328,0.4526950836181640
0.5056171417236328,0.4526950836181640
0.5069343566894531,0.4568384170532226
0.5069343566894531,0.4568384170532226
0.5064800262451171,0.4565002441406250
0.5064800262451171,0.4565002441406250
0.5100854873657227,0.4602178573608398
0.5100854873657227,0.4602178573608398
0.5089273452758789,0.4611042022705078
0.5089273452758789,0.4611042022705078
0.5112190246582031,0.4620672225952148
0.5112190246582031,0.4620672225952148
0.5121843338012695,0.4658443450927734
0.5121843338012695,0.4658443450927734
0.5116888046264648,0.4651651382446289
0.5116888046264648,0.4651651382446289
0.5147352218627930,0.4686349868774414
0.5147352218627930,0.4686349868774414
0.5134082794189453,0.4686607360839843
0.5134082794189453,0.4686607360839843
0.5153560638427734,0.4691637039184570
0.5153560638427734,0.4691637039184570
0.5157154083251952,0.4722244262695312
0.5157154083251952,0.4722244262695312
0.5148136138916015,0.4707023620605468
0.5148136138916015,0.4707023620605468
0.5180236816406250,0.4737768173217773
0.5180236816406250,0.4737768173217773
0.5162481307983399,0.4737825393676758
0.5162481307983399,0.4737825393676758
0.5181747436523437,0.4736852645874023
0.5181747436523437,0.4736852645874023
0.5186279296874999,0.4765605926513672
0.5186279296874999,0.4765605926513672
0.5171459197998046,0.4746213912963867
0.5171459197998046,0.4746213912963867
0.5201333999633789,0.4773439407348632
0.5201333999633789,0.4773439407348632
0.5180179595947265,0.4766950607299805
0.5180179595947265,0.4766950607299805
0.5193557739257812,0.4764902114868164
0.5193557739257812,0.4764902114868164
0.5194850921630859,0.4790216445922851
0.5194850921630859,0.4790216445922851
0.5185380935668945,0.4773433685302734
0.5185380935668945,0.4773433685302734
0.5212818145751953,0.4797019958496094
0.5212818145751953,0.4797019958496094
0.5188299179077148,0.4786811828613281
0.5188299179077148,0.4786811828613281
0.5197322845458984,0.4769874572753906
0.5197322845458984,0.4769874572753906
0.5186702728271484,0.4771722793579101
0.5186702728271484,0.4771722793579101
0.5151174545288085,0.4704769134521484
0.5151174545288085,0.4704769134521484
0.5144233703613281,0.4671850204467773
0.5144233703613281,0.4671850204467773
0.5085491180419922,0.4599328994750976
0.5085491180419922,0.4599328994750976
0.5069108963012695,0.4536695480346680
0.5069108963012695,0.4536695480346680
0.5039480209350585,0.4516227722167969
0.5039480209350585,0.4516227722167969
0.5012168884277344,0.4466857910156250
0.5012168884277344,0.4466857910156250
0.5019893646240234,0.4460357666015625
0.5019893646240234,0.4460357666015625
0.4991369247436523,0.4440525054931641
0.4991369247436523,0.4440525054931641
0.5003763198852539,0.4422746658325195
0.5003763198852539,0.4422746658325195
0.4995042800903320,0.4440668106079101
0.4982208251953125,0.4419319152832031
0.4982208251953125,0.4419319152832031
0.5013433456420898,0.4437292098999023
0.5013433456420898,0.4437292098999023
0.4986551284790039,0.4429550170898438
0.4986551284790039,0.4429550170898438
0.4998510360717773,0.4421762466430664
0.4998510360717773,0.4421762466430664
0.5003339767456054,0.4456941604614258
0.5003339767456054,0.4456941604614258
0.4994745254516602,0.4440027236938476
0.4994745254516602,0.4440027236938476
0.5025627136230468,0.4469387054443359
0.5025627136230468,0.4469387054443359
0.5010091781616210,0.4478708267211914
0.5010091781616210,0.4478708267211914
0.5030971527099609,0.4481821060180664
0.5030971527099609,0.4481821060180664
0.5042329788208008,0.4521697998046875
0.5042329788208008,0.4521697998046875
0.5033454895019531,0.4512811660766601
0.5033454895019531,0.4512811660766601
0.5068502426147461,0.4546503067016601
0.5068502426147461,0.4546503067016601
0.5058483123779297,0.4559137344360351
0.5058483123779297,0.4559137344360351
0.5078081130981446,0.4561889648437500
0.5078081130981446,0.4561889648437500
0.5088998794555664,0.4601005554199218
0.5088998794555664,0.4601005554199218
0.5081073760986328,0.4592782974243164
0.5081073760986328,0.4592782974243164
0.5114089965820312,0.4622652053833007
0.5114089965820312,0.4622652053833007
0.5101753234863281,0.4633707046508789
0.5101753234863281,0.4633707046508789
0.5116476058959961,0.4632219314575195
0.5116476058959961,0.4632219314575195
0.5128995895385742,0.4670974731445312
0.5128995895385742,0.4670974731445312
0.5118942260742188,0.4657991409301758
0.5118942260742188,0.4657991409301758
0.5151414871215820,0.4687952041625976
0.5151414871215820,0.4687952041625976
0.5137138366699219,0.4698492050170898
0.5137138366699219,0.4698492050170898
0.5153240203857422,0.4693685531616211
0.5153240203857422,0.4693685531616211
0.5163042068481445,0.4729339599609375
0.5163042068481445,0.4729339599609375
0.5150716781616210,0.4712173461914062
0.5150716781616210,0.4712173461914062
0.5181518554687500,0.4740531921386719
0.5181518554687500,0.4740531921386719
0.5163150787353515,0.4747426986694336
0.5163150787353515,0.4747426986694336
0.5182474136352538,0.4740629196166992
0.5182474136352538,0.4740629196166992
0.5191680908203125,0.4777376174926757
0.5191680908203125,0.4777376174926757
0.5176780700683593,0.4757217407226562
0.5176780700683593,0.4757217407226562
0.5208818435668945,0.4788179397583008
0.5208818435668945,0.4788179397583008
0.5192739486694335,0.4796493530273437
0.5192739486694335,0.4796493530273437
0.5208950042724609,0.4787040710449219
0.5208950042724609,0.4787040710449219
0.5221555709838867,0.4829755783081054
0.5221555709838867,0.4829755783081054
0.5208080291748046,0.4811422348022460
0.5208080291748046,0.4811422348022460
0.5244312286376953,0.4838436126708984
0.5244312286376953,0.4838436126708984
0.5220766067504883,0.4840421676635742
0.5220766067504883,0.4840421676635742
0.5225944519042969,0.4814266204833984
0.5225944519042969,0.4814266204833984
0.5224805831909179,0.4831993103027343
0.5224805831909179,0.4831993103027343
0.5183853149414063,0.4766887664794922
0.5183853149414063,0.4766887664794922
0.5190284729003906,0.4742929458618164
0.5190284729003906,0.4742929458618164
0.5133241653442383,0.4681509017944336
0.5133241653442383,0.4681509017944336
0.5105604171752930,0.4599632263183593
0.5105604171752930,0.4599632263183593
0.5078973770141602,0.4577487945556640
0.5078973770141602,0.4577487945556640
0.5033643722534179,0.4505498886108398
0.5033643722534179,0.4505498886108398
0.5045001983642577,0.4498849868774414
0.5045001983642577,0.4498849868774414
0.5008134841918945,0.4480276107788086
0.5008134841918945,0.4480276107788086
0.5016368865966797,0.4450721740722656
0.5016368865966797,0.4450721740722656
0.5013210296630859,0.4478691101074219
0.5031806945800781,0.4478691101074219
0.4999700546264648,0.4448621749877930
0.4999700546264648,0.4448621749877930
0.5033065795898437,0.4475131988525390
0.5033065795898437,0.4475131988525390
0.5020500183105469,0.4489316940307617
0.5020500183105469,0.4489316940307617
0.5034353256225585,0.4473455429077148
0.5034353256225585,0.4473455429077148
0.5041145324707031,0.4516170501708984
0.5041145324707031,0.4516170501708984
0.5032138824462891,0.4503255844116211
0.5032138824462891,0.4503255844116211
0.5068136215209961,0.4529766082763672
0.5068136215209961,0.4529766082763672
0.5048789978027344,0.4541707992553711
0.5048789978027344,0.4541707992553711
0.5069126129150391,0.4543424606323242
0.5069126129150391,0.4543424606323242
0.5081205368041992,0.4589309692382812
0.5081205368041992,0.4589309692382812
0.5073657989501953,0.4583965301513672
0.5073657989501953,0.4583965301513672
0.5112373352050781,0.4618440628051758
0.5112373352050781,0.4618440628051758
0.5101930618286132,0.4633804321289062
0.5101930618286132,0.4633804321289062
0.5119812011718750,0.4637517929077148
0.5119812011718750,0.4637517929077148
0.5134769439697265,0.4679758071899414
0.5134769439697265,0.4679758071899414
0.5125156402587890,0.4671249389648438
0.5125156402587890,0.4671249389648438
0.5159894943237304,0.4695968627929688
0.5159894943237304,0.4695968627929688
0.5146802902221680,0.4708311080932617
0.5146802902221680,0.4708311080932617
0.5159894943237304,0.4701467514038086
0.5159894943237304,0.4701467514038086
0.5169227600097656,0.4735233306884765
0.5169227600097656,0.4735233306884765
0.5156976699829101,0.4722719192504883
0.5156976699829101,0.4722719192504883
0.5184911727905274,0.4744153976440429
0.5184911727905274,0.4744153976440429
0.5172197341918945,0.4752571105957031
0.5172197341918945,0.4752571105957031
0.5181283950805664,0.4745218276977539
0.5181283950805664,0.4745218276977539
0.5191085815429687,0.4777753829956055
0.5191085815429687,0.4777753829956055
0.5182462692260742,0.4765617370605468
0.5182462692260742,0.4765617370605468
0.5211095809936523,0.4789535522460937
0.5211095809936523,0.4789535522460937
0.5195720672607421,0.4793781280517578
0.5195720672607421,0.4793781280517578
0.5213172912597656,0.4791646957397461
0.5213172912597656,0.4791646957397461
0.5216909408569336,0.4823101043701172
0.5216909408569336,0.4823101043701172
0.5210964202880859,0.4810312271118164
0.5210964202880859,0.4810312271118164
0.5237508773803711,0.4836685180664062
0.5237508773803711,0.4836685180664062
0.5223152160644531,0.4840770721435547
0.5223152160644531,0.4840770721435547
0.5239414215087891,0.4839986801147461
0.5239414215087891,0.4839986801147461
0.5244077682495117,0.4870960235595703
0.5244077682495117,0.4870960235595703
0.5237171173095703,0.4857564926147461
0.5237171173095703,0.4857564926147461
0.5266267776489257,0.4882713317871094
0.5266267776489257,0.4882713317871094
0.5245513916015625,0.4877935409545898
0.5245513916015625,0.4877935409545898
0.5253204345703125,0.4860666275024414
0.5253204345703125,0.4860666275024414
0.5242332458496094,0.4858291625976562
0.5242332458496094,0.4858291625976562
0.5207250595092773,0.4792894363403320
0.5207250595092773,0.4792894363403320
0.5199440002441406,0.4760513305664062
0.5166492462158203,0.4711212158203125
0.5148731231689453,0.4695442199707031
0.5151563644409179,0.4695442199707031
0.5120349884033203,0.4625329971313477
0.5120349884033203,0.4625329971313477
0.5090045928955078,0.4594785690307617
0.5090045928955078,0.4594785690307617
0.5051599502563476,0.4535568237304687
0.5051599502563476,0.4535568237304687
0.5062448501586914,0.4532209396362304
0.5062448501586914,0.4532209396362304
0.5026885986328125,0.4506734848022461
0.5026885986328125,0.4506734848022461
0.5029523849487304,0.4479852676391601
0.5029523849487304,0.4479852676391601
0.5020969390869140,0.4499725341796875
0.5020969390869140,0.4499725341796875
0.5012849807739258,0.4473381042480469
0.5012849807739258,0.4473381042480469
0.5042901992797851,0.4494077682495117
0.5042901992797851,0.4494077682495117
0.5014389038085937,0.4491359710693359
0.5014389038085937,0.4491359710693359
0.5044727325439453,0.4496234893798828
0.5044727325439453,0.4496234893798828
0.5045694351196289,0.4528078079223632
0.5045694351196289,0.4528078079223632
0.5050546646118164,0.4529119491577148
0.5050546646118164,0.4529119491577148
0.5084764480590820,0.4557540893554687
0.5084764480590820,0.4557540893554687
0.5072782516479492,0.4571331024169922
0.5072782516479492,0.4571331024169922
0.5094726562499999,0.4580738067626953
0.5094726562499999,0.4580738067626953
0.5104402542114258,0.4618709564208984
0.5104402542114258,0.4618709564208984
0.5092809677124023,0.4606887817382812
0.5092809677124023,0.4606887817382812
0.5126014709472656,0.4636854171752929
0.5126014709472656,0.4636854171752929
0.5115514755249023,0.4655805587768554
0.5115514755249023,0.4655805587768554
0.5131816864013672,0.4653802871704101
0.5131816864013672,0.4653802871704101
0.5147220611572265,0.4698297500610351
0.5147220611572265,0.4698297500610351
0.5137773513793945,0.4690086364746093
0.5137773513793945,0.4690086364746093
0.5169198989868163,0.4715681076049805
0.5169198989868163,0.4715681076049805
0.5157686233520508,0.4726627349853516
0.5157686233520508,0.4726627349853516
0.5170497894287109,0.4720430374145508
0.5170497894287109,0.4720430374145508
0.5178411483764648,0.4749767303466796
0.5178411483764648,0.4749767303466796
0.5168815612792969,0.4738855361938477
0.5168815612792969,0.4738855361938477
0.5191806793212891,0.4754379272460937
0.5191806793212891,0.4754379272460937
0.5176362991333008,0.4754951477050781
0.5176362991333008,0.4754951477050781
0.5187269210815429,0.4748096466064453
0.5187269210815429,0.4748096466064453
0.5190193176269531,0.4769783020019531
0.5190193176269531,0.4769783020019531
0.5181695938110351,0.4755981445312500
0.5181695938110351,0.4755981445312500
0.5201734542846680,0.4774921417236328
0.5201734542846680,0.4774921417236328
0.5187583923339844,0.4777570724487304
0.5187583923339844,0.4777570724487304
0.5201368331909180,0.4773250579833984
0.5201368331909180,0.4773250579833984
0.5207513809204102,0.4801368713378906
0.5207513809204102,0.4801368713378906
0.5201150894165039,0.4791440963745117
0.5201150894165039,0.4791440963745117
0.5226860046386719,0.4819135665893555
0.5226860046386719,0.4819135665893555
0.5212549209594727,0.4823839187622070
0.5212549209594727,0.4823839187622070
0.5231941223144531,0.4824834823608398
0.5231941223144531,0.4824834823608398
0.5237606048583984,0.4856271743774414
0.5237606048583984,0.4856271743774414
0.5230905532836914,0.4843202590942383
0.5230905532836914,0.4843202590942383
0.5251750946044922,0.4863870620727539
0.5251750946044922,0.4863870620727539
0.5233686447143554,0.4855230331420898
0.5233686447143554,0.4855230331420898
0.5236467361450196,0.4825927734375000
0.5236467361450196,0.4825927734375000
0.5218774795532226,0.4813734054565429
0.5218774795532226,0.4813734054565429
0.5182342529296875,0.4753068923950195
0.5182342529296875,0.4753068923950195
0.5179075241088867,0.4718845367431641
0.5179075241088867,0.4718845367431641
0.5128681182861328,0.4665779113769531
0.5128681182861328,0.4665779113769531
0.5110473632812500,0.4605812072753906
0.5110473632812500,0.4605812072753906
0.5093393325805664,0.4594402313232422
0.5093393325805664,0.4594402313232422
0.5057092666625976,0.4546182632446289
0.5057092666625976,0.4546182632446289
0.5072805404663085,0.4543745040893554
0.5072805404663085,0.4543745040893554
0.5043273925781250,0.4535327911376953
0.5043273925781250,0.4535327911376953
0.5051576614379882,0.4515117645263672
0.5051576614379882,0.4515117645263672
0.5055976867675781,0.4540626525878906
0.5055976867675781,0.4540626525878906
0.5040298461914062,0.4518350601196289
0.5040298461914062,0.4518350601196289
0.5068582534790039,0.4539722442626953
0.5068582534790039,0.4539722442626953
0.5049573898315429,0.4545564651489258
0.5079402923583984,0.4545564651489258
0.5064039230346680,0.4538400650024414
0.5064039230346680,0.4538400650024414
0.5076478958129883,0.4578569412231445
0.5076478958129883,0.4578569412231445
0.5066162109375000,0.4561666488647461
0.5066162109375000,0.4561666488647461
0.5104682922363281,0.4600193023681640
0.5104682922363281,0.4600193023681640
0.5091705322265625,0.4612295150756835
0.5091705322265625,0.4612295150756835
0.5110708236694336,0.4615104675292969
0.5110708236694336,0.4615104675292969
0.5132011413574219,0.4663072586059570
0.5132011413574219,0.4663072586059570
0.5118684768676758,0.4650787353515625
0.5118684768676758,0.4650787353515625
0.5157091140747070,0.4681657791137695
0.5157091140747070,0.4681657791137695
0.5142934799194335,0.4698205947875976
0.5142934799194335,0.4698205947875976
0.5157285690307617,0.4693502426147461
0.5157285690307617,0.4693502426147461
0.5172534942626953,0.4735799789428711
0.5172534942626953,0.4735799789428711
0.5160999298095703,0.4725116729736328
0.5160999298095703,0.4725116729736328
0.5194616317749023,0.4751764297485351
0.5194616317749023,0.4751764297485351
0.5181947708129883,0.4769897460937500
0.5181947708129883,0.4769897460937500
0.5194519042968749,0.4763374328613281
0.5194519042968749,0.4763374328613281
0.5210895538330078,0.4801883697509766
0.5210895538330078,0.4801883697509766
0.5194787979125977,0.4788488388061523
0.5194787979125977,0.4788488388061523
0.5225532531738281,0.4807846069335937
0.5225532531738281,0.4807846069335937
0.5209808349609375,0.4816417694091797
0.5209808349609375,0.4816417694091797
0.5217870712280274,0.4802444458007812
0.5217870712280274,0.4802444458007812
0.5231191635131835,0.4834156036376953
0.5231191635131835,0.4834156036376953
0.5208240509033203,0.4813991546630859
0.5208240509033203,0.4813991546630859
0.5239225387573242,0.4826305389404297
0.5239225387573242,0.4826305389404297
0.5223403930664062,0.4835849761962890
0.5223403930664062,0.4835849761962890
0.5227947235107422,0.4817733764648438
0.5227947235107422,0.4817733764648438
0.5240541458129883,0.4850584030151367
0.5240541458129883,0.4850584030151367
0.5221607208251953,0.4835655212402343
0.5221607208251953,0.4835655212402343
0.5252082824707031,0.4848186492919921
0.5252082824707031,0.4848186492919921
0.5243562698364258,0.4862085342407226
0.5243562698364258,0.4862085342407226
0.5244649887084961,0.4849576950073242
0.5244649887084961,0.4849576950073242
0.5256059646606445,0.4884212493896484
0.5256059646606445,0.4884212493896484
0.5240032196044921,0.4862119674682617
0.5240032196044921,0.4862119674682617
0.5262622833251953,0.4866502761840820
0.5262622833251953,0.4866502761840820
0.5230293273925781,0.4847963333129883
0.5230293273925781,0.4847963333129883
0.5220331192016602,0.4796699523925781
0.5220331192016602,0.4796699523925781
0.5203886032104492,0.4779521942138671
0.5203886032104492,0.4779521942138671
0.5155517578125000,0.4705507278442382
0.5155517578125000,0.4705507278442382
0.5151552200317383,0.4671838760375976
0.5151552200317383,0.4671838760375976
0.5104167938232421,0.4625535964965820
0.5104167938232421,0.4625535964965820
0.5098875045776367,0.4585733413696289
0.5098875045776367,0.4585733413696289
0.5082183837890625,0.4579553604125977
0.5082183837890625,0.4579553604125977
0.5060674667358398,0.4546297073364258
0.5060674667358398,0.4546297073364258
0.5074035644531250,0.4548763275146484
0.5074035644531250,0.4548763275146484
0.5053659439086914,0.4538669586181641
0.5053659439086914,0.4538669586181641
0.5034645080566406,0.4526155471801758
0.5034645080566406,0.4526155471801758
0.5056766510009766,0.4539888381958008
0.5056766510009766,0.4539888381958008
0.5041185379028320,0.4521068572998047
0.5041185379028320,0.4521068572998047
0.5068502426147461,0.4539648056030273
0.5068502426147461,0.4539648056030273
0.5050117492675781,0.4538841247558594
0.5050117492675781,0.4538841247558594
0.5063787460327148,0.4535568237304687
0.5063787460327148,0.4535568237304687
0.5069686889648437,0.4563783645629882
0.5081239700317383,0.4563783645629882
0.5061733245849609,0.4552373886108398
0.5061733245849609,0.4552373886108398
0.5093473434448242,0.4582500457763672
0.5093473434448242,0.4582500457763672
0.5082698822021484,0.4593069076538085
0.5082698822021484,0.4593069076538085
0.5103899002075195,0.4594408035278320
0.5103899002075195,0.4594408035278320
0.5117305755615235,0.4637191772460937
0.5117305755615235,0.4637191772460937
0.5108041763305664,0.4623029708862305
0.5108041763305664,0.4623029708862305
0.5143152236938476,0.4658008575439453
0.5143152236938476,0.4658008575439453
0.5132984161376953,0.4673635482788085
0.5132984161376953,0.4673635482788085
0.5151065826416016,0.4668731689453125
0.5151065826416016,0.4668731689453125
0.5159191131591797,0.4705461502075195
0.5159191131591797,0.4705461502075195
0.5155151367187499,0.4699384689331054
0.5155151367187499,0.4699384689331054
0.5178623199462891,0.4717929840087891
0.5178623199462891,0.4717929840087891
0.5162298202514648,0.4728029251098633
0.5162298202514648,0.4728029251098633
0.5173519134521484,0.4722730636596679
0.5173519134521484,0.4722730636596679
0.5185644149780273,0.4757057189941406
0.5185644149780273,0.4757057189941406
0.5175018310546875,0.4747283935546875
0.5175018310546875,0.4747283935546875
0.5207170486450196,0.4769989013671875
0.5207170486450196,0.4769989013671875
0.5191640853881836,0.4780300140380859
0.5191640853881836,0.4780300140380859
0.5201786041259765,0.4773307800292969
0.5201786041259765,0.4773307800292969
0.5213327407836914,0.4806175231933594
0.5213327407836914,0.4806175231933594
0.5200178146362304,0.4790777206420898
0.5200178146362304,0.4790777206420898
0.5228565216064452,0.4808504104614257
0.5228565216064452,0.4808504104614257
0.5214162826538086,0.4813779830932617
0.5214162826538086,0.4813779830932617
0.5220325469970702,0.4806163787841797
0.5220325469970702,0.4806163787841797
0.5232593536376953,0.4834871292114258
0.5232593536376953,0.4834871292114258
0.5216995239257812,0.4821292877197265
0.5216995239257812,0.4821292877197265
0.5244289398193359,0.4835294723510742
0.5244289398193359,0.4835294723510742
0.5233949661254883,0.4848546981811523
0.5233949661254883,0.4848546981811523
0.5239168167114258,0.4837760925292969
0.5239168167114258,0.4837760925292969
0.5251104354858398,0.4862628936767578
0.5251104354858398,0.4862628936767578
0.5226928710937500,0.4841943740844726
0.5226928710937500,0.4841943740844726
0.5251613616943359,0.4838647842407227
0.5251613616943359,0.4838647842407227
0.5219776153564453,0.4819290161132812
0.5219776153564453,0.4819290161132812
0.5204320907592773,0.4767957687377929
0.5204320907592773,0.4767957687377929
0.5187664031982422,0.4745836257934570
0.5187664031982422,0.4745836257934570
0.5139129638671874,0.4678636550903320
0.5139129638671874,0.4678636550903320
0.5105787277221679,0.4647142410278320
0.5105787277221679,0.4610246658325195
0.5116962432861328,0.4615310668945312
0.5116962432861328,0.4615310668945312
0.5088741302490234,0.4573087692260742
0.5088741302490234,0.4573087692260742
0.5088277816772461,0.4580154418945312
0.5088277816772461,0.4580154418945312
0.5057109832763672,0.4546875000000000
0.5057109832763672,0.4546875000000000
0.5080656051635742,0.4551927566528320
0.5080656051635742,0.4551927566528320
0.5058637619018554,0.4551956176757812
0.5058637619018554,0.4551956176757812
0.5064531326293945,0.4531848907470703
0.5064531326293945,0.4531848907470703
0.5079706192016601,0.4565019607543945
0.5079706192016601,0.4565019607543945
0.5053825378417969,0.4545701980590820
0.5053825378417969,0.4545701980590820
0.5089668273925781,0.4568670272827148
0.5089668273925781,0.4568670272827148
0.5079425811767578,0.4583021163940429
0.5079425811767578,0.4583021163940429
0.5089593887329101,0.4574958801269531
0.5089593887329101,0.4574958801269531
0.5110914230346679,0.4621129989624023
0.5110914230346679,0.4621129989624023
0.5090229034423828,0.4612558364868164
0.5090229034423828,0.4612558364868164
0.5132703781127930,0.4641202926635742
0.5132703781127930,0.4641202926635742
0.5120870590209960,0.4663982391357422
0.5120870590209960,0.4663982391357422
0.5136623382568359,0.4658346176147461
0.5136623382568359,0.4658346176147461
0.5158893585205078,0.4706954956054688
0.5158893585205078,0.4706954956054688
0.5136920928955078,0.4694355010986328
0.5136920928955078,0.4694355010986328
0.5180974960327148,0.4723806381225586
0.5180974960327148,0.4723806381225586
0.5166704177856445,0.4742706298828125
0.5166704177856445,0.4742706298828125
0.5181489944458008,0.4731811523437500
0.5181489944458008,0.4731811523437500
0.5199188232421875,0.4776855468750000
0.5199188232421875,0.4776855468750000
0.5184991836547851,0.4761812210083007
0.5184991836547851,0.4761812210083007
0.5219123840332031,0.4785495758056640
0.5219123840332031,0.4785495758056640
0.5211730957031250,0.4805534362792969
0.5211730957031250,0.4805534362792969
0.5221395492553711,0.4791961669921875
0.5221395492553711,0.4791961669921875
0.5232725143432617,0.4824268341064453
0.5232725143432617,0.4824268341064453
0.5214992523193359,0.4811456680297851
0.5214992523193359,0.4811456680297851
0.5242406845092773,0.4822191238403320
0.5242406845092773,0.4822191238403320
0.5224187850952148,0.4831180572509766
0.5224187850952148,0.4831180572509766
0.5228153228759765,0.4818323135375976
0.5228153228759765,0.4818323135375976
0.5245880126953125,0.4851070404052734
0.5245880126953125,0.4851070404052734
0.5226024627685547,0.4839082717895508
0.5226024627685547,0.4839082717895508
0.5256076812744140,0.4854629516601562
0.5256076812744140,0.4854629516601562
0.5243328094482421,0.4865158081054687
0.5243328094482421,0.4865158081054687
0.5247825622558594,0.4853788375854492
0.5247825622558594,0.4853788375854492
0.5264196395874023,0.4887880325317382
0.5264196395874023,0.4887880325317382
0.5244134902954102,0.4872533798217773
0.5244134902954102,0.4872533798217773
0.5275949478149414,0.4885013580322266
0.5275949478149414,0.4885013580322266
0.5261100769042969,0.4892383575439453
0.5261100769042969,0.4892383575439453
0.5259727478027344,0.4877162933349609
0.5259727478027344,0.4877162933349609
0.5273935317993164,0.4896108627319335
0.5273935317993164,0.4896108627319335
0.5242532730102539,0.4861478805541992
0.5242532730102539,0.4861478805541992
0.5252695083618164,0.4838733673095703
0.5252695083618164,0.4838733673095703
0.5213527679443359,0.4805385589599609
0.5213527679443359,0.4805385589599609
0.5187870025634765,0.4740268707275390
0.5187870025634765,0.4740268707275390
0.5170303344726562,0.4712036132812500
0.5170303344726562,0.4712036132812500
0.5122632980346680,0.4647445678710938
0.5122632980346680,0.4647445678710938
0.5125785827636719,0.4620763778686523
0.5125785827636719,0.4620763778686523
0.5090549468994140,0.4595420837402344
0.5090549468994140,0.4595420837402344
0.5083213806152344,0.4561225891113281
0.5083213806152344,0.4561225891113281
0.5084524154663086,0.4574666976928711
0.5084524154663086,0.4574666976928711
0.5059953689575195,0.4549129486083984
0.5059953689575195,0.4549129486083984
0.5087041854858398,0.4557266235351562
0.5087041854858398,0.4557266235351562
0.5065446853637695,0.4554450988769531
0.5065446853637695,0.4554450988769531
0.5072839736938476,0.4547510147094727
0.5072839736938476,0.4547510147094727
0.5082029342651367,0.4578306198120117
0.5082029342651367,0.4578306198120117
0.5070865631103515,0.4563068389892578
0.5070865631103515,0.4563068389892578
0.5105157852172851,0.4588829040527344
0.5105157852172851,0.4588829040527344
0.5092145919799804,0.4599254608154297
0.5092145919799804,0.4599254608154297
0.5105323791503906,0.4605749130249023
0.5105323791503906,0.4605749130249023
0.5121923446655273,0.4643011093139648
0.5121923446655273,0.4643011093139648
0.5114267349243163,0.4642135620117187
0.5114267349243163,0.4642135620117187
0.5150064468383789,0.4670928955078125
0.5150064468383789,0.4670928955078125
0.5142688751220703,0.4688575744628906
0.5171413421630859,0.4688575744628906
0.5156187057495117,0.4692884445190429
0.5156187057495117,0.4692884445190429
0.5175155639648438,0.4731245040893555
0.5175155639648438,0.4731245040893555
0.5159036636352539,0.4724721908569336
0.5159036636352539,0.4724721908569336
0.5196561813354492,0.4752038955688476
0.5196561813354492,0.4752038955688476
0.5185815811157226,0.4764690399169922
0.5185815811157226,0.4764690399169922
0.5195978164672851,0.4758047103881836
0.5195978164672851,0.4758047103881836
0.5209402084350586,0.4790611267089844
0.5209402084350586,0.4790611267089844
0.5186571121215821,0.4772294998168945
0.5186571121215821,0.4772294998168945
0.5221847534179688,0.4791154861450195
0.5221847534179688,0.4791154861450195
0.5204956054687500,0.4798152923583984
0.5204956054687500,0.4798152923583984
0.5213155746459961,0.4782548904418945
0.5213155746459961,0.4782548904418945
0.5229755401611328,0.4816297531127929
0.5229755401611328,0.4816297531127929
0.5204092025756836,0.4795183181762695
0.5204092025756836,0.4795183181762695
0.5239419937133789,0.4816205978393555
0.5239419937133789,0.4816205978393555
0.5224079132080078,0.4817356109619140
0.5224079132080078,0.4817356109619140
0.5229915618896485,0.4808000564575195
0.5229915618896485,0.4808000564575195
0.5240787506103516,0.4838607788085937
0.5240787506103516,0.4838607788085937
0.5226722717285156,0.4819719314575195
0.5226722717285156,0.4819719314575195
0.5249221801757812,0.4832777023315429
0.5249221801757812,0.4832777023315429
0.5229377746582031,0.4837835311889648
0.5229377746582031,0.4837835311889648
0.5235609054565430,0.4828897476196289
0.5235609054565430,0.4828897476196289
0.5254560470581054,0.4863132476806640
0.5254560470581054,0.4863132476806640
0.5235208511352539,0.4849845886230468
0.5235208511352539,0.4849845886230468
0.5266365051269531,0.4868722915649414
0.5266365051269531,0.4868722915649414
0.5254520416259766,0.4879365921020508
0.5254520416259766,0.4879365921020508
0.5255784988403320,0.4863498687744141
0.5255784988403320,0.4863498687744141
0.5266988754272460,0.4880086898803710
0.5266988754272460,0.4880086898803710
0.5230024337768554,0.4837274551391602
0.5230024337768554,0.4837274551391602
0.5236387252807617,0.4807388305664062
0.5236387252807617,0.4807388305664062
0.5194313049316406,0.4762859344482422
0.5194313049316406,0.4762859344482422
0.5160043716430663,0.4688850402832031
0.5160043716430663,0.4688850402832031
0.5145114898681641,0.4662843704223633
0.5145114898681641,0.4662843704223633
0.5094463348388671,0.4601028442382812
0.5094463348388671,0.4601028442382812
0.5102325439453125,0.4576766967773437
0.5102325439453125,0.4576766967773437
0.5074104309082031,0.4563554763793945
0.5074104309082031,0.4563554763793945
0.5059799194335938,0.4529016494750976
0.5059799194335938,0.4529016494750976
0.5074024200439453,0.4548568725585938
0.5074024200439453,0.4548568725585938
0.5047353744506836,0.4526218414306640
0.5047353744506836,0.4526218414306640
0.5074201583862304,0.4534183502197265
0.5074201583862304,0.4534183502197265
0.5060972213745117,0.4545925140380859
0.5060972213745117,0.4545925140380859
0.5065727233886719,0.4535282135009766
0.5065727233886719,0.4535282135009766
0.5086835861206055,0.4571949005126953
0.5086835861206055,0.4571949005126953
0.5067461013793945,0.4560796737670898
0.5067461013793945,0.4560796737670898
0.5103115081787110,0.4585659027099609
0.5103115081787110,0.4585659027099609
0.5097484588623047,0.4609634399414062
0.5097484588623047,0.4609634399414062
0.5105764389038085,0.4605663299560547
0.5105764389038085,0.4605663299560547
0.5137001037597656,0.4656309127807617
0.5137001037597656,0.4656309127807617
0.5118381500244140,0.4652309417724609
0.5118381500244140,0.4652309417724609
0.5161222457885742,0.4682075500488281
0.5161222457885742,0.4682075500488281
0.5156164169311523,0.4711429595947265
0.5192613601684570,0.4711429595947265
0.5166481018066406,0.4709650039672851
0.5166481018066406,0.4709650039672851
0.5199417114257813,0.4760839462280273
0.5199417114257813,0.4760839462280273
0.5177135467529297,0.4752937316894531
0.5177135467529297,0.4752937316894531
0.5217430114746093,0.4776586532592773
0.5217430114746093,0.4776586532592773
0.5208068847656250,0.4799623489379883
0.5208068847656250,0.4799623489379883
0.5209745407104492,0.4785953521728515
0.5209745407104492,0.4785953521728515
0.5237371444702148,0.4828731536865234
0.5237371444702148,0.4828731536865234
0.5211959838867187,0.4815439224243164
0.5211959838867187,0.4815439224243164
0.5246829986572266,0.4832382202148438
0.5246829986572266,0.4832382202148438
0.5233886718749999,0.4847236633300781
0.5233886718749999,0.4847236633300781
0.5236507415771484,0.4833915710449219
0.5236507415771484,0.4833915710449219
0.5260356903076172,0.4866765975952148
0.5260356903076172,0.4866765975952148
0.5229818344116210,0.4841011047363281
0.5229818344116210,0.4841011047363281
0.5263572692871094,0.4858446121215820
0.5263572692871094,0.4858446121215820
0.5246400833129883,0.4865999221801758
0.5246400833129883,0.4865999221801758
0.5248003005981445,0.4845130920410156
0.5248003005981445,0.4845130920410156
0.5271543502807617,0.4886209487915039
0.5271543502807617,0.4886209487915039
0.5241777420043945,0.4857393264770508
0.5241777420043945,0.4857393264770508
0.5278678894042969,0.4878290176391601
0.5278678894042969,0.4878290176391601
0.5271194458007812,0.4888320922851562
0.5271194458007812,0.4888320922851562
0.5262399673461914,0.4864459991455078
0.5262399673461914,0.4864459991455078
0.5286460876464844,0.4905080795288086
0.5286460876464844,0.4905080795288086
0.5261060714721679,0.4885494232177734
0.5261060714721679,0.4885494232177734
0.5287364959716797,0.4888120651245117
0.5287364959716797,0.4888120651245117
0.5264648437500000,0.4889780044555664
0.5264648437500000,0.4889780044555664
0.5251876831054687,0.4852804183959961
0.5251876831054687,0.4852804183959961
0.5255453109741210,0.4853193283081054
0.5255453109741210,0.4853193283081054
0.5202587127685546,0.4785707473754883
0.5202587127685546,0.4785707473754883
0.5201934814453125,0.4739742279052734
0.5201934814453125,0.4739742279052734
0.5151809692382813,0.4689388275146484
0.5151809692382813,0.4689388275146484
0.5116825103759766,0.4619482040405273
0.5116825103759766,0.4619482040405273
0.5112258911132812,0.4606372833251953
0.5112258911132812,0.4606372833251953
0.5066082000732421,0.4553260803222656
0.5066082000732421,0.4553260803222656
0.5049253463745117,0.4516553878784180
0.5049253463745117,0.4520072937011719
0.5070848464965820,0.4530939102172851
0.5044481277465820,0.4530939102172851
0.5042158126831054,0.4518550872802734
0.5042158126831054,0.4518550872802734
0.5055902481079101,0.4506185531616211
0.5055902481079101,0.4506185531616211
0.5056016921997070,0.4528541564941406
0.5056016921997070,0.4528541564941406
0.5043519973754883,0.4507633209228515
0.5043519973754883,0.4507633209228515
0.5073492050170898,0.4535745620727539
0.5073492050170898,0.4535745620727539
0.5055639266967773,0.4536735534667968
0.5055639266967773,0.4536735534667968
0.5074699401855468,0.4540060043334961
0.5059175491333008,0.4540060043334961
0.5084152221679688,0.4574077606201172
0.5084152221679688,0.4574077606201172
0.5077268600463867,0.4564830780029296
0.5077268600463867,0.4564830780029296
0.5111166000366211,0.4604936599731445
0.5111166000366211,0.4604936599731445
0.5098995208740235,0.4612712860107422
0.5098995208740235,0.4612712860107422
0.5128303527832031,0.4626394271850586
0.5128303527832031,0.4626394271850586
0.5133041381835938,0.4662889480590820
0.5133041381835938,0.4662889480590820
0.5131021499633789,0.4659090042114258
0.5131021499633789,0.4659090042114258
0.5167190551757812,0.4701004028320312
0.5167190551757812,0.4701004028320312
0.5154853820800781,0.4707813262939453
0.5154853820800781,0.4707813262939453
0.5180099487304687,0.4718896865844726
0.5164163589477538,0.4718896865844726
0.5187601089477539,0.4757354736328125
0.5187601089477539,0.4757354736328125
0.5180425643920898,0.4747472763061523
0.5180425643920898,0.4747472763061523
0.5220130920410156,0.4786851882934570
0.5220130920410156,0.4786851882934570
0.5200710296630859,0.4786863327026367
0.5200710296630859,0.4786863327026367
0.5220428466796875,0.4788825988769531
0.5220428466796875,0.4788825988769531
0.5227838516235351,0.4818065643310547
0.5227838516235351,0.4818065643310547
0.5215026855468750,0.4798645019531250
0.5215026855468750,0.4798645019531250
0.5244895935058593,0.4827392578125000
0.5244895935058593,0.4827392578125000
0.5222620010375977,0.4823707580566406
0.5222620010375977,0.4823707580566406
0.5237428665161132,0.4816429138183593
0.5237428665161132,0.4816429138183593
0.5242080688476562,0.4845405578613281
0.5242080688476562,0.4845405578613281
0.5223077774047852,0.4818489074707031
0.5223077774047852,0.4818489074707031
0.5250120162963867,0.4839574813842773
0.5250120162963867,0.4839574813842773
0.5225120544433594,0.4830539703369141
0.5225120544433594,0.4830539703369141
0.5240798950195312,0.4818363189697266
0.5240798950195312,0.4818363189697266
0.5235889434814452,0.4838991165161133
0.5235889434814452,0.4838991165161133
0.5214632034301757,0.4808744430541992
0.5214632034301757,0.4808744430541992
0.5246377944946289,0.4833955764770508
0.5246377944946289,0.4833955764770508
0.5222002029418945,0.4817367553710937
0.5222002029418945,0.4817367553710937
0.5237314224243164,0.4806112289428711
0.5237314224243164,0.4806112289428711
0.5227157592773437,0.4816194534301758
0.5227157592773437,0.4816194534301758
0.5203330993652343,0.4771911621093750
0.5203330993652343,0.4771911621093750
0.5217905044555664,0.4766859054565429
0.5217905044555664,0.4766859054565429
0.5165542602539063,0.4711149215698242
0.5165542602539063,0.4711149215698242
0.5155265808105468,0.4657768249511718
0.5155265808105468,0.4657768249511718
0.5133773803710937,0.4641717910766601
0.5133773803710937,0.4641717910766601
0.5087408065795899,0.4570650100708007
0.5087408065795899,0.4570650100708007
0.5095527648925781,0.4561014175415039
0.5095527648925781,0.4561014175415039
0.5051794052124023,0.4529010772705078
0.5051794052124023,0.4529010772705078
0.5054889678955078,0.4498426437377930
0.5054889678955078,0.4498426437377930
0.5048583984375000,0.4508445739746094
0.5048583984375000,0.4508445739746094
0.5020786285400390,0.4469959259033203
0.5020786285400390,0.4469959259033203
0.5046020507812500,0.4487239837646484
0.5046020507812500,0.4487239837646484
0.5018938064575195,0.4474668502807617
0.5018938064575195,0.4474668502807617
0.5034084320068359,0.4462703704833984
0.5034084320068359,0.4462703704833984
0.5035715103149414,0.4486433029174804
0.5035715103149414,0.4486433029174804
0.5016139984130860,0.4462532043457031
0.5016139984130860,0.4462532043457031
0.5049333572387695,0.4489814758300781
0.5049333572387695,0.4489814758300781
0.5031068801879882,0.4491073608398438
0.5031068801879882,0.4491073608398438
0.5046129226684570,0.4485729217529297
0.5046129226684570,0.4485729217529297
0.5058614730834960,0.4524713516235351
0.5058614730834960,0.4524713516235351
0.5043869018554688,0.4508411407470703
0.5043869018554688,0.4508411407470703
0.5085868835449219,0.4546857833862304
0.5085868835449219,0.4546857833862304
0.5067260742187499,0.4556419372558593
0.5067260742187499,0.4556419372558593
0.5089828491210937,0.4561117172241211
0.5089828491210937,0.4561117172241211
0.5104877471923828,0.4605897903442382
0.5104877471923828,0.4605897903442382
0.5096271514892577,0.4595100402832031
0.5096271514892577,0.4595100402832031
0.5135026931762695,0.4633209228515625
0.5135026931762695,0.4633209228515625
0.5117414474487304,0.4643302917480469
0.5117414474487304,0.4643302917480469
0.5140954971313476,0.4646862030029297
0.5140954971313476,0.4646862030029297
0.5155363082885742,0.4689113616943359
0.5155363082885742,0.4689113616943359
0.5138975143432617,0.4671146392822265
0.5138975143432617,0.4671146392822265
0.5174749374389648,0.4708311080932617
0.5174749374389648,0.4708311080932617
0.5158561706542969,0.4713953018188476
0.5158561706542969,0.4713953018188476
0.5182439804077148,0.4710273742675781
0.5182439804077148,0.4710273742675781
0.5189289093017578,0.4749601364135742
0.5189289093017578,0.4749601364135742
0.5172632217407226,0.4729717254638672
0.5172632217407226,0.4729717254638672
0.5210981369018555,0.4763786315917968
0.5210981369018555,0.4763786315917968
0.5190010070800781,0.4766595840454101
0.5190010070800781,0.4766595840454101
0.5206872940063476,0.4759443283081055
0.5206872940063476,0.4759443283081055
0.5218757629394531,0.4798627853393554
0.5218757629394531,0.4798627853393554
0.5199657440185547,0.4775602340698242
0.5199657440185547,0.4775602340698242
0.5241302490234375,0.4809465408325195
0.5241302490234375,0.4809465408325195
0.5213006973266602,0.4807308197021484
0.5213006973266602,0.4807308197021484
0.5229858398437500,0.4797861099243164
0.5229858398437500,0.4797861099243164
0.5238573074340820,0.4840633392333984
0.5238573074340820,0.4840633392333984
0.5221298217773437,0.4814226150512695
0.5221298217773437,0.4814226150512695
0.5255584716796875,0.4842739105224609
0.5255584716796875,0.4842739105224609
0.5230579376220703,0.4843940734863281
0.5230579376220703,0.4843940734863281
0.5248214721679687,0.4831872940063476
0.5248214721679687,0.4831872940063476
0.5249221801757812,0.4849096298217773
0.5249221801757812,0.4849096298217773
0.5208480834960937,0.4788213729858398
0.5208480834960937,0.4788213729858398
0.5222230911254883,0.4774126052856445
0.5222230911254883,0.4774126052856445
0.5163202285766602,0.4716836929321289
0.5163202285766602,0.4716836929321289
0.5146556854248047,0.4642536163330078
0.5146556854248047,0.4642536163330078
0.5119943618774414,0.4619459152221679
0.5119943618774414,0.4619459152221679
0.5065904617309570,0.4541616439819336
0.5065904617309570,0.4541616439819336
0.5090463638305663,0.4546239852905273
0.5090463638305663,0.4546239852905273
0.5048686981201171,0.4509395599365234
0.5048686981201171,0.4509395599365234
0.5047159194946289,0.4479572296142578
0.5047159194946289,0.4479572296142578
0.5052148818969726,0.4503227233886719
0.5052148818969726,0.4503227233886719
0.5020917892456055,0.4460088729858399
0.5020917892456055,0.4460088729858399
0.5050918579101562,0.4476619720458984
0.5050918579101562,0.4476619720458984
0.5020196914672851,0.4471527099609375
0.5020196914672851,0.4471527099609375
0.5032836914062500,0.4458189010620117
0.5032836914062500,0.4458189010620117
0.5040349960327148,0.4494461059570312
0.5040349960327148,0.4494461059570312
0.5024368286132812,0.4468156814575195
0.5024368286132812,0.4468156814575195
0.5059347152709961,0.4500022888183594
0.5059347152709961,0.4500022888183594
0.5038890838623047,0.4506134033203125
0.5038890838623047,0.4506134033203125
0.5057659149169922,0.4500680923461914
0.5057659149169922,0.4500680923461914
0.5071798324584961,0.4544672012329101
0.5071798324584961,0.4544672012329101
0.5053705215454102,0.4526178359985351
0.5053705215454102,0.4526178359985351
0.5092821121215820,0.4560401916503906
0.5092821121215820,0.4560401916503906
0.5075792312622071,0.4568281173706055
0.5075792312622071,0.4568281173706055
0.5096574783325195,0.4567806243896484
0.5096574783325195,0.4567806243896484
0.5105867385864258,0.4607397079467773
0.5105867385864258,0.4607397079467773
0.5093650817871094,0.4592691421508789
0.5093650817871094,0.4592691421508789
0.5129133224487304,0.4624717712402344
0.5129133224487304,0.4624717712402344
0.5116802215576172,0.4633123397827148
0.5116802215576172,0.4633123397827148
0.5135198593139648,0.4631423950195312
0.5135198593139648,0.4631423950195312
0.5142333984374999,0.4676570892333984
0.5142333984374999,0.4676570892333984
0.5137521743774414,0.4662786483764648
0.5137521743774414,0.4662786483764648
0.5158178329467773,0.4682310104370117
0.5158178329467773,0.4681858062744140
0.5184648513793945,0.4725625991821289
0.5184648513793945,0.4725625991821289
0.5162790298461913,0.4714788436889648
0.5162790298461913,0.4714788436889648
0.5198352813720702,0.4731805801391601
0.5198352813720702,0.4731805801391601
0.5190748214721680,0.4752325057983398
0.5190748214721680,0.4752325057983398
0.5189374923706055,0.4738048553466797
0.5189374923706055,0.4738048553466797
0.5213962554931640,0.4779945373535156
0.5213962554931640,0.4779945373535156
0.5193689346313476,0.4766115188598632
0.5193689346313476,0.4766115188598632
0.5225057601928711,0.4781398773193359
0.5225057601928711,0.4781398773193359
0.5219890594482421,0.4802661895751953
0.5219890594482421,0.4802661895751953
0.5215862274169921,0.4785467147827148
0.5215862274169921,0.4785467147827148
0.5242664337158203,0.4827260971069336
0.5242664337158203,0.4827260971069336
0.5219884872436523,0.4812091827392578
0.5219884872436523,0.4812091827392578
0.5250663757324219,0.4825195312500000
0.5250663757324219,0.4825195312500000
0.5241828918457031,0.4842350006103515
0.5241828918457031,0.4842350006103515
0.5235082626342773,0.4822940826416016
0.5235082626342773,0.4822940826416016
0.5253610610961914,0.4847951889038086
0.5243288040161133,0.4847951889038086
0.5219650268554688,0.4810169219970703
0.5219650268554688,0.4810169219970703
0.5227546691894531,0.4781290054321289
0.5227546691894531,0.4781290054321289
0.5187269210815429,0.4744010925292969
0.5187269210815429,0.4744010925292969
0.5148834228515625,0.4661893844604492
0.5148834228515625,0.4661893844604492
0.5131233215332031,0.4629249572753906
0.5131233215332031,0.4629249572753906
0.5068571090698242,0.4550777435302734
0.5068571090698242,0.4550777435302734
0.5069011688232422,0.4512525558471679
0.5069011688232422,0.4512525558471679
0.5039806365966797,0.4495702743530273
0.5039806365966797,0.4495702743530273
0.5016992568969726,0.4444101333618164
0.5016992568969726,0.4444101333618164
0.5030324935913085,0.4461896896362305
0.5030324935913085,0.4461896896362305
0.4994974136352539,0.4429224014282226
0.4994974136352539,0.4429224014282226
0.4996387481689453,0.4419250488281250
0.4996387481689453,0.4419250488281250
0.5027498245239258,0.4440490722656250
0.5003202438354492,0.4440490722656250
0.5001960754394531,0.4439632415771484
0.5001960754394531,0.4439632415771484
0.5023658752441406,0.4430671691894531
0.5023658752441406,0.4430671691894531
0.5025833129882812,0.4463956832885742
0.5025833129882812,0.4463956832885742
0.5008815765380860,0.4444942474365234
0.5008815765380860,0.4444942474365234
0.5047084808349609,0.4474817276000976
0.5023046493530273,0.4474817276000976
0.5032390594482422,0.4486627578735352
0.5032390594482422,0.4486627578735352
0.5048652648925781,0.4484304428100586
0.5048652648925781,0.4484304428100586
0.5063867568969727,0.4532466888427734
0.5063867568969727,0.4532466888427734
0.5055273056030273,0.4521926879882812
0.5055273056030273,0.4521926879882812
0.5096603393554687,0.4558668136596680
0.5096603393554687,0.4558668136596680
0.5080547332763672,0.4571920394897461
0.5080547332763672,0.4571920394897461
0.5098594665527344,0.4569168090820312
0.5098594665527344,0.4569168090820312
0.5112968444824219,0.4614000320434570
0.5112968444824219,0.4614000320434570
0.5101438522338867,0.4598339080810547
0.5101438522338867,0.4598339080810547
0.5133962631225586,0.4625175476074219
0.5133962631225586,0.4625175476074219
0.5119377136230469,0.4636608123779297
0.5119377136230469,0.4636608123779297
0.5132062911987304,0.4625278472900390
0.5132062911987304,0.4625278472900390
0.5145835876464844,0.4662895202636719
0.5145835876464844,0.4662895202636719
0.5128000259399413,0.4642696380615234
0.5128000259399413,0.4642696380615234
0.5161067962646484,0.4668754577636718
0.5161067962646484,0.4668754577636718
0.5141515731811523,0.4676897048950195
0.5172695159912110,0.4676897048950195
0.5157011032104492,0.4665126800537109
0.5157011032104492,0.4665126800537109
0.5167367935180663,0.4704494476318359
0.5167367935180663,0.4704494476318359
0.5152399063110351,0.4685714721679687
0.5152399063110351,0.4685714721679687
0.5186010360717773,0.4712837219238281
0.5186010360717773,0.4712837219238281
0.5169530868530273,0.4721431732177734
0.5169530868530273,0.4721431732177734
0.5182313919067383,0.4710737228393554
0.5182313919067383,0.4710737228393554
0.5194982528686524,0.4753875732421875
0.5194982528686524,0.4753875732421875
0.5177845001220703,0.4732446670532227
0.5177845001220703,0.4732446670532227
0.5219392776489258,0.4764312744140625
0.5219392776489258,0.4764312744140625
0.5195205688476562,0.4770835876464843
0.5195205688476562,0.4770835876464843
0.5211364746093750,0.4761606216430664
0.5211364746093750,0.4761606216430664
0.5224479675292969,0.4805173873901367
0.5224479675292969,0.4805173873901367
0.5208520889282227,0.4782548904418945
0.5208520889282227,0.4782548904418945
0.5242486953735351,0.4804275512695312
0.5242486953735351,0.4804275512695312
0.5216714859008789,0.4804241180419921
0.5245954513549804,0.4804241180419921
0.5219884872436523,0.4766281127929687
0.5219884872436523,0.4766281127929687
0.5212669372558594,0.4773239135742187
0.5212669372558594,0.4773239135742187
0.5163694381713867,0.4702674865722656
0.5163694381713867,0.4702674865722656
0.5169868469238281,0.4671569824218750
0.5169868469238281,0.4671569824218750
0.5113243103027344,0.4617279052734375
0.5113243103027344,0.4617279052734375
0.5091974258422851,0.4544443130493164
0.5091974258422851,0.4544443130493164
0.5074161529541016,0.4538148880004882
0.5074161529541016,0.4538148880004882
0.5030988693237305,0.4478204727172851
0.5030988693237305,0.4478204727172851
0.5050729751586914,0.4474130630493164
0.5050729751586914,0.4474130630493164
0.5015996932983399,0.4461965560913086
0.5015996932983399,0.4461965560913086
0.5017736434936523,0.4427707672119141
0.5017736434936523,0.4427707672119141
0.5022777557373047,0.4455608367919922
0.5022777557373047,0.4455608367919922
0.4997062683105469,0.4425664901733398
0.4997062683105469,0.4425664901733398
0.5032676696777344,0.4446310043334961
0.5032676696777344,0.4446310043334961
0.5013610839843750,0.4454326629638672
0.5013610839843750,0.4454326629638672
0.5022388458251953,0.4436679840087890
0.5022388458251953,0.4436679840087890
0.5042215347290039,0.4480001449584961
0.5042215347290039,0.4480001449584961
0.5021404266357422,0.4461147308349609
0.5021404266357422,0.4461147308349609
0.5069023132324219,0.4502243041992187
0.5069023132324219,0.4502243041992187
0.5056308746337891,0.4515203475952148
0.5056308746337891,0.4515203475952148
0.5065555572509766,0.4504611968994141
0.5065555572509766,0.4504611968994141
0.5092220306396484,0.4560562133789062
0.5092220306396484,0.4560562133789062
0.5072427749633789,0.4542709350585937
0.5072427749633789,0.4542709350585937
0.5111532211303711,0.4573945999145508
0.5111532211303711,0.4573945999145508
0.5096946716308594,0.4597274780273437
0.5096946716308594,0.4597274780273437
0.5113386154174805,0.4589401245117187
0.5113386154174805,0.4589401245117187
0.5133304595947266,0.4640012741088867
0.5133304595947266,0.4640012741088867
0.5116916656494140,0.4628820419311523
0.5116916656494140,0.4628820419311523
0.5157651901245117,0.4657791137695312
0.5157651901245117,0.4657791137695312
0.5144536972045898,0.4677663803100586
0.5144536972045898,0.4677663803100586
0.5152891159057617,0.4662443161010742
0.5152891159057617,0.4662443161010742
0.5170246124267578,0.4705558776855469
0.5170246124267578,0.4705558776855469
0.5149869918823242,0.4687248229980469
0.5149869918823242,0.4687248229980469
0.5189546585083008,0.4705604553222656
0.5189546585083008,0.4705604553222656
0.5167734146118164,0.4713054656982422
0.5167734146118164,0.4713054656982422
0.5174995422363281,0.4691047668457031
0.5174995422363281,0.4691047668457031
0.5186450958251952,0.4728069305419922
0.5192356109619141,0.4728069305419922
0.5168123245239258,0.4707435607910156
0.5168123245239258,0.4707435607910156
0.5193431854248046,0.4716917037963867
0.5193431854248046,0.4716917037963867
0.5176729202270508,0.4728670120239258
0.5176729202270508,0.4728670120239258
0.5182159423828124,0.4712425231933594
0.5182159423828124,0.4712425231933594
0.5198959350585938,0.4750694274902343
0.5198959350585938,0.4750694274902343
0.5182170867919922,0.4733345031738281
0.5182170867919922,0.4733345031738281
0.5218872070312500,0.4764089584350586
0.5218872070312500,0.4764089584350586
0.5204658508300781,0.4773908615112304
0.5204658508300781,0.4773908615112304
0.5221046447753906,0.4767917633056640
0.5221046447753906,0.4767917633056640
0.5227592468261718,0.4802793502807617
0.5227592468261718,0.4802793502807617
0.5213521957397461,0.4784780502319336
0.5213521957397461,0.4784780502319336
0.5244695663452148,0.4807542800903320
0.5244695663452148,0.4807542800903320
0.5223369598388672,0.4800699234008789
0.5223369598388672,0.4800699234008789
0.5225246429443359,0.4765777587890625
0.5225246429443359,0.4765777587890625
0.5213293075561524,0.4773736953735351
0.5213293075561524,0.4773736953735351
0.5173450469970703,0.4711332321166992
0.5173450469970703,0.4711332321166992
0.5180076599121094,0.4681154251098633
0.5180076599121094,0.4681154251098633
0.5122432708740234,0.4624683380126953
0.5122432708740234,0.4624683380126953
0.5102285385131836,0.4560819625854492
0.5102285385131836,0.4560819625854492
0.5081909179687499,0.4548706054687500
0.5081909179687499,0.4548706054687500
0.5044692993164063,0.4490507125854492
0.5044692993164063,0.4490507125854492
0.5055965423583985,0.4481042861938476
0.5055965423583985,0.4481042861938476
0.5022125244140625,0.4466560363769531
0.5022125244140625,0.4466560363769531
0.5021913528442382,0.4433498382568359
0.5021913528442382,0.4433498382568359
0.5027864456176757,0.4458566665649414
0.5027864456176757,0.4458566665649414
0.5005548477172851,0.4426975250244141
0.5005548477172851,0.4426975250244141
0.5033403396606445,0.4447626113891601
0.5033403396606445,0.4447626113891601
0.5010383605957031,0.4446790695190430
0.5010383605957031,0.4446790695190430
0.5025695800781250,0.4434911727905274
0.5025695800781250,0.4434911727905274
0.5030553817749023,0.4468442916870117
0.5030553817749023,0.4468442916870117
0.5016918182373047,0.4453914642333984
0.5016918182373047,0.4453914642333984
0.5057744979858398,0.4478279113769531
0.5057744979858398,0.4478279113769531
0.5042015075683594,0.4491062164306641
0.5042015075683594,0.4491062164306641
0.5057172775268555,0.4482501983642578
0.5057172775268555,0.4482501983642578
0.5075397491455078,0.4533176422119141
0.5075397491455078,0.4533176422119141
0.5064828872680663,0.4519643783569336
0.5064828872680663,0.4519643783569336
0.5104637145996094,0.4546937942504883
0.5104637145996094,0.4546937942504883
0.5085342407226562,0.4559309005737304
0.5085342407226562,0.4559309005737304
0.5101919174194336,0.4552562713623047
0.5101919174194336,0.4552562713623047
0.5113203048706054,0.4594894409179687
0.5113203048706054,0.4594894409179687
0.5096431732177734,0.4576818466186523
0.5096431732177734,0.4576818466186523
0.5131656646728515,0.4601600646972656
0.5131656646728515,0.4601600646972656
0.5114421844482422,0.4615339279174804
0.5114421844482422,0.4615339279174804
0.5127216339111328,0.4607437133789062
0.5127216339111328,0.4607437133789062
0.5147266387939453,0.4649271011352539
0.5147266387939453,0.4649271011352539
0.5124183654785156,0.4630954742431641
0.5124183654785156,0.4630954742431641
0.5159980773925781,0.4652784347534180
0.5159980773925781,0.4652784347534180
0.5141910552978516,0.4663890838623047
0.5141910552978516,0.4663890838623047
0.5152193069458008,0.4646318435668945
0.5152193069458008,0.4646318435668945
0.5165102005004882,0.4681268692016601
0.5165102005004882,0.4681268692016601
0.5141132354736327,0.4659696578979492
0.5141132354736327,0.4659696578979492
0.5174274444580078,0.4675615310668945
0.5174274444580078,0.4675615310668945
0.5158041000366210,0.4685125350952148
0.5158041000366210,0.4685125350952148
0.5162212371826171,0.4665584564208984
0.5162212371826171,0.4665584564208984
0.5177490234375000,0.4701725006103515
0.5177490234375000,0.4701725006103515
0.5155855178833008,0.4684741973876953
0.5155855178833008,0.4684741973876953
0.5191595077514648,0.4704631805419922
0.5191595077514648,0.4704631805419922
0.5172981262207031,0.4717563629150390
0.5172981262207031,0.4717563629150390
0.5183589935302734,0.4705501556396484
0.5183589935302734,0.4705501556396484
0.5200607299804687,0.4743839263916015
0.5200607299804687,0.4743839263916015
0.5180316925048828,0.4720373153686523
0.5180316925048828,0.4720373153686523
0.5208177566528320,0.4730066299438476
0.5208177566528320,0.4730066299438476
0.5175413131713867,0.4718221664428711
0.5175413131713867,0.4718221664428711
0.5167711257934570,0.4668886184692382
0.5167711257934570,0.4668886184692382
0.5157760620117188,0.4660537719726562
0.5157760620117188,0.4660537719726562
0.5103670120239258,0.4586431503295898
0.5103670120239258,0.4586431503295898
0.5111257553100585,0.4559389114379883
0.5111257553100585,0.4559389114379883
0.5062271118164062,0.4522974014282226
0.5062271118164062,0.4522974014282226
0.5050380706787109,0.4468460083007812
0.5050380706787109,0.4468460083007812
0.5047908782958984,0.4474027633666992
0.5047908782958984,0.4474027633666992
0.5007991790771484,0.4431844711303711
0.5007991790771484,0.4431844711303711
0.5036287307739258,0.4435392379760742
0.5036287307739258,0.4435392379760742
0.5010154724121093,0.4433561325073242
0.5010154724121093,0.4433561325073242
0.5010566711425781,0.4405763626098633
0.5010566711425781,0.4405763626098633
0.5024614334106445,0.4443901062011719
0.5024614334106445,0.4443901062011719
0.5019893646240234,0.4449983596801758
0.5048669815063477,0.4449983596801758
0.5009187698364258,0.4424703598022461
0.5009187698364258,0.4424703598022461
0.5045757293701172,0.4469415664672852
0.5045757293701172,0.4469415664672852
0.5022457122802734,0.4472333908081055
0.5022457122802734,0.4472333908081055
0.5057573318481445,0.4477529525756836
0.5057573318481445,0.4477529525756836
0.5059890747070312,0.4521034240722656
0.5059890747070312,0.4521034240722656
0.5057172775268555,0.4505710601806641
0.5057172775268555,0.4505710601806641
0.5099618911743163,0.4555149078369141
0.5099618911743163,0.4555149078369141
0.5075906753540039,0.4561683654785156
0.5075906753540039,0.4561683654785156
0.5120309829711914,0.4573225021362304
0.5120309829711914,0.4573225021362304
0.5113718032836914,0.4609834671020507
0.5113718032836914,0.4609834671020507
0.5115909576416016,0.4601423263549804
0.5115909576416016,0.4601423263549804
0.5155014038085938,0.4639749526977539
0.5155014038085938,0.4639749526977539
0.5124801635742188,0.4636459350585938
0.5124801635742188,0.4636459350585938
0.5163465499877929,0.4643926620483398
0.5163465499877929,0.4643926620483398
0.5154796600341797,0.4672330856323242
0.5154796600341797,0.4672330856323242
0.5139163970947266,0.4643680572509765
0.5139163970947266,0.4643680572509765
0.5176591873168945,0.4679197311401367
0.5176591873168945,0.4679197311401367
0.5146482467651367,0.4674940109252930
0.5146482467651367,0.4674940109252930
0.5169479370117187,0.4668823242187500
0.5169479370117187,0.4668823242187500
0.5171562194824219,0.4703710556030273
0.5171562194824219,0.4703710556030273
0.5155706405639648,0.4676628112792969
0.5155706405639648,0.4676628112792969
0.5191606521606446,0.4708848953247070
0.5191606521606446,0.4708848953247070
0.5160638809204101,0.4701736450195312
0.5160638809204101,0.4701736450195312
0.5182582855224609,0.4690721511840820
0.5182582855224609,0.4690721511840820
0.5181495666503906,0.4717363357543945
0.5181495666503906,0.4717363357543945
0.5163105010986327,0.4685937881469726
0.5163105010986327,0.4685937881469726
0.5194850921630859,0.4714359283447265
0.5194850921630859,0.4714359283447265
0.5165508270263671,0.4705072402954101
0.5165508270263671,0.4705072402954101
0.5185993194580077,0.4696054458618164
0.5185993194580077,0.4696054458618164
0.5185707092285156,0.4725214004516601
0.5185707092285156,0.4725214004516601
0.5170223236083984,0.4700065612792969
0.5170223236083984,0.4700065612792969
0.5206226348876953,0.4732378005981445
0.5206226348876953,0.4732378005981445
0.5176351547241210,0.4722175598144531
0.5176351547241210,0.4722175598144531
0.5194364547729492,0.4707801818847656
0.5194364547729492,0.4707801818847656
0.5182153701782226,0.4716962814331054
0.5182153701782226,0.4716962814331054
0.5160055160522461,0.4666139602661132
0.5160055160522461,0.4666139602661132
0.5165937423706054,0.4654912948608398
0.5165937423706054,0.4654912948608398
0.5110799789428710,0.4595941543579101
0.5110799789428710,0.4595941543579101
0.5107515335083007,0.4549615859985351
0.5107515335083007,0.4549615859985351
0.5077468872070312,0.4532987594604492
0.5077468872070312,0.4532987594604492
0.5048852920532226,0.4470542907714843
0.5048852920532226,0.4470542907714843
0.5057052612304688,0.4473855972290039
0.5057052612304688,0.4473855972290039
0.5013988494873046,0.4440937042236328
0.5013988494873046,0.4440937042236328
0.5028911590576172,0.4424365997314453
0.5028911590576172,0.4424365997314453
0.5016077041625976,0.4435426712036133
0.5016077041625976,0.4435426712036133
0.5002962112426758,0.4403955459594727
0.5002962112426758,0.4403955459594727
0.5030925750732421,0.4432622909545899
0.5030925750732421,0.4432622909545899
0.5004438400268555,0.4423513412475586
0.5004438400268555,0.4423513412475586
0.5027097702026367,0.4418563842773438
0.5027097702026367,0.4418563842773438
0.5024637222290039,0.4446435928344726
0.5024637222290039,0.4446435928344726
0.5011756896972656,0.4423776626586914
0.5011756896972656,0.4423776626586914
0.5047811508178711,0.4460815429687500
0.5047811508178711,0.4460815429687500
0.5024219512939453,0.4460477828979492
0.5024219512939453,0.4460477828979492
0.5051879882812500,0.4464540481567383
0.5051879882812500,0.4464540481567383
0.5051994323730469,0.4499885559082031
0.5051994323730469,0.4499885559082031
0.5047290802001952,0.4484750747680664
0.5047290802001952,0.4484750747680664
0.5080152511596679,0.4525119781494140
0.5080152511596679,0.4525119781494140
0.5059495925903320,0.4521394729614258
0.5059495925903320,0.4521394729614258
0.5087711334228515,0.4529096603393554
0.5087711334228515,0.4529096603393554
0.5084878921508789,0.4553277969360351
0.5084878921508789,0.4553277969360351
0.5080593109130859,0.4537977218627929
0.5080593109130859,0.4537977218627929
0.5108510971069335,0.4571680068969726
0.5108510971069335,0.4571680068969726
0.5086687088012695,0.4563308715820312
0.5086687088012695,0.4563308715820312
0.5111560821533203,0.4564550399780273
0.5111560821533203,0.4564550399780273
0.5110605239868163,0.4591369628906250
0.5110605239868163,0.4591369628906250
0.5100780487060547,0.4569082260131836
0.5100780487060547,0.4569082260131836
0.5129814147949219,0.4603242874145508
0.5129814147949219,0.4603242874145508
0.5108802795410156,0.4597023010253906
0.5108802795410156,0.4597023010253906
0.5128423690795898,0.4589550018310546
0.5128423690795898,0.4589550018310546
0.5127908706665039,0.4617771148681640
0.5127908706665039,0.4617771148681640
0.5113861083984375,0.4597108840942383
0.5113861083984375,0.4597108840942383
0.5148725509643555,0.4632860183715820
0.5148725509643555,0.4632860183715820
0.5126249313354492,0.4630062103271484
0.5126249313354492,0.4630062103271484
0.5147071838378906,0.4630353927612305
0.5147071838378906,0.4630353927612305
0.5151260375976562,0.4661670684814453
0.5151260375976562,0.4661670684814453
0.5137058258056640,0.4639257431030273
0.5137058258056640,0.4639257431030273
0.5175018310546875,0.4675695419311523
0.5152782440185547,0.4675695419311523
0.5147615432739258,0.4671655654907226
0.5147615432739258,0.4671655654907226
0.5170005798339844,0.4667409896850586
0.5170005798339844,0.4667409896850586
0.5172334671020508,0.4696460723876953
0.5172334671020508,0.4696460723876953
0.5155866622924804,0.4668617248535156
0.5155866622924804,0.4668617248535156
0.5186233520507812,0.4691362380981445
0.5186233520507812,0.4691362380981445
0.5148656845092773,0.4667798995971679
0.5148656845092773,0.4667798995971679
0.5154356002807617,0.4631114959716797
0.5154356002807617,0.4631114959716797
0.5132852554321289,0.4618183135986328
0.5132852554321289,0.4618183135986328
0.5090040206909180,0.4546543121337890
0.5090040206909180,0.4546543121337890
0.5092615127563477,0.4528799057006836
0.5092615127563477,0.4528799057006836
0.5042512893676757,0.4479011535644531
0.5042512893676757,0.4479011535644531
0.5043457031249999,0.4438653945922851
0.5043457031249999,0.4438653945922851
0.5024242401123047,0.4435667037963867
0.5024242401123047,0.4435667037963867
0.4992261886596679,0.4386205673217773
0.4992261886596679,0.4386205673217773
0.5015802383422852,0.4399234771728516
0.5015802383422852,0.4399234771728516
0.4980978012084961,0.4378120422363281
0.4980978012084961,0.4378120422363281
0.4998928070068359,0.4364576339721680
0.4998928070068359,0.4364576339721680
0.4993560791015625,0.4386554718017578
0.4993560791015625,0.4372655868530274
0.4976079940795898,0.4352485656738281
0.4976079940795898,0.4354843139648437
0.4989503860473632,0.4389089584350586
0.4989503860473632,0.4363592147827148
0.4977092742919922,0.4363592147827148
0.5007562637329102,0.4381307601928711
0.4986104965209961,0.4381307601928711
0.5030725479125976,0.4418357849121093
0.5030725479125976,0.4411874771118164
0.5002750396728516,0.4401100158691406
0.5002750396728516,0.4401100158691406
0.5044126510620117,0.4443283081054688
0.5044126510620117,0.4443283081054688
0.5022056579589843,0.4449748992919922
0.5022056579589843,0.4449748992919922
0.5053064346313476,0.4457542419433594
0.5053064346313476,0.4457542419433594
0.5065898895263672,0.4504302978515625
0.5065898895263672,0.4504302978515625
0.5055158615112304,0.4494289398193359
0.5055158615112304,0.4494289398193359
0.5096855163574219,0.4538251876831054
0.5096855163574219,0.4538251876831054
0.5075391769409180,0.4543395996093750
0.5075391769409180,0.4543395996093750
0.5106651306152343,0.4551355361938476
0.5106651306152343,0.4551355361938476
0.5114542007446289,0.4593996047973632
0.5114542007446289,0.4593996047973632
0.5097633361816406,0.4573705673217773
0.5097633361816406,0.4573705673217773
0.5140972137451172,0.4615980148315429
0.5140972137451172,0.4615980148315429
0.5116836547851562,0.4614612579345703
0.5116836547851562,0.4614612579345703
0.5138603210449219,0.4609754562377930
0.5138603210449219,0.4609754562377930
0.5140205383300781,0.4641431808471679
0.5140205383300781,0.4641431808471679
0.5123697280883789,0.4617513656616211
0.5123697280883789,0.4617513656616211
0.5163688659667969,0.4648183822631836
0.5163688659667969,0.4648183822631836
0.5132257461547851,0.4643880844116210
0.5132257461547851,0.4643880844116210
0.5160203933715820,0.4638605117797852
0.5160203933715820,0.4638605117797852
0.5165542602539063,0.4671947479248046
0.5165542602539063,0.4671947479248046
0.5159076690673828,0.4658357620239257
0.5159076690673828,0.4658357620239257
0.5195755004882813,0.4682418823242187
0.5195755004882813,0.4682418823242187
0.5159826278686523,0.4677492141723633
0.5159826278686523,0.4677492141723633
0.5188419342041015,0.4676353454589843
0.5188419342041015,0.4676353454589843
0.5187601089477539,0.4703784942626953
0.5187601089477539,0.4703784942626953
0.5163814544677734,0.4673023223876953
0.5163814544677734,0.4673023223876953
0.5200887680053711,0.4706863403320312
0.5200887680053711,0.4706863403320312
0.5175052642822265,0.4706640243530273
0.5175052642822265,0.4706640243530273
0.5196258544921875,0.4702125549316406
0.5196258544921875,0.4702125549316406
0.5200893402099609,0.4737241744995117
0.5221693038940429,0.4737241744995117
0.5178691864013671,0.4706886291503906
0.5178691864013671,0.4706886291503906
0.5211542129516601,0.4723955154418945
0.5211542129516601,0.4723955154418945
0.5170818328857422,0.4693204879760742
0.5170818328857422,0.4693204879760742
0.5165576934814453,0.4644069671630859
0.5165576934814453,0.4644069671630859
0.5139638900756835,0.4623315811157226
0.5139638900756835,0.4623315811157226
0.5087923049926758,0.4537633895874023
0.5087923049926758,0.4537633895874023
0.5091510772705078,0.4510179519653320
0.5091510772705078,0.4510179519653320
0.5035572052001953,0.4457027435302734
0.5053750991821289,0.4457027435302734
0.5028751373291015,0.4411760330200195
0.5028751373291015,0.4411760330200195
0.5015350341796875,0.4412218093872070
0.5015350341796875,0.4412218093872070
0.4985721588134766,0.4366390228271484
0.4985721588134766,0.4366390228271484
0.5009313583374023,0.4377914428710937
0.5009313583374023,0.4377914428710937
0.4974878311157226,0.4363723754882812
0.4974878311157226,0.4363723754882812
0.4993389129638672,0.4351610183715820
0.4993389129638672,0.4351610183715820
0.4994642257690429,0.4379001617431640
0.4994642257690429,0.4379001617431640
0.4980142593383789,0.4355054855346679
0.4980142593383789,0.4355054855346679
0.5011877059936524,0.4387458801269531
0.5011877059936524,0.4387458801269531
0.4990345001220703,0.4385152816772461
0.4990345001220703,0.4385152816772461
0.4997343063354492,0.4394474029541016
0.4997343063354492,0.4394474029541016
0.5016637802124023,0.4424085617065430
0.5013290405273437,0.4424085617065430
0.5029438018798827,0.4445400238037109
0.5029438018798827,0.4445400238037109
0.5041196823120117,0.4443969726562500
0.5041196823120117,0.4443969726562500
0.5069280624389648,0.4496028900146484
0.5069280624389648,0.4496028900146484
0.5052961349487305,0.4490695953369140
0.5052961349487305,0.4490695953369140
0.5095201492309570,0.4524478912353516
0.5095201492309570,0.4524478912353516
0.5091859817504882,0.4549581527709960
0.5091859817504882,0.4549581527709960
0.5099304199218749,0.4545295715332031
0.5099304199218749,0.4545295715332031
0.5128486633300781,0.4596284866333007
0.5128486633300781,0.4596284866333007
0.5106954574584961,0.4584480285644531
0.5106954574584961,0.4584480285644531
0.5147964477539062,0.4608942031860351
0.5147964477539062,0.4608942031860351
0.5135324478149413,0.4625381469726562
0.5135324478149413,0.4625381469726562
0.5135845184326172,0.4611190795898437
0.5135845184326172,0.4611190795898437
0.5161399841308594,0.4652635574340820
0.5161399841308594,0.4652635574340820
0.5136920928955078,0.4630897521972656
0.5136920928955078,0.4630897521972656
0.5165061950683594,0.4638759613037109
0.5165061950683594,0.4638759613037109
0.5148599624633788,0.4649271011352539
0.5148599624633788,0.4649271011352539
0.5139587402343749,0.4620506286621093
0.5139587402343749,0.4620506286621093
0.5162029266357422,0.4649808883666992
0.5162029266357422,0.4649808883666992
0.5126541137695312,0.4616209030151367
0.5126541137695312,0.4616209030151367
0.5155649185180664,0.4624425888061523
0.5155649185180664,0.4624425888061523
0.5136325836181640,0.4625936508178711
0.5136325836181640,0.4625936508178711
0.5134534835815430,0.4601829528808594
0.5134534835815430,0.4601829528808594
0.5148771286010742,0.4632556915283203
0.5148771286010742,0.4632556915283203
0.5124790191650390,0.4612775802612304
0.5124790191650390,0.4612775802612304
0.5156799316406250,0.4624139785766601
0.5156799316406250,0.4624139785766601
0.5146396636962890,0.4638599395751953
0.5146396636962890,0.4638599395751953
0.5147289276123047,0.4623161315917969
0.5147289276123047,0.4623161315917969
0.5169702529907226,0.4659816741943359
0.5169702529907226,0.4659816741943359
0.5142002105712891,0.4639514923095703
0.5142002105712891,0.4639514923095703
0.5171556472778320,0.4644384384155273
0.5138196945190430,0.4644384384155273
0.5152112960815429,0.4648658752441406
0.5152112960815429,0.4648658752441406
0.5134243011474610,0.4601577758789062
0.5134243011474610,0.4601577758789062
0.5137722015380859,0.4597463607788086
0.5137722015380859,0.4597463607788086
0.5085948944091797,0.4532632827758789
0.5085948944091797,0.4532632827758789
0.5082584381103515,0.4487531661987305
0.5082584381103515,0.4487531661987305
0.5044910430908203,0.4455968856811524
0.5044910430908203,0.4455968856811524
0.5011716842651367,0.4389289855957031
0.5011716842651367,0.4389289855957031
0.5016323089599609,0.4386280059814453
0.5016323089599609,0.4386280059814453
0.4972881317138672,0.4342020034790039
0.4972881317138672,0.4342020034790039
0.4987174987792968,0.4330003738403320
0.4987174987792968,0.4330003738403320
0.4970014572143555,0.4333574295043945
0.4970014572143555,0.4333574295043945
0.4960784912109375,0.4300758361816406
0.4960784912109375,0.4300758361816406
0.4979330062866211,0.4328510284423828
0.4979330062866211,0.4328510284423828
0.4952928543090820,0.4311956405639648
0.4952928543090820,0.4311956405639648
0.4981962203979492,0.4320075988769531
0.4981962203979492,0.4320075988769531
0.4978288650512695,0.4341436386108398
0.4978288650512695,0.4341436386108398
0.4971885681152344,0.4325065612792969
0.4971885681152344,0.4325065612792969
0.5003139495849609,0.4371494293212890
0.5003139495849609,0.4371494293212890
0.4985635757446289,0.4366950988769531
0.4985635757446289,0.4366950988769531
0.5024929046630859,0.4390085220336914
0.5024929046630859,0.4390085220336914
0.5022743225097656,0.4425825119018554
0.5022743225097656,0.4425825119018554
0.5027326583862305,0.4420864105224609
0.5027326583862305,0.4420864105224609
0.5062866210937500,0.4475927352905273
0.5062866210937500,0.4475927352905273
0.5047279357910156,0.4474634170532226
0.5047279357910156,0.4474634170532226
0.5085931777954101,0.4499862670898437
0.5085931777954101,0.4499862670898437
0.5086853027343750,0.4538578033447265
0.5086853027343750,0.4538578033447265
0.5091848373413086,0.4527940750122070
0.5091848373413086,0.4527940750122070
0.5126873016357422,0.4580738067626953
0.5126873016357422,0.4580738067626953
0.5098806381225586,0.4568847656250000
0.5098806381225586,0.4568847656250000
0.5140216827392577,0.4589097976684570
0.5140216827392577,0.4589097976684570
0.5132921218872070,0.4618406295776367
0.5132921218872070,0.4618406295776367
0.5132995605468750,0.4596118927001953
0.5132995605468750,0.4596118927001953
0.5163980484008789,0.4641998291015625
0.5163980484008789,0.4641998291015625
0.5134122848510742,0.4627893447875976
0.5158029556274414,0.4627893447875976
0.5167631149291992,0.4635354995727539
0.5167631149291992,0.4635354995727539
0.5158819198608399,0.4659748077392578
0.5158819198608399,0.4659748077392578
0.5149440765380859,0.4629896163940430
0.5149440765380859,0.4629896163940430
0.5180557250976562,0.4674894332885742
0.5180557250976562,0.4674894332885742
0.5146442413330078,0.4654466629028320
0.5146442413330078,0.4654466629028320
0.5181655883789062,0.4661390304565429
0.5181655883789062,0.4661390304565429
0.5173593521118164,0.4689451217651367
0.5173593521118164,0.4689451217651367
0.5163196563720703,0.4656051635742187
0.5163196563720703,0.4656051635742187
0.5187686920166016,0.4694143295288086
0.5187686920166016,0.4694143295288086
0.5161027908325195,0.4678779602050781
0.5161027908325195,0.4678779602050781
0.5194181442260742,0.4684907913208007
0.5194181442260742,0.4684907913208007
0.5183481216430664,0.4710868835449218
0.5183481216430664,0.4710868835449218
0.5185895919799804,0.4687631607055664
0.5185895919799804,0.4687631607055664
0.5211713790893554,0.4722604751586914
0.5211713790893554,0.4722604751586914
0.5186044692993164,0.4706771850585937
0.5186044692993164,0.4706771850585937
0.5204658508300781,0.4682819366455078
0.5204658508300781,0.4682819366455078
0.5175905227661133,0.4675523757934570
0.5175905227661133,0.4675523757934570
0.5146986007690429,0.4602390289306640
0.5126569747924804,0.4602390289306640
0.5138780593872070,0.4580245971679687
0.5138780593872070,0.4580245971679687
0.5070024490356445,0.4503421783447266
0.5070024490356445,0.4503421783447266
0.5068227767944335,0.4450664520263672
0.5068227767944335,0.4450664520263672
0.5036647796630859,0.4431776046752929
0.5036647796630859,0.4431776046752929
0.4998355865478515,0.4361400604248047
0.4998355865478515,0.4361400604248047
0.5011362075805664,0.4370653152465820
0.5011362075805664,0.4370653152465820
0.4966793060302734,0.4334278106689453
0.4966793060302734,0.4334278106689453
0.4986665725708008,0.4318479537963867
0.4986665725708008,0.4318479537963867
0.4973018646240234,0.4332973480224609
0.4973018646240234,0.4332973480224609
0.4956407546997070,0.4297296524047852
0.4956407546997070,0.4297296524047852
0.4983432769775391,0.4328939437866211
0.4983432769775391,0.4328939437866211
0.4956464767456055,0.4314376831054688
0.4956464767456055,0.4314376831054688
0.4984972000122070,0.4316116333007812
0.4984972000122070,0.4316116333007812
0.4981229782104492,0.4346883773803711
0.4981229782104492,0.4346883773803711
0.4974672317504882,0.4327754974365234
0.4974672317504882,0.4327754974365234
0.5010143280029297,0.4371728897094727
0.5010143280029297,0.4371728897094727
0.4988937377929688,0.4370578765869140
0.4988937377929688,0.4370578765869140
0.5024568557739257,0.4385725021362304
0.5024568557739257,0.4385725021362304
0.5025547027587890,0.4426654815673828
0.5025547027587890,0.4426654815673828
0.5034175872802734,0.4416749954223633
0.5034175872802734,0.4416749954223633
0.5063312530517577,0.4467538833618164
0.5063312530517577,0.4467538833618164
0.5048069000244141,0.4471956253051758
0.5048069000244141,0.4471956253051758
0.5084575653076172,0.4492973327636718
0.5084575653076172,0.4492973327636718
0.5087791442871094,0.4530372619628906
0.5087791442871094,0.4530372619628906
0.5089410781860352,0.4520679473876953
0.5089410781860352,0.4520679473876953
0.5122564315795898,0.4570049285888672
0.5122564315795898,0.4570049285888672
0.5104053497314452,0.4566816329956054
0.5104053497314452,0.4566816329956054
0.5140594482421875,0.4581007003784179
0.5140594482421875,0.4581007003784179
0.5136371612548828,0.4613039016723632
0.5136371612548828,0.4613039016723632
0.5132280349731445,0.4594470977783203
0.5132280349731445,0.4594470977783203
0.5162269592285156,0.4638713836669922
0.5162269592285156,0.4638713836669922
0.5141756057739257,0.4630250930786133
0.5141756057739257,0.4630250930786133
0.5169198989868163,0.4634754180908203
0.5169198989868163,0.4634754180908203
0.5163814544677734,0.4659891128540039
0.5163814544677734,0.4659891128540039
0.5155981063842773,0.4638227462768554
0.5155981063842773,0.4638227462768554
0.5183120727539062,0.4669355392456054
0.5183120727539062,0.4669355392456054
0.5154150009155273,0.4656063079833984
0.5154150009155273,0.4656063079833984
0.5176666259765624,0.4655193328857422
0.5176666259765624,0.4655193328857422
0.5170366287231445,0.4674081802368164
0.5170366287231445,0.4674081802368164
0.5162023544311524,0.4645030975341797
0.5162023544311524,0.4645030975341797
0.5180500030517577,0.4671083450317383
0.5180500030517577,0.4671083450317383
0.5153303146362305,0.4655244827270508
0.5153303146362305,0.4655244827270508
0.5176145553588867,0.4651359558105468
0.5176145553588867,0.4651359558105468
0.5163986206054687,0.4665996551513671
0.5163986206054687,0.4665996551513671
0.5149045944213867,0.4628110885620117
0.5149045944213867,0.4628110885620117
0.5167036056518555,0.4644304275512695
0.5167036056518555,0.4644304275512695
0.5123096466064453,0.4596874237060546
0.5123096466064453,0.4596874237060546
0.5128955841064453,0.4555326461791992
0.5128955841064453,0.4555326461791992
0.5090137481689453,0.4526882171630859
0.5090137481689453,0.4526882171630859
0.5055118560791015,0.4451448440551758
0.5055118560791015,0.4451448440551758
0.5052537918090820,0.4435930252075195
0.5052537918090820,0.4435930252075195
0.5002584457397461,0.4376146316528320
0.5002584457397461,0.4376146316528320
0.5009702682495117,0.4348056793212891
0.5009702682495117,0.4348056793212891
0.4982494354248047,0.4340309143066406
0.4982494354248047,0.4340309143066406
0.4957826614379883,0.4291728973388672
0.4957826614379883,0.4291728973388672
0.4974031448364258,0.4305524826049805
0.4974031448364258,0.4305524826049805
0.4938915252685547,0.4275838851928711
0.4938915252685547,0.4275838851928711
0.4957660675048828,0.4266729354858398
0.4957660675048828,0.4266729354858398
0.4944236755371094,0.4280616760253906
0.4944236755371094,0.4280616760253906
0.4938817977905273,0.4254386901855469
0.4938817977905273,0.4254386901855469
0.4957803726196289,0.4279386520385742
0.4957803726196289,0.4279386520385742
0.4935041427612304,0.4269699096679687
0.4935041427612304,0.4269699096679687
0.4960447311401367,0.4271799087524414
0.4960447311401367,0.4271799087524414
0.4958003997802734,0.4297245025634766
0.4958003997802734,0.4297245025634766
0.4952425003051757,0.4278968811035156
0.4952425003051757,0.4278968811035156
0.4978855133056641,0.4317260742187500
0.4978855133056641,0.4317260742187500
0.4962501525878906,0.4319160461425781
0.4988353729248047,0.4351198196411133
0.4993841171264648,0.4329706192016601
0.4974123001098633,0.4329706192016601
0.4994350433349609,0.4363002777099609
0.4994350433349609,0.4363002777099609
0.4993927001953125,0.4356359481811523
0.4993927001953125,0.4356359481811523
0.5024700164794922,0.4400922775268555
0.5024700164794922,0.4400922775268555
0.5017261505126953,0.4408882141113281
0.5017261505126953,0.4408882141113281
0.5048847198486328,0.4425218582153320
0.5048847198486328,0.4425218582153320
0.5052892684936523,0.4463968276977539
0.5052892684936523,0.4463968276977539
0.5056051254272461,0.4457616806030273
0.5056051254272461,0.4457616806030273
0.5089284896850585,0.4500457763671875
0.5089284896850585,0.4500457763671875
0.5071638107299804,0.4500635147094726
0.5071638107299804,0.4500635147094726
0.5100992202758788,0.4512016296386718
0.5100992202758788,0.4512016296386718
0.5099418640136718,0.4543436050415039
0.5099418640136718,0.4543436050415039
0.5097209930419921,0.4528696060180664
0.5097209930419921,0.4528696060180664
0.5125865936279297,0.4566186904907226
0.5125865936279297,0.4566186904907226
0.5104528427124023,0.4563646316528320
0.5104528427124023,0.4563646316528320
0.5131565093994140,0.4568607330322265
0.5131565093994140,0.4568607330322265
0.5132663726806640,0.4601108551025390
0.5132663726806640,0.4601108551025390
0.5125133514404296,0.4582792282104492
0.5125133514404296,0.4582792282104492
0.5159265518188476,0.4622194290161132
0.5159265518188476,0.4622194290161132
0.5137378692626953,0.4620494842529297
0.5137378692626953,0.4620494842529297
0.5167030334472656,0.4622714996337891
0.5167030334472656,0.4622714996337891
0.5165731430053710,0.4652240753173828
0.5165731430053710,0.4652240753173828
0.5154235839843749,0.4633953094482421
0.5154235839843749,0.4633953094482421
0.5183950424194336,0.4664989471435547
0.5183950424194336,0.4664989471435547
0.5159179687500000,0.4659696578979492
0.5159179687500000,0.4659696578979492
0.5184694290161133,0.4656423568725586
0.5184694290161133,0.4656423568725586
0.5179670333862304,0.4690732955932617
0.5203525543212890,0.4690732955932617
0.5162870407104492,0.4651176452636718
0.5162870407104492,0.4651176452636718
0.5188081741333007,0.4669195175170898
0.5188081741333007,0.4669195175170898
0.5139295578002929,0.4627704620361328
0.5139295578002929,0.4627704620361328
0.5141670227050781,0.4578569412231445
0.5141670227050781,0.4578569412231445
0.5104253768920898,0.4546360015869140
0.5104253768920898,0.4546360015869140
0.5054254531860352,0.4454423904418945
0.5054254531860352,0.4454423904418945
0.5052875518798828,0.4431312561035156
0.5052875518798828,0.4431312561035156
0.4995368957519531,0.4368072509765625
0.4995368957519531,0.4368072509765625
0.4971696853637695,0.4322221755981445
0.4989177703857421,0.4310537338256836
0.4989177703857421,0.4310537338256836
0.4964607238769531,0.4313037872314453
0.4964607238769531,0.4313037872314453
0.4963657379150390,0.4279289245605469
0.4963657379150390,0.4279289245605469
0.4971748352050781,0.4304735183715820
0.4971748352050781,0.4304735183715820
0.4952413558959960,0.4285537719726563
0.4952413558959960,0.4285537719726563
0.4981229782104492,0.4291414260864257
0.4981229782104492,0.4291414260864257
0.4958232879638672,0.4301404953002930
0.4958232879638672,0.4301404953002930
0.4963182449340820,0.4287014007568359
0.4963182449340820,0.4287014007568359
0.4986391067504883,0.4328144073486328
0.4986391067504883,0.4328144073486328
0.4963834762573242,0.4318279266357422
0.4963834762573242,0.4318279266357422
0.5003786087036133,0.4342025756835937
0.5003786087036133,0.4342025756835937
0.4995683670043945,0.4365468978881836
0.4995683670043945,0.4365468978881836
0.5004089355468749,0.4359981536865234
0.5004089355468749,0.4359981536865234
0.5032722473144531,0.4409763336181641
0.5032722473144531,0.4409763336181641
0.5012964248657227,0.4402267456054688
0.5012964248657227,0.4402267456054688
0.5055021286010742,0.4427467346191406
0.5055021286010742,0.4427467346191406
0.5045087814331054,0.4449216842651367
0.5045087814331054,0.4449216842651367
0.5053842544555663,0.4443231582641601
0.5053842544555663,0.4443231582641601
0.5076393127441406,0.4486667633056641
0.5076393127441406,0.4486667633056641
0.5058214187622070,0.4478651046752929
0.5058214187622070,0.4478651046752929
0.5095270156860351,0.4497762680053711
0.5095270156860351,0.4497762680053711
0.5084203720092774,0.4516736984252929
0.5084203720092774,0.4516736984252929
0.5089696884155274,0.4506288528442383
0.5089696884155274,0.4506288528442383
0.5113048553466797,0.4551212310791015
0.5113048553466797,0.4551212310791015
0.5093713760375976,0.4541507720947265
0.5093713760375976,0.4541507720947265
0.5131164550781250,0.4564573287963867
0.5131164550781250,0.4564573287963867
0.5117677688598633,0.4575204849243164
0.5117677688598633,0.4575204849243164
0.5126701354980469,0.4570770263671875
0.5126701354980469,0.4570770263671875
0.5148056030273437,0.4611202239990234
0.5148056030273437,0.4611202239990234
0.5130775451660156,0.4598276138305664
0.5130775451660156,0.4598276138305664
0.5163614273071289,0.4622417449951172
0.5163614273071289,0.4622417449951172
0.5149778366088867,0.4631732940673828
0.5149778366088867,0.4631732940673828
0.5161399841308594,0.4628162384033203
0.5161399841308594,0.4628162384033203
0.5177450180053711,0.4667049407958984
0.5177450180053711,0.4667049407958984
0.5160186767578124,0.4652338027954102
0.5160186767578124,0.4652338027954102
0.5196229934692382,0.4676628112792969
0.5196229934692382,0.4676628112792969
0.5180488586425781,0.4687694549560547
0.5180488586425781,0.4687694549560547
0.5191005706787110,0.4680404663085938
0.5191005706787110,0.4680404663085938
0.5208303451538085,0.4718273162841797
0.5208303451538085,0.4718273162841797
0.5186805725097656,0.4700838088989258
0.5186805725097656,0.4700838088989258
0.5219387054443360,0.4713878631591797
0.5219387054443360,0.4713878631591797
0.5196235656738281,0.4710359573364258
0.5196235656738281,0.4710359573364258
0.5184322357177734,0.4671186447143554
0.5184322357177734,0.4671186447143554
0.5182142257690430,0.4661464691162109
0.5182142257690430,0.4661464691162109
0.5125562667846679,0.4587352752685547
0.5125562667846679,0.4587352752685547
0.5122032165527344,0.4538572311401367
0.5122032165527344,0.4538572311401367
0.5065332412719726,0.4478181838989257
0.5065332412719726,0.4478181838989257
0.5034038543701171,0.4406364440917969
0.5034038543701171,0.4406364440917969
0.5025014877319336,0.4391366958618164
0.5025014877319336,0.4391366958618164
0.4976823806762695,0.4333534240722656
0.4976823806762695,0.4333534240722656
0.4990242004394531,0.4321998596191406
0.4956481933593750,0.4321998596191406
0.4961626052856445,0.4308797836303711
0.4961626052856445,0.4308797836303711
0.4963165283203125,0.4286962509155273
0.4963165283203125,0.4286962509155273
0.4975370407104492,0.4311641693115234
0.4975370407104492,0.4311641693115234
0.4951366424560547,0.4284553527832031
0.4951366424560547,0.4284553527832031
0.4983936309814453,0.4302789688110352
0.4983936309814453,0.4302789688110352
0.4972927093505859,0.4313112258911133
0.4972927093505859,0.4313112258911133
0.4980743408203125,0.4306892395019531
0.4980743408203125,0.4306892395019531
0.5000827789306640,0.4345510482788086
0.5000827789306640,0.4345510482788086
0.4984308242797851,0.4337774276733398
0.4984308242797851,0.4337774276733398
0.5017473220825195,0.4357469558715820
0.5017473220825195,0.4357469558715820
0.5007259368896484,0.4376821517944336
0.5007259368896484,0.4376821517944336
0.5013507843017578,0.4376398086547851
0.5013507843017578,0.4376398086547851
0.5042781829833984,0.4422700881958008
0.5042781829833984,0.4422700881958008
0.5026960372924805,0.4417139053344726
0.5026960372924805,0.4417139053344726
0.5063123703002930,0.4446304321289062
0.5063123703002930,0.4446304321289062
0.5055633544921875,0.4466148376464844
0.5055633544921875,0.4466148376464844
0.5066253662109375,0.4467613220214844
0.5066253662109375,0.4467613220214844
0.5088792800903320,0.4506174087524414
0.5088792800903320,0.4506174087524414
0.5074808120727539,0.4497659683227539
0.5074808120727539,0.4497659683227539
0.5105592727661132,0.4521944046020507
0.5105592727661132,0.4521944046020507
0.5094944000244140,0.4533182144165039
0.5094944000244140,0.4533182144165039
0.5103057861328125,0.4526407241821289
0.5103057861328125,0.4526407241821289
0.5120779037475586,0.4554393768310547
0.5120779037475586,0.4554393768310547
0.5099086761474609,0.4542623519897461
0.5099086761474609,0.4542623519897461
0.5128034591674805,0.4559806823730468
0.5128034591674805,0.4559806823730468
0.5116830825805664,0.4569196701049805
0.5116830825805664,0.4569196701049805
0.5119319915771484,0.4557455062866211
0.5119319915771484,0.4557455062866211
0.5136194229125977,0.4587112426757812
0.5136194229125977,0.4587112426757812
0.5117815017700195,0.4577167510986328
0.5117815017700195,0.4577167510986328
0.5147420883178710,0.4593315124511719
0.5147420883178710,0.4593315124511719
0.5137687683105469,0.4608272552490234
0.5137687683105469,0.4608272552490234
0.5140417098999023,0.4599420547485351
0.5140417098999023,0.4599420547485351
0.5162801742553711,0.4635801315307617
0.5162801742553711,0.4635801315307617
0.5146453857421874,0.4623876571655273
0.5146453857421874,0.4623876571655273
0.5178405761718750,0.4646152496337890
0.5178405761718750,0.4646152496337890
0.5165931701660156,0.4658752441406250
0.5165931701660156,0.4658752441406250
0.5171327590942383,0.4650484085083008
0.5171327590942383,0.4650484085083008
0.5194295883178711,0.4688009262084961
0.5194295883178711,0.4688009262084961
0.5170131683349609,0.4669549942016601
0.5170131683349609,0.4669549942016601
0.5198661804199218,0.4680404663085938
0.5198661804199218,0.4680404663085938
0.5177747726440429,0.4677045822143555
0.5177747726440429,0.4677045822143555
0.5162818908691406,0.4629272460937500
0.5162818908691406,0.4629272460937500
0.5163980484008789,0.4624975204467773
0.5163980484008789,0.4624975204467773
0.5108482360839843,0.4552642822265625
0.5108482360839843,0.4552642822265625
0.5109466552734375,0.4510831832885742
0.5109466552734375,0.4510831832885742
0.5064188003540039,0.4467378616333008
0.5064188003540039,0.4467378616333008
0.5032390594482422,0.4399332046508789
0.5032390594482422,0.4399332046508789
0.5027652740478515,0.4394823074340820
0.5027652740478515,0.4394823074340820
0.4986763000488281,0.4345561981201172
0.4986763000488281,0.4345561981201172
0.5005966186523437,0.4339124679565430
0.5005966186523437,0.4339124679565430
0.4983930587768555,0.4336761474609375
0.4983930587768555,0.4336761474609375
0.4972068786621093,0.4306589126586914
0.4960315704345703,0.4306589126586914
0.4994785308837890,0.4338626861572266
0.4994785308837890,0.4338626861572266
0.4965740203857422,0.4317558288574219
0.4965740203857422,0.4317558288574219
0.5000524520874023,0.4331760406494141
0.5000524520874023,0.4331760406494141
0.4983243942260742,0.4345590591430664
0.4983243942260742,0.4345590591430664
0.4987586975097656,0.4332223892211914
0.4987586975097656,0.4332223892211914
0.5020975112915039,0.4385707855224609
0.5020975112915039,0.4385707855224609
0.4996587753295898,0.4365949630737305
0.4996587753295898,0.4365949630737305
0.5040796279907226,0.4400791168212890
0.5040796279907226,0.4400791168212890
0.5028842926025391,0.4417854309082031
0.5028842926025391,0.4417854309082031
0.5042770385742187,0.4420589447021484
0.5042770385742187,0.4451379776000977
0.5050683975219726,0.4484773635864258
0.5072834014892578,0.4450841903686523
0.5054294586181640,0.4450841903686523
0.5079471588134765,0.4497745513916016
0.5079471588134765,0.4497745513916016
0.5076850891113281,0.4485975265502929
0.5076850891113281,0.4485975265502929
0.5110130310058594,0.4517869949340820
0.5110130310058594,0.4517869949340820
0.5089611053466797,0.4525285720825195
0.5089611053466797,0.4525285720825195
0.5110553741455078,0.4525806427001953
0.5110553741455078,0.4525806427001953
0.5122226715087891,0.4566930770874023
0.5122226715087891,0.4566930770874023
0.5106731414794922,0.4550193786621093
0.5106731414794922,0.4550193786621093
0.5142871856689453,0.4583736419677734
0.5142871856689453,0.4583736419677734
0.5124675750732421,0.4586872100830078
0.5124675750732421,0.4586872100830078
0.5142534255981445,0.4580909729003906
0.5142534255981445,0.4580909729003906
0.5145818710327148,0.4613439559936523
0.5145818710327148,0.4613439559936523
0.5130592346191406,0.4589006423950195
0.5130592346191406,0.4589006423950195
0.5159191131591797,0.4611763000488281
0.5159191131591797,0.4611763000488281
0.5137516021728515,0.4608615875244140
0.5137516021728515,0.4608615875244140
0.5147026062011718,0.4592153549194335
0.5147026062011718,0.4592153549194335
0.5153881072998047,0.4621541976928711
0.5153881072998047,0.4621541976928711
0.5133201599121093,0.4597921371459961
0.5133201599121093,0.4597921371459961
0.5166223526000976,0.4618560791015625
0.5166223526000976,0.4618560791015625
0.5142625808715821,0.4618864059448242
0.5142625808715821,0.4618864059448242
0.5156496047973632,0.4610000610351562
0.5156496047973632,0.4610000610351562
0.5164438247680664,0.4645105361938476
0.5164438247680664,0.4645105361938476
0.5152502059936523,0.4626502990722656
0.5152502059936523,0.4626502990722656
0.5185649871826171,0.4654741287231445
0.5185649871826171,0.4654741287231445
0.5163328170776367,0.4655994415283203
0.5163328170776367,0.4655994415283203
0.5180597305297852,0.4645998001098632
0.5180597305297852,0.4645998001098632
0.5178314208984375,0.4668720245361328
0.5178314208984375,0.4668720245361328
0.5152719497680663,0.4622800827026367
0.5152719497680663,0.4622800827026367
0.5165948867797852,0.4615900039672851
0.5165948867797852,0.4615900039672851
0.5118295669555664,0.4571691513061523
0.5118295669555664,0.4571691513061523
0.5107664108276367,0.4511426925659179
0.5107664108276367,0.4511426925659179
0.5079648971557617,0.4490358352661133
0.5079648971557617,0.4490358352661133
0.5034982681274414,0.4419605255126953
0.5034982681274414,0.4419605255126953
0.5043125152587891,0.4402576446533203
0.5043125152587891,0.4402576446533203
0.5005102157592773,0.4372987747192383
0.5005102157592773,0.4372987747192383
0.5005102157592773,0.4341012954711914
0.5005102157592773,0.4341012954711914
0.4998046875000000,0.4354906082153320
0.4998046875000000,0.4354906082153320
0.4976531982421875,0.4318725585937500
0.4976531982421875,0.4318725585937500
0.5003734588623047,0.4334896087646484
0.5003734588623047,0.4334896087646484
0.4978775024414062,0.4330621719360351
0.4978775024414062,0.4330621719360351
0.4990653991699219,0.4318811416625977
0.4990653991699219,0.4318811416625977
0.4996152877807617,0.4352199554443359
0.4996152877807617,0.4352199554443359
0.4982625961303710,0.4331268310546875
0.4982625961303710,0.4331268310546875
0.5016975402832031,0.4361200332641602
0.5016975402832031,0.4361200332641602
0.4996353149414062,0.4365697860717773
0.4996353149414062,0.4365697860717773
0.5012666702270507,0.4361280441284179
0.5012666702270507,0.4361280441284179
0.5025764465332031,0.4401826858520508
0.5025764465332031,0.4401826858520508
0.5013959884643554,0.4385982513427734
0.5013959884643554,0.4385982513427734
0.5049642562866211,0.4420595169067383
0.5049642562866211,0.4420595169067383
0.5033397674560547,0.4430128097534179
0.5033397674560547,0.4430128097534179
0.5055404663085937,0.4427907943725586
0.5055404663085937,0.4427907943725586
0.5064977645874024,0.4468385696411133
0.5064977645874024,0.4468385696411133
0.5053253173828125,0.4448947906494141
0.5053253173828125,0.4448947906494141
0.5089468002319336,0.4483617782592773
0.5089468002319336,0.4483617782592773
0.5074104309082031,0.4491743087768554
0.5074104309082031,0.4491743087768554
0.5092020034790039,0.4484029769897461
0.5092020034790039,0.4484029769897461
0.5097908020019531,0.4522916793823242
0.5097908020019531,0.4522916793823242
0.5087385177612305,0.4503404617309570
0.5087385177612305,0.4503404617309570
0.5118684768676758,0.4528844833374023
0.5118684768676758,0.4528844833374023
0.5097003936767578,0.4534933090209960
0.5097003936767578,0.4534933090209960
0.5112173080444335,0.4529005050659179
0.5112173080444335,0.4529005050659179
0.5119325637817382,0.4565734863281250
0.5119325637817382,0.4565734863281250
0.5108076095581054,0.4547098159790039
0.5108076095581054,0.4547098159790039
0.5137556076049804,0.4572097778320312
0.5137556076049804,0.4572097778320312
0.5118947982788086,0.4577722549438477
0.5118947982788086,0.4577722549438477
0.5134037017822265,0.4571496963500976
0.5134037017822265,0.4571496963500976
0.5141859054565430,0.4601520538330078
0.5141859054565430,0.4601520538330078
0.5128446578979492,0.4582666397094726
0.5128446578979492,0.4582666397094726
0.5154304504394531,0.4604867935180664
0.5154304504394531,0.4604867935180664
0.5138494491577148,0.4606870651245117
0.5138494491577148,0.4606870651245117
0.5152204513549804,0.4594774246215820
0.5152204513549804,0.4594774246215820
0.5157148361206054,0.4624540328979492
0.5157148361206054,0.4624540328979492
0.5141012191772460,0.4607568740844726
0.5141012191772460,0.4607568740844726
0.5170698165893555,0.4626382827758789
0.5170698165893555,0.4626382827758789
0.5151203155517577,0.4624746322631836
0.5151203155517577,0.4624746322631836
0.5156129837036133,0.4601469039916992
0.5156129837036133,0.4601469039916992
0.5149618148803711,0.4607219696044922
0.5149618148803711,0.4607219696044922
0.5118930816650390,0.4558834075927734
0.5118930816650390,0.4558834075927734
0.5124652862548827,0.4534406661987305
0.5124652862548827,0.4534406661987305
0.5074848175048828,0.4487869262695313
0.5074848175048828,0.4487869262695313
0.5060628890991211,0.4427690505981445
0.5060628890991211,0.4427690505981445
0.5036458969116211,0.4412246704101562
0.5036458969116211,0.4412246704101562
0.5001325607299805,0.4353578567504883
0.5001325607299805,0.4353578567504883
0.5012008666992187,0.4344829559326172
0.5012008666992187,0.4344829559326172
0.4975959777832031,0.4325597763061523
0.4975959777832031,0.4325597763061523
0.4981538772583007,0.4295763015747070
0.4981538772583007,0.4295763015747070
0.4980646133422851,0.4316328048706055
0.4980646133422851,0.4316328048706055
0.4956121444702148,0.4285886764526367
0.4956121444702148,0.4285886764526367
0.4986150741577148,0.4303493499755859
0.4986150741577148,0.4303493499755859
0.4965122222900391,0.4306509017944336
0.4965122222900391,0.4306509017944336
0.4979352951049805,0.4290733337402344
0.4979352951049805,0.4290733337402344
0.4988737106323242,0.4327085494995117
0.4998006820678711,0.4327085494995117
0.4969579696655273,0.4309558868408203
0.4969579696655273,0.4309558868408203
0.5007757186889649,0.4337242126464844
0.5007757186889649,0.4337242126464844
0.4991357803344726,0.4351873397827148
0.4991357803344726,0.4351873397827148
0.5007202148437500,0.4345636367797852
0.5007202148437500,0.4345636367797852
0.5026170730590820,0.4394508361816406
0.5026170730590820,0.4394508361816406
0.5013908386230469,0.4388145446777343
0.5013908386230469,0.4388145446777343
0.5054426193237305,0.4420188903808593
0.5054426193237305,0.4420188903808593
0.5039714813232422,0.4439186096191406
0.5039714813232422,0.4439186096191406
0.5060033798217773,0.4437709808349609
0.5060033798217773,0.4437709808349609
0.5074350357055664,0.4481254577636719
0.5074350357055664,0.4481254577636719
0.5064348220825196,0.4466709136962890
0.5064348220825196,0.4466709136962890
0.5101530075073242,0.4502815246582031
0.5101530075073242,0.4502815246582031
0.5081525802612304,0.4508033752441406
0.5081525802612304,0.4508033752441406
0.5098978042602539,0.4506288528442383
0.5098978042602539,0.4506288528442383
0.5113454818725586,0.4539247512817383
0.5113454818725586,0.4539247512817383
0.5093198776245117,0.4521440505981445
0.5093198776245117,0.4521440505981445
0.5138637542724609,0.4558233261108398
0.5138637542724609,0.4558233261108398
0.5118661880493164,0.4559017181396484
0.5118661880493164,0.4559017181396484
0.5132120132446288,0.4550308227539062
0.5132120132446288,0.4550308227539062
0.5142923355102539,0.4585184097290039
0.5142923355102539,0.4585184097290039
0.5118015289306640,0.4561151504516601
0.5118015289306640,0.4561151504516601
0.5151271820068359,0.4580772399902344
0.5151271820068359,0.4580772399902344
0.5132698059082031,0.4591175079345703
0.5132698059082031,0.4591175079345703
0.5141178131103515,0.4577671051025390
0.5141178131103515,0.4577671051025390
0.5152708053588867,0.4614234924316406
0.5152708053588867,0.4614234924316406
0.5133527755737305,0.4597200393676757
0.5133527755737305,0.4597200393676757
0.5170537948608398,0.4618595123291016
0.5170537948608398,0.4618595123291016
0.5150453567504882,0.4626588821411133
0.5150453567504882,0.4626588821411133
0.5159883499145508,0.4613765716552734
0.5159883499145508,0.4613765716552734
0.5173936843872070,0.4650838851928711
0.5173936843872070,0.4650838851928711
0.5153560638427734,0.4628374099731445
0.5153560638427734,0.4628374099731445
0.5181066513061523,0.4638822555541992
0.5181066513061523,0.4638822555541992
0.5159620285034180,0.4636642456054687
0.5159620285034180,0.4636642456054687
0.5153966903686523,0.4599918365478515
0.5153966903686523,0.4599918365478515
0.5150190353393554,0.4598728179931640
0.5150190353393554,0.4598728179931640
0.5103298187255859,0.4537319183349609
0.5103298187255859,0.4537319183349609
0.5105518341064453,0.4496973037719726
0.5105518341064453,0.4496973037719726
0.5057739257812500,0.4453119277954101
0.5057739257812500,0.4453119277954101
0.5041666030883789,0.4384494781494140
0.5041666030883789,0.4384494781494140
0.5021759033203125,0.4380603790283203
0.5021759033203125,0.4380603790283203
0.4983787536621094,0.4329460144042969
0.4983787536621094,0.4329460144042969
0.5002613067626953,0.4320928573608399
0.5002613067626953,0.4320928573608399
0.4970546722412109,0.4305965423583984
0.4970546722412109,0.4305965423583984
0.4971273422241211,0.4281051635742187
0.4971273422241211,0.4281051635742187
0.4978013992309570,0.4305301666259765
0.4978013992309570,0.4305301666259765
0.4955011367797851,0.4278173446655273
0.4955011367797851,0.4278173446655273
0.4989543914794922,0.4295682907104492
0.4989543914794922,0.4295682907104492
0.4962696075439453,0.4297914505004883
0.4962696075439453,0.4297914505004883
0.4975061416625977,0.4291511535644531
0.4975061416625977,0.4291511535644531
0.4988348007202148,0.4326066970825195
0.4995775222778320,0.4326066970825195
