REDsignal,IRsignal
0.5221143722534179,0.4524839401245117
0.5221590042114258,0.4435586929321289
0.5221590042114258,0.4435586929321289
0.5319139480590820,0.4584148406982422
0.5319139480590820,0.4584148406982422
0.5210254669189452,0.4498907089233398
0.5210254669189452,0.4498907089233398
0.5335292816162109,0.4545186996459961
0.5335292816162109,0.4545186996459961
0.5284584045410156,0.4632711410522461
0.5284584045410156,0.4632711410522461
0.5292417526245117,0.4587209701538086
0.5292417526245117,0.4587209701538086
0.5406738281250000,0.4726541519165039
0.5406738281250000,0.4726541519165039
0.5313714981079102,0.4690738677978515
0.5313714981079102,0.4690738677978515
0.5460502624511718,0.4767305374145507
0.5460502624511718,0.4767305374145507
0.5415727615356445,0.4898540496826171
0.5415727615356445,0.4898540496826171
0.5433729171752929,0.4822957992553711
0.5433729171752929,0.4822957992553711
0.5542791366577148,0.4977281570434570
0.5542791366577148,0.4977281570434570
0.5447456359863281,0.4922075271606445
0.5447456359863281,0.4922075271606445
0.5573822021484375,0.4987529754638672
0.5573822021484375,0.4987529754638672
0.5508825302124023,0.5037242889404296
0.5508825302124023,0.5037242889404296
0.5503446578979492,0.4940065383911132
0.5503446578979492,0.4940065383911132
0.5595788955688477,0.5054437637329101
0.5595788955688477,0.5054437637329101
0.5474029541015625,0.4986906051635742
0.5474029541015625,0.4986906051635742
0.5589008331298828,0.4989784240722656
0.5589008331298828,0.4989784240722656
0.5512235641479492,0.5049682617187500
0.5512235641479492,0.5049682617187500
0.5511989593505859,0.4952539443969726
0.5511989593505859,0.4952539443969726
0.5603216171264648,0.5093605041503906
0.5603216171264648,0.5093605041503906
0.5488288879394531,0.4994607925415039
0.5488288879394531,0.4994607925415039
0.5607833862304688,0.5028934478759766
0.5607833862304688,0.5028934478759766
0.5542802810668945,0.5099824905395508
0.5542802810668945,0.5099824905395508
0.5540222167968750,0.5032064437866210
0.5540222167968750,0.5032064437866210
0.5636827468872070,0.5140817642211913
0.5636827468872070,0.5140817642211913
0.5523593902587890,0.5069011688232422
0.5523593902587890,0.5069011688232422
0.5651350021362305,0.5111223220825195
0.5651350021362305,0.5111223220825195
0.5586421966552734,0.5208703994750976
0.5586421966552734,0.5208703994750976
0.5591205596923828,0.5107389450073242
0.5591205596923828,0.5107389450073242
0.5689178466796875,0.5241708755493164
0.5689178466796875,0.5241708755493164
0.5584562301635742,0.5172386169433594
0.5584562301635742,0.5172386169433594
0.5707288742065429,0.5239036560058593
0.5707288742065429,0.5239036560058593
0.5644575119018554,0.5296943664550781
0.5644575119018554,0.5296943664550781
0.5647127151489257,0.5216812133789063
0.5647127151489257,0.5216812133789063
0.5747428894042969,0.5340986251831055
0.5747428894042969,0.5340986251831055
0.5614780426025391,0.5230745315551758
0.5614780426025391,0.5230745315551758
0.5662702560424805,0.5092185974121094
0.5662702560424805,0.5092185974121094
0.5473909378051758,0.4935796737670898
0.5473909378051758,0.4935796737670898
0.5353672027587890,0.4636905670166016
0.5353672027587890,0.4636905670166016
0.5360801696777343,0.4650644302368164
0.5292182922363281,0.4650644302368164
0.5204704284667968,0.4482444763183593
0.5204704284667968,0.4482444763183593
0.5296440124511719,0.4475881576538086
0.5167785644531250,0.4475881576538086
0.5216548919677734,0.4513572692871093
0.5216548919677734,0.4513572692871093
0.5202575683593750,0.4420406341552734
0.5202575683593750,0.4420406341552734
0.5286483764648438,0.4509607315063476
0.5286483764648438,0.4509607315063476
0.5168684005737304,0.4415079116821289
0.5168684005737304,0.4415079116821289
0.5286014556884765,0.4441097259521484
0.5286014556884765,0.4441097259521484
0.5210895538330078,0.4520427703857421
0.5210895538330078,0.4520427703857421
0.5210483551025390,0.4404510498046875
0.5210483551025390,0.4404510498046875
0.5299215316772461,0.4528432846069336
0.5299215316772461,0.4528432846069336
0.5193872451782227,0.4450630187988281
0.5193872451782227,0.4450630187988281
0.5314802169799805,0.4511335372924805
0.5314802169799805,0.4511335372924805
0.5251127243041992,0.4567949295043945
0.5251127243041992,0.4567949295043945
0.5258090972900390,0.4489814758300781
0.5258090972900390,0.4489814758300781
0.5362535476684570,0.4633380889892578
0.5362535476684570,0.4633380889892578
0.5261838912963867,0.4597463607788086
0.5261838912963867,0.4597463607788086
0.5398475646972656,0.4647216796875000
0.5398475646972656,0.4647216796875000
0.5347045898437500,0.4754104614257812
0.5347045898437500,0.4754104614257812
0.5378179550170898,0.4707406997680664
0.5378179550170898,0.4707406997680664
0.5492225646972656,0.4898305892944336
0.5492225646972656,0.4898305892944336
0.5405204772949218,0.4838842391967773
0.5405204772949218,0.4838842391967773
0.5544565200805663,0.4911867141723633
0.5544565200805663,0.4911867141723633
0.5494245529174805,0.5007425308227539
0.5494245529174805,0.5007425308227539
0.5506702423095703,0.4957048416137695
0.5506702423095703,0.4957048416137695
0.5604291915893554,0.5073532104492188
0.5604291915893554,0.5073532104492188
0.5492746353149414,0.4993268966674804
0.5492746353149414,0.4993268966674804
0.5616153717041016,0.5027841567993164
0.5616153717041016,0.5027841567993164
0.5539541244506836,0.5107526779174805
0.5539541244506836,0.5107526779174805
0.5538013458251952,0.4987838745117187
0.5538013458251952,0.4987838745117187
0.5623271942138671,0.5106370925903320
0.5623271942138671,0.5106370925903320
0.5512470245361328,0.5019807815551758
0.5512470245361328,0.5019807815551758
0.5625726699829101,0.5074413299560546
0.5625726699829101,0.5074413299560546
0.5554807662963867,0.5118690490722656
0.5554807662963867,0.5118690490722656
0.5554996490478515,0.5028367996215820
0.5554996490478515,0.5028367996215820
0.5651567459106445,0.5156633377075195
0.5651567459106445,0.5156633377075195
0.5539798736572266,0.5096723556518554
0.5539798736572266,0.5096723556518554
0.5659887313842773,0.5119995117187500
0.5659887313842773,0.5119995117187500
0.5591463088989258,0.5189804077148438
0.5591463088989258,0.5189804077148438
0.5601402282714844,0.5105981826782227
0.5601402282714844,0.5105981826782227
0.5692634582519531,0.5261535644531250
0.5692634582519531,0.5261535644531250
0.5587898254394531,0.5167694091796875
0.5587898254394531,0.5167694091796875
0.5707660675048828,0.5219461441040039
0.5707660675048828,0.5219461441040039
0.5649467468261719,0.5297367095947265
0.5649467468261719,0.5297367095947265
0.5660024642944336,0.5239620208740234
0.5660024642944336,0.5239620208740234
0.5754049301147460,0.5357362747192382
0.5754049301147460,0.5357362747192382
0.5648849487304687,0.5284360885620117
0.5648849487304687,0.5284360885620117
0.5776851654052734,0.5335596084594726
0.5776851654052734,0.5335596084594726
0.5709606170654297,0.5432825088500977
0.5709606170654297,0.5432825088500977
0.5719671249389648,0.5328077316284180
0.5719671249389648,0.5328077316284180
0.5799493789672852,0.5436241149902343
0.5799493789672852,0.5436241149902343
0.5654502868652344,0.5250869750976562
0.5654502868652344,0.5250869750976562
0.5663990020751953,0.5100048065185546
0.5663990020751953,0.5100048065185546
0.5454030990600586,0.4890787124633789
0.5454030990600586,0.4890787124633789
0.5338096618652344,0.4602401733398437
0.5257215499877930,0.4602401733398437
0.5356407165527344,0.4617748260498047
0.5356407165527344,0.4617748260498047
0.5207513809204102,0.4494289398193359
0.5207513809204102,0.4494289398193359
0.5305183410644531,0.4479864120483398
0.5305183410644531,0.4479864120483398
0.5216234207153320,0.4516691207885742
0.5216234207153320,0.4516691207885742
0.5218585968017578,0.4406993865966797
0.5218585968017578,0.4406993865966797
0.5297258377075195,0.4540191650390625
0.5255990982055664,0.4540191650390625
0.5183647155761718,0.4425825119018554
0.5183647155761718,0.4425825119018554
0.5296669006347656,0.4460083007812500
0.5296669006347656,0.4460083007812500
0.5227735519409179,0.4518579483032226
0.5227735519409179,0.4518579483032226
0.5232627868652343,0.4444896697998047
0.5232627868652343,0.4444896697998047
0.5320318222045898,0.4555978775024414
0.5320318222045898,0.4555978775024414
0.5209613800048828,0.4474679946899414
0.5209613800048828,0.4474679946899414
0.5231340408325195,0.4476499557495117
0.5278678894042969,0.4476499557495117
0.5246795654296875,0.4604690551757812
0.5246795654296875,0.4604690551757812
0.5385572433471679,0.4747158050537109
0.5385572433471679,0.4747158050537109
0.5336196899414062,0.4672719955444335
0.5336196899414062,0.4672719955444335
0.5478115081787109,0.4831987380981445
0.5478115081787109,0.4831987380981445
0.5393983840942382,0.4858245849609375
0.5393983840942382,0.4858245849609375
0.5445373535156249,0.4918310165405273
0.5555156707763672,0.4918310165405273
0.5582302093505859,0.4974964141845703
0.5582302093505859,0.4974964141845703
0.5524818420410156,0.5059101104736328
0.5524818420410156,0.5059101104736328
0.5542167663574219,0.4979867935180664
0.5542167663574219,0.4979867935180664
0.5625829696655273,0.5128870010375977
0.5625829696655273,0.5128870010375977
0.5514884948730469,0.5012998580932617
0.5514884948730469,0.5012998580932617
0.5621286392211914,0.5043153762817383
0.5621286392211914,0.5043153762817383
0.5547208786010742,0.5090475082397461
0.5547208786010742,0.5090475082397461
0.5546018600463867,0.5007122039794921
0.5546018600463867,0.5007122039794921
0.5624988555908202,0.5106067657470703
0.5624988555908202,0.5106067657470703
0.5512441635131836,0.5012140274047852
0.5512441635131836,0.5012140274047852
0.5630075454711914,0.5053527832031249
0.5630075454711914,0.5053527832031249
0.5555671691894531,0.5134517669677734
0.5555671691894531,0.5134517669677734
0.5565004348754883,0.5023796081542968
0.5565004348754883,0.5023796081542968
0.5645839691162109,0.5154190063476562
0.5645839691162109,0.5154190063476562
0.5544925689697265,0.5069234848022460
0.5544925689697265,0.5069234848022460
0.5661249160766602,0.5138523101806640
0.5661249160766602,0.5138523101806640
0.5591669082641602,0.5183532714843749
0.5591669082641602,0.5183532714843749
0.5602724075317382,0.5100317001342773
0.5602724075317382,0.5100317001342773
0.5693916320800781,0.5237857818603515
0.5693916320800781,0.5237857818603515
0.5588350296020508,0.5176986694335938
0.5588350296020508,0.5176986694335938
0.5709257125854492,0.5211193084716796
0.5709257125854492,0.5211193084716796
0.5637914657592773,0.5280143737792968
0.5637914657592773,0.5280143737792968
0.5657398223876953,0.5198524475097656
0.5657398223876953,0.5198524475097656
0.5745557785034180,0.5360567092895507
0.5745557785034180,0.5360567092895507
0.5644861221313476,0.5262434005737304
0.5644861221313476,0.5262434005737304
0.5768377304077148,0.5322629928588867
0.5768377304077148,0.5322629928588867
0.5700078964233398,0.5375043869018554
0.5784530639648438,0.5375043869018554
0.5678672790527344,0.5232261657714844
0.5678672790527344,0.5232261657714844
0.5672195434570312,0.5155878067016602
0.5672195434570312,0.5155878067016602
0.5430942535400390,0.4820772171020508
0.5430942535400390,0.4820772171020508
0.5428808212280273,0.4662683486938476
0.5428808212280273,0.4662683486938476
0.5276922225952149,0.4620351791381836
0.5276922225952149,0.4620351791381836
0.5246412277221679,0.4447660446166992
0.5246412277221679,0.4447660446166992
0.5305406570434570,0.4539201736450195
0.5305406570434570,0.4539201736450195
0.5187658309936524,0.4422672271728516
0.5187658309936524,0.4422672271728516
0.5292114257812500,0.4471899032592773
0.5292114257812500,0.4471899032592773
0.5213453292846679,0.4497156143188477
0.5213453292846679,0.4497156143188477
0.5215284347534179,0.4396150588989258
0.5215284347534179,0.4396150588989258
0.5300153732299805,0.4518539428710937
0.5300153732299805,0.4518539428710937
0.5190313339233398,0.4442459106445312
0.5190313339233398,0.4442459106445312
0.5305875778198242,0.4468780517578125
0.5305875778198242,0.4468780517578125
0.5233898162841797,0.4526309967041016
0.5233898162841797,0.4526309967041016
0.5249050140380859,0.4439043045043945
0.5249050140380859,0.4439043045043945
0.5331567764282227,0.4594167709350586
0.5331567764282227,0.4594167709350586
0.5230751037597656,0.4491565704345703
0.5230751037597656,0.4491565704345703
0.5350044250488281,0.4554645538330078
0.5350044250488281,0.4554645538330078
0.5294174194335938,0.4631761550903320
0.5294174194335938,0.4631761550903320
0.5316787719726562,0.4589372634887695
0.5316787719726562,0.4589372634887695
0.5418428421020508,0.4737493515014648
0.5418428421020508,0.4737493515014648
0.5337272644042969,0.4691722869873047
0.5337272644042969,0.4691722869873047
0.5482772827148438,0.4794187545776367
0.5482772827148438,0.4794187545776367
0.5437889099121094,0.4922327041625976
0.5437889099121094,0.4922327041625976
0.5475866317749023,0.4860477447509766
0.5475866317749023,0.4860477447509766
0.5577003479003906,0.5031881332397461
0.5577003479003906,0.5031881332397461
0.5495939254760742,0.4970901489257812
0.5495939254760742,0.4970901489257812
0.5621137619018555,0.5060771942138672
0.5621137619018555,0.5060771942138672
0.5552839279174805,0.5101644515991210
0.5552839279174805,0.5101644515991210
0.5562623977661133,0.5005136489868164
0.5562623977661133,0.5005136489868164
0.5638441085815430,0.5124372482299805
0.5638441085815430,0.5124372482299805
0.5523542404174805,0.5036001205444336
0.5523542404174805,0.5036001205444336
0.5630968093872070,0.5053762435913086
0.5630968093872070,0.5053762435913086
0.5547786712646484,0.5097267150878906
0.5547786712646484,0.5097267150878906
0.5560838699340820,0.4998327255249023
0.5560838699340820,0.4998327255249023
0.5635196685791015,0.5144794464111327
0.5635196685791015,0.5144794464111327
0.5528257369995117,0.5028493881225585
0.5528257369995117,0.5028493881225585
0.5642383575439452,0.5081136703491210
0.5642383575439452,0.5081136703491210
0.5572723388671875,0.5136526107788085
0.5572723388671875,0.5136526107788085
0.5584178924560547,0.5069950103759765
0.5584178924560547,0.5069950103759765
0.5664350509643554,0.5184717178344727
0.5664350509643554,0.5184717178344727
0.5560260772705078,0.5095550537109375
0.5560260772705078,0.5095550537109375
0.5683061599731445,0.5158264160156250
0.5683061599731445,0.5158264160156250
0.5613224029541015,0.5241931915283203
0.5613224029541015,0.5241931915283203
0.5632032394409180,0.5140211105346679
0.5632032394409180,0.5140211105346679
0.5714115142822266,0.5281774520874023
0.5714115142822266,0.5281774520874023
0.5618076324462891,0.5197082519531250
0.5618076324462891,0.5197082519531250
0.5736179351806641,0.5284252166748047
0.5736179351806641,0.5284252166748047
0.5670341491699219,0.5327836990356445
0.5670341491699219,0.5327836990356445
0.5686231613159179,0.5248655319213867
0.5686231613159179,0.5248655319213867
0.5770448684692383,0.5372709274291992
0.5770448684692383,0.5372709274291992
0.5635448455810547,0.5222602844238281
0.5635448455810547,0.5222602844238281
0.5659252166748047,0.5067249298095703
0.5659252166748047,0.5067249298095703
0.5450311660766601,0.4869695663452148
0.5450311660766601,0.4869695663452148
0.5342376708984374,0.4577127456665039
0.5342376708984374,0.4577127456665039
0.5342393875122070,0.4613056182861328
0.5287273406982421,0.4613056182861328
0.5200138092041016,0.4437578201293945
0.5200138092041016,0.4437578201293945
0.5290437698364258,0.4458211898803711
0.5290437698364258,0.4458211898803711
0.5209728240966797,0.4485403060913086
0.5209728240966797,0.4485403060913086
0.5212400436401367,0.4396104812622070
0.5212400436401367,0.4396104812622070
0.5282661437988281,0.4494586944580078
0.5282661437988281,0.4494586944580078
0.5174268722534180,0.4387001037597656
0.5174268722534180,0.4387001037597656
0.5286941528320312,0.4435020446777344
0.5286941528320312,0.4435020446777344
0.5209236145019531,0.4498580932617187
0.5209236145019531,0.4498580932617187
0.5221944808959961,0.4384449005126953
0.5221944808959961,0.4384449005126953
0.5295009613037109,0.4514030456542968
0.5295009613037109,0.4514030456542968
0.5196390151977539,0.4417070388793945
0.5196390151977539,0.4417070388793945
0.5312232971191406,0.4499462127685547
0.5312232971191406,0.4499462127685547
0.5243122100830078,0.4537885665893555
0.5243122100830078,0.4537885665893555
0.5263933181762696,0.4459379196166992
0.5263933181762696,0.4459379196166992
0.5351972579956055,0.4610601425170898
0.5351972579956055,0.4610601425170898
0.5261575698852539,0.4559486389160156
0.5261575698852539,0.4559486389160156
0.5395191192626952,0.4637706756591797
0.5395191192626952,0.4637706756591797
0.5343938827514648,0.4732938766479492
0.5343938827514648,0.4732938766479492
0.5391792297363281,0.4694492340087890
0.5391792297363281,0.4694492340087890
0.5495538711547852,0.4898288726806641
0.5495538711547852,0.4898288726806641
0.5418251037597656,0.4828943252563476
0.5418251037597656,0.4828943252563476
0.5556346893310546,0.4930973052978516
0.5556346893310546,0.4930973052978516
0.5503286361694336,0.5010126113891601
0.5503286361694336,0.5010126113891601
0.5528411865234375,0.4955698013305664
0.5528411865234375,0.4955698013305664
0.5607044219970703,0.5073131561279297
0.5607044219970703,0.5073131561279297
0.5497558593749999,0.4962621688842773
0.5497558593749999,0.4962621688842773
0.5607976913452148,0.5006727218627930
0.5607976913452148,0.5006727218627930
0.5521081924438477,0.5049264907836913
0.5521081924438477,0.5049264907836913
0.5520835876464844,0.4914064407348633
0.5520835876464844,0.4914064407348633
0.5581529617309570,0.5022634506225586
0.5581529617309570,0.5022634506225586
0.5468942642211914,0.4902254104614258
0.5468942642211914,0.4902254104614258
0.5571825027465820,0.4969625473022461
0.5571825027465820,0.4969625473022461
0.5492443084716797,0.4985961914062500
0.5492443084716797,0.4985961914062500
0.5502593994140624,0.4890111923217773
0.5502593994140624,0.4890111923217773
0.5579578399658203,0.5021438598632812
0.5579578399658203,0.5021438598632812
0.5475591659545899,0.4940294265747070
0.5475591659545899,0.4940294265747070
0.5590845108032226,0.4988307952880859
0.5590845108032226,0.4988307952880859
0.5520578384399414,0.5039314270019531
0.5520578384399414,0.5039314270019531
0.5542173385620117,0.4956304550170898
0.5542173385620117,0.4956304550170898
0.5617303848266602,0.5117134094238281
0.5617303848266602,0.5117134094238281
0.5520606994628906,0.5006137847900390
0.5520606994628906,0.5006137847900390
0.5636432647705077,0.5081468582153320
0.5636432647705077,0.5081468582153320
0.5572986602783203,0.5137573242187500
0.5572986602783203,0.5137573242187500
0.5593534469604492,0.5078722000122070
0.5593534469604492,0.5078722000122070
0.5673545837402344,0.5204246520996093
0.5673545837402344,0.5204246520996093
0.5574937820434570,0.5106050491333007
0.5574937820434570,0.5106050491333007
0.5677190780639648,0.5130254745483398
0.5677190780639648,0.5130254745483398
0.5542448043823242,0.5066299438476562
0.5542448043823242,0.5066299438476562
0.5455387115478515,0.4759723663330078
0.5455387115478515,0.4759723663330078
0.5414886474609375,0.4706377029418945
0.5341369628906250,0.4706377029418945
0.5239774703979492,0.4482387542724609
0.5239774703979492,0.4482387542724609
0.5308628082275391,0.4501155853271484
0.5308628082275391,0.4501155853271484
0.5209928512573242,0.4482553482055664
0.5209928512573242,0.4482553482055664
0.5211404800415039,0.4364879608154297
0.5211404800415039,0.4364879608154297
0.5274461746215821,0.4476802825927734
0.5274461746215821,0.4476802825927734
0.5163173675537109,0.4376432418823242
0.5163173675537109,0.4376432418823242
0.5271600723266602,0.4414690017700195
0.5271600723266602,0.4414690017700195
0.5189838409423828,0.4447002410888672
0.5189838409423828,0.4447002410888672
0.5210180282592773,0.4350860595703125
0.5210180282592773,0.4350860595703125
0.5278375625610351,0.4499433517456055
0.5278375625610351,0.4499433517456055
0.5177724838256835,0.4377027511596679
0.5177724838256835,0.4377027511596679
0.5292360305786132,0.4447797775268554
0.5292360305786132,0.4447797775268554
0.5224634170532226,0.4495393753051758
0.5224634170532226,0.4495393753051758
0.5246767044067383,0.4434041976928711
0.5246767044067383,0.4434041976928711
0.5296834945678711,0.4476390838623047
0.5296834945678711,0.4476390838623047
0.5364904403686523,0.4603008270263672
0.5364904403686523,0.4603008270263672
0.5268871307373046,0.4519294738769531
0.5268871307373046,0.4519294738769531
0.5408781051635742,0.4682338714599609
0.5408781051635742,0.4682338714599609
0.5301109313964844,0.4670425415039062
0.5301109313964844,0.4670425415039062
0.5425764083862304,0.4692564010620117
0.5425764083862304,0.4692564010620117
0.5444578170776367,0.4845193862915039
0.5444578170776367,0.4845193862915039
0.5404712677001953,0.4762893676757812
0.5404712677001953,0.4762893676757812
0.5529458999633788,0.4910900115966796
0.5529458999633788,0.4910900115966796
0.5428035736083984,0.4873180389404297
0.5428035736083984,0.4873180389404297
0.5524532318115234,0.4870073318481445
0.5524532318115234,0.4870073318481445
0.5520847320556640,0.4980468750000000
0.5520847320556640,0.4980468750000000
0.5450197219848633,0.4852220535278320
0.5450197219848633,0.4852220535278320
0.5572139739990234,0.4961700439453125
0.5572139739990234,0.4961700439453125
0.5446998596191406,0.4905418395996093
0.5446998596191406,0.4905418395996093
0.5535203933715820,0.4883932113647461
0.5535203933715820,0.4883932113647461
0.5514049530029297,0.4984931945800781
0.5514049530029297,0.4984931945800781
0.5463809967041016,0.4860168457031250
0.5463809967041016,0.4860168457031250
0.5582897186279296,0.4990253448486328
0.5582897186279296,0.4990253448486328
0.5464267730712891,0.4945146560668945
0.5464267730712891,0.4945146560668945
0.5549783706665039,0.4932392120361328
0.5549783706665039,0.4932392120361328
0.5555179595947265,0.5041711807250976
0.5555179595947265,0.5041711807250976
0.5503240585327148,0.4935934066772460
0.5503240585327148,0.4935934066772460
0.5624462127685547,0.5068136215209961
0.5624462127685547,0.5068136215209961
0.5498010635375976,0.5021982192993164
0.5498010635375976,0.5021982192993164
0.5603805541992187,0.5015298843383789
0.5603805541992187,0.5015298843383789
0.5601882934570312,0.5138093948364257
0.5601882934570312,0.5138093948364257
0.5552547454833984,0.5035326004028320
0.5552547454833984,0.5035326004028320
0.5665889739990234,0.5165782928466797
0.5665889739990234,0.5165782928466797
0.5559104919433594,0.5118267059326171
0.5559104919433594,0.5118267059326171
0.5659606933593749,0.5122112274169922
0.5659606933593749,0.5122112274169922
0.5657524108886719,0.5241371154785156
0.5657524108886719,0.5241371154785156
0.5597591400146484,0.5135004043579101
0.5597591400146484,0.5135004043579101
0.5729501724243163,0.5260168075561523
0.5729501724243163,0.5260168075561523
0.5599863052368164,0.5181844711303710
0.5599863052368164,0.5181844711303710
0.5644958496093749,0.5062568664550781
0.5644958496093749,0.5062568664550781
0.5524932861328125,0.4966255187988281
0.5524932861328125,0.4966255187988281
0.5359205245971680,0.4635251998901367
0.5334474563598632,0.4635251998901367
0.5386877059936523,0.4619670867919922
0.5386877059936523,0.4619670867919922
0.5211170196533202,0.4483932495117187
0.5211170196533202,0.4483932495117187
0.5267440795898437,0.4425521850585937
0.5267440795898437,0.4425521850585937
0.5250154495239258,0.4495840072631836
0.5250154495239258,0.4495840072631836
0.5182016372680663,0.4361709594726562
0.5182016372680663,0.4361709594726562
0.5291084289550781,0.4473798751831055
0.5291084289550781,0.4473798751831055
0.5155591964721680,0.4400562286376953
0.5155591964721680,0.4400562286376953
0.5254531860351562,0.4378652572631836
0.5254531860351562,0.4378652572631836
0.5245038986206054,0.4483091354370117
0.5245038986206054,0.4483091354370117
0.5188545227050781,0.4365926742553711
0.5188545227050781,0.4365926742553711
0.5296634674072266,0.4487829208374023
0.5296634674072266,0.4487829208374023
0.5187080383300781,0.4429018020629883
0.5187080383300781,0.4429018020629883
0.5284967422485352,0.4431896209716797
0.5284967422485352,0.4431896209716797
0.5282049179077148,0.4549261093139648
0.5282049179077148,0.4549261093139648
0.5224691390991211,0.4442419052124023
0.5224691390991211,0.4442419052124023
0.5360006332397461,0.4580886840820312
0.5360006332397461,0.4580886840820312
0.5252735137939453,0.4553466796875000
0.5252735137939453,0.4553466796875000
0.5365585327148438,0.4581127166748047
0.5365585327148438,0.4581127166748047
0.5368371963500976,0.4724601745605468
0.5368371963500976,0.4724601745605468
0.5347417831420899,0.4649345397949218
0.5347417831420899,0.4649345397949218
0.5488700866699219,0.4822975158691406
0.5488700866699219,0.4822975158691406
0.5389348983764648,0.4805442810058593
0.5389348983764648,0.4805442810058593
0.5492763519287109,0.4825103759765625
0.5492763519287109,0.4825103759765625
0.5505334854125976,0.4945032119750976
0.5505334854125976,0.4945032119750976
0.5460039138793945,0.4847419738769531
0.5460039138793945,0.4847419738769531
0.5577856063842773,0.4976703643798828
0.5577856063842773,0.4976703643798828
0.5445550918579102,0.4910333633422851
0.5445550918579102,0.4910333633422851
0.5545961380004882,0.4893001556396484
0.5545961380004882,0.4893001556396484
0.5531816482543945,0.4992456436157227
0.5531816482543945,0.4992456436157227
0.5473594665527344,0.4875480651855468
0.5473594665527344,0.4875480651855468
0.5577873229980469,0.4991758346557617
0.5577873229980469,0.4991758346557617
0.5462728500366211,0.4924392700195312
0.5462728500366211,0.4924392700195312
0.5561393737792969,0.4926750183105468
0.5561393737792969,0.4926750183105468
0.5551843643188477,0.5035589218139648
0.5551843643188477,0.5035589218139648
0.5493158340454102,0.4925714492797851
0.5493158340454102,0.4925714492797851
0.5621240615844726,0.5052989959716797
0.5621240615844726,0.5052989959716797
0.5502044677734375,0.5005685806274414
0.5502044677734375,0.5005685806274414
0.5603805541992187,0.5014652252197266
0.5603805541992187,0.5014652252197266
0.5585947036743164,0.5119171142578125
0.5585947036743164,0.5119171142578125
0.5545274734497070,0.5007694244384765
0.5545274734497070,0.5007694244384765
0.5667680740356446,0.5144834518432617
0.5667680740356446,0.5144834518432617
0.5547523498535156,0.5092872619628906
0.5547523498535156,0.5092872619628906
0.5640100479125977,0.5097301483154296
0.5640100479125977,0.5097301483154296
0.5641593933105469,0.5201339721679688
0.5641593933105469,0.5201339721679688
0.5594415664672852,0.5102537155151367
0.5594415664672852,0.5102537155151367
0.5715717315673828,0.5239980697631835
0.5715717315673828,0.5239980697631835
0.5585929870605468,0.5183057785034180
0.5585929870605468,0.5183057785034180
0.5698127746582031,0.5184345245361328
0.5698127746582031,0.5184345245361328
0.5692909240722656,0.5299924850463867
0.5692909240722656,0.5299924850463867
0.5644580841064453,0.5195674896240234
0.5644580841064453,0.5195674896240234
0.5750650405883789,0.5316009521484375
0.5750650405883789,0.5316009521484375
0.5616788864135742,0.5197568893432617
0.5616788864135742,0.5197568893432617
0.5649507522583007,0.5056629180908203
0.5649507522583007,0.5056629180908203
0.5520870208740234,0.4940053939819335
0.5520870208740234,0.4940053939819335
0.5339624404907226,0.4616729736328125
0.5339624404907226,0.4616729736328125
0.5378911972045898,0.4604690551757812
0.5378911972045898,0.4604690551757812
0.5208726882934570,0.4475246429443359
0.5208726882934570,0.4475246429443359
0.5281785964965821,0.4433229446411133
0.5281785964965821,0.4433229446411133
0.5242532730102539,0.4501436233520508
0.5242532730102539,0.4501436233520508
0.5188098907470703,0.4363100051879883
0.5188098907470703,0.4363100051879883
0.5295610427856445,0.4476144790649414
0.5295610427856445,0.4476144790649414
0.5166366577148437,0.4403326034545899
0.5166366577148437,0.4403326034545899
0.5253450393676757,0.4390760421752929
0.5253450393676757,0.4390760421752929
0.5244958877563476,0.4477787017822266
0.5244958877563476,0.4477787017822266
0.5195222854614258,0.4370103836059570
0.5195222854614258,0.4370103836059570
0.5310396194458008,0.4496458053588867
0.5310396194458008,0.4496458053588867
0.5179040908813476,0.4434093475341797
0.5179040908813476,0.4434093475341797
0.5292463302612305,0.4436725616455078
0.5292463302612305,0.4436725616455078
0.5284692764282226,0.4549690246582031
0.5284692764282226,0.4549690246582031
0.5243064880371093,0.4457141876220703
0.5243064880371093,0.4457141876220703
0.5359960556030273,0.4598321914672852
0.5359960556030273,0.4598321914672852
0.5257965087890625,0.4557237625122070
0.5257965087890625,0.4557237625122070
0.5380577087402344,0.4600421905517578
0.5380577087402344,0.4600421905517578
0.5387775421142578,0.4740966796875000
0.5387775421142578,0.4740966796875000
0.5352207183837890,0.4672548294067382
0.5352207183837890,0.4672548294067382
0.5498079299926758,0.4832977294921875
0.5498079299926758,0.4832977294921875
0.5394281387329102,0.4809345245361328
0.5394281387329102,0.4809345245361328
0.5514593124389648,0.4841857910156250
0.5514593124389648,0.4841857910156250
0.5498485565185547,0.4951229095458984
0.5498485565185547,0.4951229095458984
0.5463827133178710,0.4843408584594726
0.5463827133178710,0.4843408584594726
0.5578868865966796,0.4972074508666992
0.5578868865966796,0.4972074508666992
0.5450151443481445,0.4900943756103515
0.5575950622558593,0.4900943756103515
0.5539220809936524,0.4891662597656250
0.5539220809936524,0.4891662597656250
0.5524761199951171,0.4973911285400390
0.5524761199951171,0.4973911285400390
0.5471654891967773,0.4860460281372070
0.5471654891967773,0.4860460281372070
0.5581071853637695,0.4981023788452148
0.5581071853637695,0.4981023788452148
0.5443513870239257,0.4906328201293945
0.5443513870239257,0.4906328201293945
0.5554201126098632,0.4902488708496093
0.5554201126098632,0.4902488708496093
0.5539466857910156,0.5004409790039063
0.5539466857910156,0.5004409790039063
0.5491928100585938,0.4899707794189453
0.5491928100585938,0.4899707794189453
0.5596973419189453,0.5028264999389648
0.5596973419189453,0.5028264999389648
0.5483819961547851,0.4964246749877930
0.5483819961547851,0.4964246749877930
0.5592647552490234,0.4982202529907226
0.5592647552490234,0.4982202529907226
0.5579681396484375,0.5090549468994140
0.5579681396484375,0.5090549468994140
0.5527250289916992,0.4984828948974609
0.5527250289916992,0.4984828948974609
0.5652774810791016,0.5111371994018554
0.5652774810791016,0.5111371994018554
0.5532503128051758,0.5058803558349609
0.5532503128051758,0.5058803558349609
0.5640392303466797,0.5071363449096680
0.5640392303466797,0.5071363449096680
0.5616193771362304,0.5172174453735351
0.5616193771362304,0.5172174453735351
0.5582262039184570,0.5067054748535156
0.5582262039184570,0.5067054748535156
0.5698877334594726,0.5204475402832031
0.5698877334594726,0.5204475402832031
0.5578096389770507,0.5151391983032226
0.5578096389770507,0.5151391983032226
0.5580133438110352,0.5160610198974609
0.5671875000000000,0.5257627487182617
0.5671875000000000,0.5257627487182617
0.5631906509399414,0.5164043426513671
0.5631906509399414,0.5164043426513671
0.5747835159301757,0.5296834945678711
0.5747835159301757,0.5296834945678711
0.5614036560058594,0.5228199005126953
0.5614036560058594,0.5228199005126953
0.5713113784790039,0.5183647155761718
0.5713113784790039,0.5183647155761718
0.5630332946777343,0.5147426605224609
0.5630332946777343,0.5147426605224609
0.5472667694091796,0.4825653076171875
0.5472667694091796,0.4825653076171875
0.5451805114746093,0.4734552383422851
0.5451805114746093,0.4734552383422851
0.5246515274047852,0.4528490066528320
0.5246515274047852,0.4528490066528320
0.5307226181030273,0.4470079421997070
0.5204916000366211,0.4433458328247070
0.5262611389160156,0.4524021148681641
0.5310436248779297,0.4524021148681641
0.5191886901855468,0.4387710571289062
0.5191886901855468,0.4387710571289062
0.5301933288574219,0.4485637664794922
0.5301933288574219,0.4485637664794922
0.5167642593383789,0.4407846450805664
0.5167642593383789,0.4407846450805664
0.5269712448120117,0.4405952453613281
0.5269712448120117,0.4405952453613281
0.5234853744506835,0.4486890792846679
0.5234853744506835,0.4486890792846679
0.5197523117065429,0.4368404388427734
0.5197523117065429,0.4368404388427734
0.5309114456176758,0.4495885848999023
0.5309114456176758,0.4495885848999023
0.5182983398437500,0.4429996490478516
0.5182983398437500,0.4429996490478516
0.5285230636596679,0.4438173294067383
0.5285230636596679,0.4438173294067383
0.5273860931396485,0.4531711578369140
0.5273860931396485,0.4531711578369140
0.5236198425292968,0.4439603805541992
0.5236198425292968,0.4439603805541992
0.5354690551757812,0.4579776763916015
0.5354690551757812,0.4579776763916015
0.5229589462280273,0.4525972366333008
0.5229589462280273,0.4525972366333008
0.5359577178955078,0.4554050445556641
0.5359577178955078,0.4554050445556641
0.5354885101318360,0.4685771942138672
0.5354885101318360,0.4685771942138672
0.5333999633789063,0.4621152877807617
0.5333999633789063,0.4621152877807617
0.5458757400512695,0.4784603118896484
0.5458757400512695,0.4784603118896484
0.5365110397338867,0.4752445220947266
0.5365110397338867,0.4752445220947266
0.5493890762329101,0.4801265716552734
0.5493890762329101,0.4801265716552734
0.5487018585205078,0.4923820495605469
0.5487018585205078,0.4923820495605469
0.5445459365844726,0.4830259323120117
0.5445459365844726,0.4830259323120117
0.5570755004882812,0.4955268859863281
0.5570755004882812,0.4955268859863281
0.5445739746093750,0.4893293380737305
0.5445739746093750,0.4893293380737305
0.5551357269287109,0.4895318984985351
0.5551357269287109,0.4895318984985351
0.5511451721191406,0.4975244522094726
0.5511451721191406,0.4975244522094726
0.5472198486328125,0.4853158950805664
0.5472198486328125,0.4853158950805664
0.5577615737915039,0.4971490859985351
0.5577615737915039,0.4971490859985351
0.5448211669921875,0.4900268554687500
0.5448211669921875,0.4900268554687500
0.5544610977172851,0.4900829315185546
0.5544610977172851,0.4900829315185546
0.5526311874389648,0.4983644485473633
0.5526311874389648,0.4983644485473633
0.5486246109008789,0.4886163711547851
0.5486246109008789,0.4886163711547851
0.5598266601562499,0.5012872695922851
0.5598266601562499,0.5012872695922851
0.5464731216430664,0.4949512481689453
0.5464731216430664,0.4949512481689453
0.5585924148559570,0.4961643218994141
0.5585924148559570,0.4961643218994141
0.5564849853515624,0.5067941665649414
0.5564849853515624,0.5067941665649414
0.5529762268066406,0.4977098464965820
0.5529762268066406,0.4977098464965820
0.5636461257934570,0.5104454040527343
0.5636461257934570,0.5104454040527343
0.5523925781250000,0.5040430068969727
0.5523925781250000,0.5040430068969727
0.5640649795532227,0.5065361022949219
0.5640649795532227,0.5065361022949219
0.5616359710693359,0.5166521072387695
0.5616359710693359,0.5166521072387695
0.5572214126586914,0.5068496704101563
0.5572214126586914,0.5068496704101563
0.5696353912353516,0.5195537567138672
0.5696353912353516,0.5195537567138672
0.5576511383056640,0.5144680023193359
0.5576511383056640,0.5144680023193359
0.5691598892211914,0.5169067382812500
0.5589895248413086,0.5169067382812500
0.5659275054931641,0.5263423919677734
0.5659275054931641,0.5263423919677734
0.5633634567260742,0.5161943435668945
0.5633634567260742,0.5161943435668945
0.5749814987182617,0.5297555923461914
0.5749814987182617,0.5297555923461914
0.5627174377441406,0.5238870620727539
0.5627174377441406,0.5238870620727539
0.5731601715087891,0.5252815246582031
0.5731601715087891,0.5252815246582031
0.5708656311035156,0.5326246261596680
0.5708656311035156,0.5326246261596680
0.5646274566650390,0.5164335250854492
0.5646274566650390,0.5164335250854492
0.5676670074462891,0.5124532699584960
0.5676670074462891,0.5124532699584960
0.5418594360351562,0.4822952270507812
0.5418594360351562,0.4822952270507812
0.5421083450317382,0.4633335113525390
0.5421083450317382,0.4633335113525390
0.5315237045288086,0.4617456436157226
0.5315237045288086,0.4617456436157226
0.5242578506469726,0.4461433410644531
0.5242578506469726,0.4461433410644531
0.5325073242187500,0.4550937652587890
0.5325073242187500,0.4550937652587890
0.5197271347045899,0.4458835601806641
0.5197271347045899,0.4458835601806641
0.5303667068481445,0.4465335845947265
0.5303667068481445,0.4465335845947265
0.5269151687622070,0.4548088073730469
0.5269151687622070,0.4548088073730469
0.5221298217773437,0.4435249328613281
0.5221298217773437,0.4435249328613281
0.5337347030639649,0.4547292709350585
0.5337347030639649,0.4547292709350585
0.5214111328125000,0.4484327316284180
0.5214111328125000,0.4484327316284180
0.5326028823852539,0.4498666763305664
0.5326028823852539,0.4498666763305664
0.5286746978759765,0.4586528778076172
0.5286746978759765,0.4586528778076172
0.5261386871337891,0.4483142852783203
0.5261386871337891,0.4483142852783203
0.5375959396362304,0.4617851257324219
0.5375959396362304,0.4617851257324219
0.5256431579589843,0.4563543319702148
0.5256431579589843,0.4563543319702148
0.5367341995239258,0.4587444305419922
0.5367341995239258,0.4587444305419922
0.5352373123168945,0.4689022064208984
0.5352373123168945,0.4689022064208984
0.5333896636962890,0.4622915267944336
0.5333896636962890,0.4622915267944336
0.5462116241455078,0.4781536102294922
0.5462116241455078,0.4781536102294922
0.5350490570068359,0.4753017425537109
0.5350490570068359,0.4753017425537109
0.5495384216308593,0.4803503036499023
0.5495384216308593,0.4803503036499023
0.5482297897338867,0.4935161590576171
0.5482297897338867,0.4935161590576171
0.5467666625976563,0.4868333816528320
0.5467666625976563,0.4868333816528320
0.5581003189086914,0.5007385253906250
0.5581003189086914,0.5007385253906250
0.5471385955810547,0.4944082260131836
0.5471385955810547,0.4944082260131836
0.5588012695312500,0.4964670181274414
0.5588012695312500,0.4964670181274414
0.5546865463256836,0.5042106628417968
0.5546865463256836,0.5042106628417968
0.5498537063598633,0.4924804687500000
0.5498537063598633,0.4924804687500000
0.5605281829833985,0.5021873474121094
0.5605281829833985,0.5021873474121094
0.5470996856689453,0.4944225311279297
0.5470996856689453,0.4944225311279297
0.5576488494873046,0.4947057723999023
0.5576488494873046,0.4947057723999023
0.5522335052490234,0.5015659332275391
0.5522335052490234,0.5015659332275391
0.5494531631469727,0.4901212692260742
0.5494531631469727,0.4901212692260742
0.5601093292236328,0.5023847579956054
0.5601093292236328,0.5023847579956054
0.5475866317749023,0.4955629348754882
0.5475866317749023,0.4955629348754882
0.5579463958740234,0.4971141815185547
0.5579463958740234,0.4971141815185547
0.5551763534545898,0.5053310394287109
0.5551763534545898,0.5053310394287109
0.5523754119873047,0.4964349746704101
0.5523754119873047,0.4964349746704101
0.5634801864624023,0.5095401763916015
0.5571693420410156,0.5095401763916015
0.5504693984985352,0.5028476715087891
0.5504693984985352,0.5028476715087891
0.5629703521728515,0.5044841766357422
0.5629703521728515,0.5044841766357422
0.5594535827636719,0.5142688751220703
0.5594535827636719,0.5142688751220703
0.5568454742431640,0.5051496505737304
0.5568454742431640,0.5051496505737304
0.5670776367187500,0.5177524566650390
0.5670776367187500,0.5177524566650390
0.5559900283813476,0.5111795425415039
0.5559900283813476,0.5111795425415039
0.5678255081176757,0.5142923355102539
0.5678255081176757,0.5142923355102539
0.5643356323242187,0.5239437103271484
0.5643356323242187,0.5239437103271484
0.5609138488769531,0.5142625808715821
0.5609138488769531,0.5142625808715821
0.5727888107299804,0.5264093399047851
0.5727888107299804,0.5264093399047851
0.5609785079956054,0.5212577819824219
0.5609785079956054,0.5212577819824219
0.5730010986328125,0.5239545822143554
0.5730010986328125,0.5239545822143554
0.5681716918945312,0.5321771621704101
0.5681716918945312,0.5321771621704101
0.5647373199462891,0.5175430297851562
0.5647373199462891,0.5175430297851562
0.5693126678466797,0.5166074752807617
0.5693126678466797,0.5166074752807617
0.5455581665039062,0.4882112503051758
0.5455581665039062,0.4882112503051758
0.5438581466674804,0.4689886093139648
0.5438581466674804,0.4689886093139648
0.5324890136718750,0.4647565841674804
0.5324890136718750,0.4647565841674804
0.5260837554931640,0.4498208999633789
0.5260837554931640,0.4498208999633789
0.5348819732666016,0.4590620040893554
0.5348819732666016,0.4590620040893554
0.5206769943237305,0.4503387451171875
0.5206769943237305,0.4503387451171875
0.5326274871826172,0.4504217147827148
0.5326274871826172,0.4504217147827148
0.5279136657714844,0.4585504531860352
0.5279136657714844,0.4585504531860352
0.5253049850463867,0.4485877990722656
0.5253049850463867,0.4485877990722656
0.5349225997924805,0.4599437713623047
0.5289430618286133,0.4599437713623047
0.5234458923339843,0.4523345947265625
0.5234458923339843,0.4523345947265625
0.5352590560913085,0.4549083709716797
0.5352590560913085,0.4549083709716797
0.5308839797973632,0.4634445190429687
0.5308839797973632,0.4634445190429687
0.5276870727539062,0.4538543701171875
0.5276870727539062,0.4538543701171875
0.5395294189453125,0.4658477783203125
0.5395294189453125,0.4658477783203125
0.5276527404785156,0.4603643417358398
0.5276527404785156,0.4603643417358398
0.5399282455444335,0.4637632369995117
0.5399282455444335,0.4637632369995117
0.5351680755615235,0.4730232238769531
0.5351680755615235,0.4730232238769531
0.5348241806030273,0.4648143768310546
0.5348241806030273,0.4648143768310546
0.5470962524414062,0.4804573059082031
0.5470962524414062,0.4804573059082031
0.5366083145141601,0.4773056030273437
0.5366083145141601,0.4773056030273437
0.5494503021240235,0.4829320907592773
0.5494503021240235,0.4829320907592773
0.5476661682128906,0.4940317153930664
0.5476661682128906,0.4940317153930664
0.5471351623535156,0.4878370285034179
0.5471351623535156,0.4878370285034179
0.5589551925659180,0.5022502899169922
0.5589551925659180,0.5022502899169922
0.5462585449218750,0.4956556320190429
0.5462585449218750,0.4956556320190429
0.5588041305541992,0.4967142105102539
0.5588041305541992,0.4967142105102539
0.5535495758056640,0.5043376922607422
0.5535495758056640,0.5043376922607422
0.5504047393798828,0.4928318023681640
0.5504047393798828,0.4928318023681640
0.5589609146118164,0.5028505325317383
0.5589609146118164,0.5028505325317383
0.5463981628417969,0.4932111740112304
0.5463981628417969,0.4932111740112304
0.5571493148803711,0.4942594528198242
0.5571493148803711,0.4942594528198242
0.5516447067260742,0.5012706756591797
0.5516447067260742,0.5012706756591797
0.5479768753051758,0.4901699066162109
0.5479768753051758,0.4901699066162109
0.5591165542602539,0.5011596679687500
0.5534505844116211,0.5011596679687500
0.5466831207275390,0.4948648452758789
0.5466831207275390,0.4948648452758789
0.5583715438842773,0.4971445083618164
0.5583715438842773,0.4971445083618164
0.5525413513183594,0.5051227569580078
0.5525413513183594,0.5051227569580078
0.5515216827392578,0.4950559616088867
0.5515216827392578,0.4950559616088867
0.5621377944946289,0.5082309722900390
0.5621377944946289,0.5082309722900390
0.5502187728881835,0.5019893646240234
0.5502187728881835,0.5019893646240234
0.5515193939208984,0.5040138244628906
0.5515193939208984,0.5040138244628906
0.5652231216430664,0.5117168426513672
0.5647699356079101,0.5117168426513672
0.5555047988891602,0.5034233093261719
0.5555047988891602,0.5034233093261719
0.5663154602050781,0.5162406921386719
0.5663154602050781,0.5162406921386719
0.5535072326660156,0.5098829269409180
0.5535072326660156,0.5098829269409180
0.5666959762573242,0.5121791839599609
0.5666959762573242,0.5121791839599609
0.5617355346679688,0.5213602066040038
0.5617355346679688,0.5213602066040038
0.5603101730346679,0.5127605438232422
0.5603101730346679,0.5127605438232422
0.5701452255249023,0.5249856948852539
0.5701452255249023,0.5249856948852539
0.5591165542602539,0.5181449890136719
0.5591165542602539,0.5181449890136719
0.5713090896606445,0.5212463378906250
0.5713090896606445,0.5212463378906250
0.5648168563842774,0.5256465911865235
0.5648168563842774,0.5256465911865235
0.5567916870117188,0.5040962219238281
0.5567916870117188,0.5040962219238281
0.5576013565063477,0.4952934265136719
0.5576013565063477,0.4952934265136719
0.5341718673706054,0.4700151443481445
0.5341718673706054,0.4700151443481445
0.5386167526245117,0.4615579605102539
0.5386167526245117,0.4615579605102539
0.5285076141357422,0.4632539749145508
0.5285076141357422,0.4632539749145508
0.5258142471313476,0.4498632431030273
0.5258142471313476,0.4498632431030273
0.5351022720336914,0.4606704711914062
0.5351022720336914,0.4606704711914062
0.5223060607910156,0.4522779464721680
0.5223060607910156,0.4522779464721680
0.5327877044677735,0.4535774230957031
0.5327877044677735,0.4535774230957031
0.5277889251708984,0.4598184585571289
0.5277889251708984,0.4598184585571289
0.5260059356689453,0.4502260208129882
0.5260059356689453,0.4502260208129882
0.5361980438232422,0.4624551773071289
0.5361980438232422,0.4624551773071289
0.5231924057006836,0.4547412872314453
0.5231924057006836,0.4547412872314453
0.5360704421997070,0.4564195632934570
0.5360704421997070,0.4564195632934570
0.5305704116821289,0.4648172378540039
0.5305704116821289,0.4648172378540039
0.5292623519897460,0.4555624008178711
0.5292623519897460,0.4555624008178711
0.5387632369995117,0.4679225921630859
0.5387632369995117,0.4679225921630859
0.5276601791381835,0.4606492996215820
0.5276601791381835,0.4606492996215820
0.5401405334472656,0.4645912170410156
0.5401405334472656,0.4645912170410156
0.5349992752075196,0.4737133026123047
0.5349992752075196,0.4737133026123047
0.5336345672607422,0.4654123306274414
0.5336345672607422,0.4654123306274414
0.5458889007568359,0.4791996002197265
0.5458889007568359,0.4791996002197265
0.5355010986328125,0.4757154464721680
0.5355010986328125,0.4757154464721680
0.5492443084716797,0.4815731048583984
0.5492443084716797,0.4815731048583984
0.5442380905151367,0.4921113967895507
0.5442380905151367,0.4921113967895507
0.5452056884765625,0.4845279693603515
0.5452056884765625,0.4845279693603515
0.5564867019653320,0.4992170333862305
0.5564867019653320,0.4992170333862305
0.5451238632202148,0.4932975769042969
0.5451238632202148,0.4932975769042969
0.5562944412231445,0.4953638076782226
0.5562944412231445,0.4953638076782226
0.5508613586425781,0.5011053085327148
0.5508613586425781,0.5011053085327148
0.5490560531616211,0.4910173416137695
0.5490560531616211,0.4910173416137695
0.5583749771118164,0.5017021179199218
0.5583749771118164,0.5017021179199218
0.5445093154907227,0.4928031921386719
0.5445093154907227,0.4928031921386719
0.5565896987915039,0.4932203292846680
0.5446495056152344,0.4932203292846680
0.5498788833618163,0.5002836227416992
0.5498788833618163,0.5002836227416992
0.5484220504760742,0.4904256820678711
0.5484220504760742,0.4904256820678711
0.5571870803833008,0.5016328811645507
0.5571870803833008,0.5016328811645507
0.5459655761718750,0.4935436248779297
0.5459655761718750,0.4935436248779297
0.5580579757690429,0.4970397949218750
0.5580579757690429,0.4970397949218750
0.5520698547363281,0.5048789978027344
0.5520698547363281,0.5048789978027344
0.5502656936645508,0.4955921173095703
0.5502656936645508,0.4955921173095703
0.5612989425659179,0.5074951171875000
0.5612989425659179,0.5074951171875000
0.5494869232177734,0.5013650894165039
0.5494869232177734,0.5013650894165039
0.5619180679321288,0.5049734115600586
0.5619180679321288,0.5049734115600586
0.5549377441406250,0.5123622894287109
0.5549377441406250,0.5123622894287109
0.5550252914428710,0.5027618408203125
0.5550252914428710,0.5027618408203125
0.5655710220336914,0.5165645599365234
0.5655710220336914,0.5165645599365234
0.5541927337646484,0.5101375579833984
0.5541927337646484,0.5101375579833984
0.5656373977661132,0.5135776519775390
0.5656373977661132,0.5135776519775390
0.5605939865112305,0.5207679748535156
0.5605939865112305,0.5207679748535156
0.5600360870361328,0.5126392364501953
0.5600360870361328,0.5126392364501953
0.5703306198120117,0.5258771896362304
0.5703306198120117,0.5258771896362304
0.5578868865966796,0.5185907363891601
0.5578868865966796,0.5185907363891601
0.5709611892700195,0.5208652496337890
0.5709611892700195,0.5208652496337890
0.5640054702758789,0.5265689849853515
0.5640054702758789,0.5265689849853515
0.5592767715454101,0.5079975128173828
0.5592767715454101,0.5079975128173828
0.5589334487915039,0.5017496109008789
0.5589334487915039,0.5017496109008789
0.5365425109863281,0.4737894058227539
0.5365425109863281,0.4737894058227539
0.5403911590576171,0.4648035049438476
0.5403911590576171,0.4648035049438476
0.5297029495239257,0.4658231735229492
0.5297029495239257,0.4658231735229492
0.5257764816284179,0.4524599075317383
0.5257764816284179,0.4524599075317383
0.5352138519287110,0.4618640899658203
0.5352138519287110,0.4618640899658203
0.5228519439697266,0.4535820007324218
0.5228519439697266,0.4535820007324218
0.5343566894531250,0.4555515289306640
0.5343566894531250,0.4555515289306640
0.5267618179321288,0.4617279052734375
0.5267618179321288,0.4617279052734375
0.5265363693237305,0.4510065078735351
0.5265363693237305,0.4510065078735351
0.5362037658691406,0.4635921478271484
0.5362037658691406,0.4635921478271484
0.5244489669799804,0.4561798095703125
0.5244489669799804,0.4561798095703125
0.5355583190917969,0.4587055206298828
0.5355583190917969,0.4587055206298828
0.5299249649047851,0.4651336669921875
0.5299249649047851,0.4651336669921875
0.5295701980590820,0.4566427230834961
0.5295701980590820,0.4566427230834961
0.5394470214843750,0.4693479537963867
0.5394470214843750,0.4693479537963867
0.5270393371582031,0.4620592117309570
0.5270393371582031,0.4620592117309570
0.5402744293212890,0.4649871826171875
0.5402744293212890,0.4649871826171875
0.5340894699096680,0.4736783981323242
0.5340894699096680,0.4736783981323242
0.5344053268432617,0.4661235809326172
0.5344053268432617,0.4661235809326172
0.5441373825073242,0.4801231384277344
0.5441373825073242,0.4801231384277344
0.5348201751708984,0.4744617462158203
0.5348201751708984,0.4744617462158203
0.5487281799316406,0.4815645217895508
0.5487281799316406,0.4815645217895508
0.5438890457153320,0.4919368743896484
0.5438890457153320,0.4919368743896484
0.5441957473754883,0.4855293273925781
0.5441957473754883,0.4855293273925781
0.5559322357177734,0.4993246078491211
0.5559322357177734,0.4993246078491211
0.5450506210327148,0.4932312011718750
0.5450506210327148,0.4932312011718750
0.5570520401000977,0.4964406967163086
0.5570520401000977,0.4964406967163086
0.5487567901611328,0.5013004302978515
0.5487567901611328,0.5013004302978515
0.5479087829589844,0.4886507034301757
0.5479087829589844,0.4886507034301757
0.5559722900390625,0.4988880157470703
0.5559722900390625,0.4988880157470703
0.5426782608032227,0.4879697799682617
0.5426782608032227,0.4879697799682617
0.5521453857421875,0.4880853652954101
0.5521453857421875,0.4880853652954101
0.5446489334106445,0.4915483474731445
0.5446489334106445,0.4915483474731445
0.5432218551635742,0.4809814453125000
0.5432218551635742,0.4809814453125000
0.5518215179443359,0.4922344207763671
0.5518215179443359,0.4922344207763671
0.5387660980224609,0.4829109191894531
0.5387660980224609,0.4829109191894531
0.5513797760009765,0.4848478317260742
0.5513797760009765,0.4848478317260742
0.5444766998291015,0.4923053741455078
0.5444766998291015,0.4923053741455078
0.5442649841308593,0.4832136154174804
0.5442649841308593,0.4832136154174804
0.5528583526611328,0.4959634780883789
0.5528583526611328,0.4959634780883789
0.5424339294433593,0.4877941131591796
0.5424339294433593,0.4877941131591796
0.5548576354980469,0.4925828933715820
0.5548576354980469,0.4925828933715820
0.5483591079711914,0.5003643035888672
0.5483591079711914,0.5003643035888672
0.5475528717041015,0.4912937164306641
0.5475528717041015,0.4912937164306641
0.5581209182739257,0.5037855148315430
0.5581209182739257,0.5037855148315430
0.5579938888549805,0.4971364974975586
0.5579938888549805,0.4971364974975586
0.5594781875610352,0.5013833999633789
0.5477525711059570,0.5013833999633789
0.5520286560058594,0.5085451126098632
0.5520286560058594,0.5085451126098632
0.5529327392578125,0.4988576889038085
0.5529327392578125,0.4988576889038085
0.5623311996459961,0.5125316619873047
0.5623311996459961,0.5125316619873047
0.5511468887329102,0.5050867080688476
0.5511468887329102,0.5050867080688476
0.5624605178833008,0.5084941864013671
0.5624605178833008,0.5084941864013671
0.5566028594970703,0.5148010253906250
0.5566028594970703,0.5148010253906250
0.5566240310668945,0.5061309814453124
0.5566240310668945,0.5061309814453124
0.5644884109497070,0.5149297714233398
0.5644884109497070,0.5149297714233398
0.5468067169189453,0.4950244903564453
0.5468067169189453,0.4950244903564453
0.5504167556762695,0.4808280944824219
0.5504167556762695,0.4808280944824219
0.5348579406738281,0.4744073867797851
0.5348579406738281,0.4744073867797851
0.5296857833862304,0.4576658248901367
0.5296857833862304,0.4576658248901367
0.5350576400756836,0.4654535293579101
0.5350576400756836,0.4654535293579101
0.5231586456298828,0.4538377761840820
0.5231586456298828,0.4538377761840820
0.5341461181640624,0.4563686370849609
0.5341461181640624,0.4563686370849609
0.5265855789184570,0.4617307662963867
0.5265855789184570,0.4617307662963867
0.5251304626464843,0.4512062072753906
0.5251304626464843,0.4512062072753906
0.5347366333007812,0.4622686386108398
0.5347366333007812,0.4622686386108398
0.5232170104980468,0.4539310455322265
0.5232170104980468,0.4539310455322265
0.5350667953491210,0.4576017379760742
0.5350667953491210,0.4576017379760742
0.5269357681274414,0.4632156372070312
0.5269357681274414,0.4632156372070312
0.5278032302856445,0.4529645919799805
0.5278032302856445,0.4529645919799805
0.5368989944458008,0.4662094116210938
0.5368989944458008,0.4662094116210938
0.5257627487182617,0.4579994201660156
0.5257627487182617,0.4579994201660156
0.5366952896118163,0.4616203308105469
0.5366952896118163,0.4616203308105469
0.5305538177490234,0.4674030303955078
0.5305538177490234,0.4674030303955078
0.5309154510498046,0.4594568252563476
0.5309154510498046,0.4594568252563476
0.5402629852294921,0.4730409622192382
0.5402629852294921,0.4730409622192382
0.5287948608398437,0.4651748657226562
0.5287948608398437,0.4651748657226562
0.5422496795654297,0.4697982788085937
0.5422496795654297,0.4697982788085937
0.5363685607910156,0.4789066314697266
0.5363685607910156,0.4789066314697266
0.5378837585449219,0.4723119735717773
0.5378837585449219,0.4723119735717773
0.5470773696899414,0.4872116088867187
0.5470773696899414,0.4872116088867187
0.5381309509277343,0.4799726486206055
0.5381309509277343,0.4799726486206055
0.5402372360229492,0.4822414398193359
0.5402372360229492,0.4831289291381836
0.5402372360229492,0.4831289291381836
0.5531135559082031,0.4927064895629882
0.5531135559082031,0.4927064895629882
0.5409238815307617,0.4903959274291992
0.5409238815307617,0.4903959274291992
0.5491979598999023,0.4855155944824219
0.5491979598999023,0.4855155944824219
0.5494411468505859,0.4977533340454101
0.5494411468505859,0.4977533340454101
0.5412128448486327,0.4823736190795898
0.5412128448486327,0.4823736190795898
0.5527908325195312,0.4924209594726562
0.5527908325195312,0.4924209594726562
0.5407579421997070,0.4894569396972656
0.5407579421997070,0.4894569396972656
0.5486812591552734,0.4868762969970703
0.5486812591552734,0.4868762969970703
0.5494136810302734,0.4961122512817382
0.5494136810302734,0.4961122512817382
0.5418073654174804,0.4838687896728515
0.5418073654174804,0.4838687896728515
0.5545354843139648,0.4952957153320312
0.5545354843139648,0.4952957153320312
0.5425191879272461,0.4957740783691406
0.5425191879272461,0.4957740783691406
0.5513574600219726,0.4906190872192382
0.5513574600219726,0.4906190872192382
0.5524217605590820,0.5027893066406249
0.5524217605590820,0.5027893066406249
0.5456834793090820,0.4910871505737304
0.5456834793090820,0.4910871505737304
0.5582759857177734,0.5048040390014649
0.5582759857177734,0.5048040390014649
0.5463769912719726,0.5010612487792968
0.5463769912719726,0.5010612487792968
0.5549612045288086,0.4974763870239258
0.5549612045288086,0.4974763870239258
0.5560197830200195,0.5089176177978515
0.5560197830200195,0.5089176177978515
0.5485668182373047,0.4986436843872070
0.5485668182373047,0.4986436843872070
0.5609510421752929,0.5080753326416015
0.5609510421752929,0.5080753326416015
0.5486835479736328,0.5058591842651367
0.5486835479736328,0.5058591842651367
0.5577524185180663,0.5022937774658203
0.5577524185180663,0.5022937774658203
0.5584156036376953,0.5157669067382812
0.5584156036376953,0.5157669067382812
0.5510988235473633,0.5014692306518554
0.5510988235473633,0.5014692306518554
0.5633811950683594,0.5126272201538086
0.5633811950683594,0.5126272201538086
0.5514558792114258,0.5101324081420898
0.5514558792114258,0.5101324081420898
0.5599090576171875,0.5084844589233398
0.5599090576171875,0.5084844589233398
0.5607896804809570,0.5181941986083984
0.5607896804809570,0.5181941986083984
0.5533224105834961,0.5063924789428711
0.5533224105834961,0.5063924789428711
0.5660144805908203,0.5165885925292969
0.5660144805908203,0.5165885925292969
0.5513082504272461,0.5099561691284179
0.5513082504272461,0.5099561691284179
0.5528846740722656,0.4903375625610351
0.5528846740722656,0.4903375625610351
0.5440280914306640,0.4850458145141601
0.5440280914306640,0.4850458145141601
0.5296857833862304,0.4613662719726562
0.5296857833862304,0.4613662719726562
0.5378705978393554,0.4684856414794922
0.5378705978393554,0.4684856414794922
0.5237039566040039,0.4605932235717773
0.5237039566040039,0.4605932235717773
0.5308479309082031,0.4551120758056640
0.5308479309082031,0.4551120758056640
0.5312679290771484,0.4650598526000976
0.5312679290771484,0.4650598526000976
0.5234350204467774,0.4536775588989257
0.5234350204467774,0.4536775588989257
0.5355966567993163,0.4626777648925781
0.5355966567993163,0.4626777648925781
0.5230785369873047,0.4592771530151367
0.5230785369873047,0.4592771530151367
0.5318801879882812,0.4555835723876953
0.5318801879882812,0.4555835723876953
0.5322584152221680,0.4684753417968750
0.5322584152221680,0.4684753417968750
0.5250938415527343,0.4541954040527343
0.5292131423950195,0.4541954040527343
0.5372812271118164,0.4658105850219726
0.5372812271118164,0.4658105850219726
0.5257575988769531,0.4630130767822265
0.5257575988769531,0.4630130767822265
0.5344516754150390,0.4617959976196289
0.5344516754150390,0.4617959976196289
0.5351337432861328,0.4716287612915039
0.5351337432861328,0.4716287612915039
0.5282197952270508,0.4598339080810547
0.5282197952270508,0.4598339080810547
0.5412134170532227,0.4719841003417968
0.5412134170532227,0.4719841003417968
0.5293310165405273,0.4719509124755859
0.5293310165405273,0.4719509124755859
0.5388444900512696,0.4683328628540039
0.5388444900512696,0.4683328628540039
0.5400501251220703,0.4814758300781250
0.5400501251220703,0.4814758300781250
0.5347200393676758,0.4716012954711914
0.5347200393676758,0.4716012954711914
0.5482223510742187,0.4877014160156250
0.5482223510742187,0.4877014160156250
0.5374797821044922,0.4851219177246093
0.5374797821044922,0.4851219177246093
0.5472742080688476,0.4839963912963867
0.5472742080688476,0.4839963912963867
0.5487556457519531,0.4963085174560546
0.5487556457519531,0.4963085174560546
0.5419372558593750,0.4863367080688477
0.5419372558593750,0.4863367080688477
0.5539896011352539,0.4954284667968750
0.5539896011352539,0.4954284667968750
0.5409730911254883,0.4910001754760742
0.5409730911254883,0.4910001754760742
0.5493587493896485,0.4863538742065430
0.5493587493896485,0.4863538742065430
0.5486726760864258,0.4978826522827148
0.5486726760864258,0.4978826522827148
0.5409748077392578,0.4822666168212890
0.5409748077392578,0.4822666168212890
0.5525035858154297,0.4927242279052734
0.5525035858154297,0.4927242279052734
0.5401983261108398,0.4886169433593750
0.5401983261108398,0.4886169433593750
0.5484861373901367,0.4873409271240234
0.5484861373901367,0.4873409271240234
0.5487007141113281,0.4965637207031250
0.5487007141113281,0.4965637207031250
0.5416923522949219,0.4846830368041992
0.5416923522949219,0.4846830368041992
0.5544645309448242,0.4968086242675781
0.5544645309448242,0.4968086242675781
0.5425798416137695,0.4959749221801757
0.5425798416137695,0.4959749221801757
0.5517436981201171,0.4919752120971679
0.5517436981201171,0.4919752120971679
0.5523479461669921,0.5036968231201172
0.5523479461669921,0.5036968231201172
0.5461143493652344,0.4921005249023437
0.5461143493652344,0.4921005249023437
0.5584487915039062,0.5063690185546875
0.5584487915039062,0.5063690185546875
0.5466665267944336,0.5016901016235351
0.5466665267944336,0.5016901016235351
0.5554796218872070,0.4996147155761719
0.5554796218872070,0.4996147155761719
0.5564146041870117,0.5111995697021484
0.5564146041870117,0.5111995697021484
0.5499750137329101,0.5018497467041015
0.5499750137329101,0.5018497467041015
0.5626258850097656,0.5123771667480469
0.5626258850097656,0.5123771667480469
0.5507417678833008,0.5093685150146484
0.5507417678833008,0.5093685150146484
0.5601774215698242,0.5073308944702148
0.5601774215698242,0.5073308944702148
0.5604921340942383,0.5209115982055664
0.5604921340942383,0.5209115982055664
0.5540771484375000,0.5074024200439453
0.5540771484375000,0.5074024200439453
0.5660865783691406,0.5196012496948242
0.5660865783691406,0.5196012496948242
0.5547082901000976,0.5163225173950196
0.5547082901000976,0.5163225173950196
0.5637926101684571,0.5162229537963867
0.5637926101684571,0.5162229537963867
0.5641296386718749,0.5258634567260742
0.5641296386718749,0.5258634567260742
0.5578353881835937,0.5141681671142578
0.5578353881835937,0.5141681671142578
0.5702905654907227,0.5264293670654296
0.5702905654907227,0.5264293670654296
0.5581214904785156,0.5249341964721680
0.5581214904785156,0.5249341964721680
0.5671897888183594,0.5205722808837890
0.5671897888183594,0.5205722808837890
0.5670604705810547,0.5318452835083007
0.5670604705810547,0.5318452835083007
0.5610477447509765,0.5199617385864258
0.5610477447509765,0.5199617385864258
0.5730440139770507,0.5336980819702148
0.5730440139770507,0.5336980819702148
0.5597019195556641,0.5244626998901367
0.5597019195556641,0.5244626998901367
0.5634618759155273,0.5105747222900391
0.5634618759155273,0.5105747222900391
0.5533298492431641,0.5017004013061523
0.5533298492431641,0.5017004013061523
0.5359336853027343,0.4734426498413086
0.5353282928466797,0.4734426498413086
0.5411298751831054,0.4730346679687500
0.5411298751831054,0.4730346679687500
0.5250978469848633,0.4636642456054687
0.5250978469848633,0.4636642456054687
0.5328929901123046,0.4585584640502929
0.5328929901123046,0.4585584640502929
0.5317829132080077,0.4696300506591797
0.5317829132080077,0.4696300506591797
0.5247396469116211,0.4546062469482421
0.5279800415039062,0.4546062469482421
0.5364475250244141,0.4656864166259765
0.5364475250244141,0.4656864166259765
0.5241754531860351,0.4607763290405273
0.5241754531860351,0.4607763290405273
0.5329101562499999,0.4601806640625000
0.5329101562499999,0.4601806640625000
0.5327825546264648,0.4690252304077148
0.5327825546264648,0.4690252304077148
0.5261335372924805,0.4568641662597656
0.5261335372924805,0.4568641662597656
0.5388284683227539,0.4690120697021484
0.5388284683227539,0.4690120697021484
0.5267263412475586,0.4669956207275390
0.5267263412475586,0.4669956207275390
0.5359033584594727,0.4633346557617187
0.5359033584594727,0.4633346557617187
0.5361539840698242,0.4748096466064453
0.5361539840698242,0.4748096466064453
0.5303564071655273,0.4634370803833008
0.5303564071655273,0.4634370803833008
0.5427526473999024,0.4782257080078125
0.5427526473999024,0.4782257080078125
0.5311214447021484,0.4731033325195312
0.5311214447021484,0.4731033325195312
0.5406612396240235,0.4725580215454102
0.5406612396240235,0.4725580215454102
0.5419715881347656,0.4854223251342773
0.5419715881347656,0.4854223251342773
0.5368188858032227,0.4778200149536133
0.5368188858032227,0.4778200149536133
0.5503824234008788,0.4906145095825195
0.5503824234008788,0.4906145095825195
0.5394887924194336,0.4885906219482422
0.5394887924194336,0.4885906219482422
0.5499166488647461,0.4884819030761718
0.5499166488647461,0.4884819030761718
0.5501226425170899,0.5022113800048827
0.5501226425170899,0.5022113800048827
0.5439582824707031,0.4880001068115234
0.5439582824707031,0.4880001068115234
0.5550659179687499,0.4988456726074219
0.5550659179687499,0.4988456726074219
0.5424877166748047,0.4926132202148437
0.5424877166748047,0.4926132202148437
0.5503515243530274,0.4907346725463867
0.5503515243530274,0.4907346725463867
0.5491859436035156,0.4979204177856445
0.5491859436035156,0.4979204177856445
0.5418714523315430,0.4843276977539062
0.5418714523315430,0.4843276977539062
0.5536165237426758,0.4951412200927734
0.5536165237426758,0.4951412200927734
0.5407590866088867,0.4916181564331055
0.5407590866088867,0.4916181564331055
0.5495618820190430,0.4875205993652343
0.5495618820190430,0.4875205993652343
0.5487533569335937,0.4982774734497070
0.5487533569335937,0.4982774734497070
0.5431989669799805,0.4864540100097656
0.5431989669799805,0.4864540100097656
0.5552347183227538,0.5011396408081055
0.5552347183227538,0.5011396408081055
0.5432430267333984,0.4950914382934570
0.5432430267333984,0.4950914382934570
0.5527221679687500,0.4941255569458007
0.5527221679687500,0.4941255569458007
0.5529499053955078,0.5057355880737304
0.5529499053955078,0.5057355880737304
0.5470813751220703,0.4963325500488281
0.5470813751220703,0.4963325500488281
0.5595079421997070,0.5072570800781250
0.5595079421997070,0.5072570800781250
0.5473142623901367,0.5032367706298828
0.5473142623901367,0.5032367706298828
0.5572340011596679,0.5021650314331054
0.5572340011596679,0.5021650314331054
0.5571859359741210,0.5157005310058593
0.5571859359741210,0.5157005310058593
0.5513339996337890,0.5025089263916015
0.5513339996337890,0.5025089263916015
0.5638647079467773,0.5154762268066406
0.5638647079467773,0.5154762268066406
0.5522375106811523,0.5113306045532227
0.5522375106811523,0.5113306045532227
0.5615421295166015,0.5124670028686523
0.5615421295166015,0.5124670028686523
0.5614425659179687,0.5218111038208008
0.5614425659179687,0.5218111038208008
0.5582336425781250,0.5199182510375976
0.5682334899902344,0.5199182510375976
0.5599193572998047,0.5121019363403320
0.5599193572998047,0.5121019363403320
0.5669866561889648,0.5257444381713867
0.5669866561889648,0.5257444381713867
0.5558206558227539,0.5147192001342773
0.5558206558227539,0.5147192001342773
0.5681756973266602,0.5208990097045898
0.5681756973266602,0.5208990097045898
0.5608543395996094,0.5258188247680664
0.5608543395996094,0.5258188247680664
0.5628261566162109,0.5175241470336914
0.5628261566162109,0.5175241470336914
0.5692468643188476,0.5309989929199218
0.5692468643188476,0.5309989929199218
0.5599777221679687,0.5201082229614258
0.5599777221679687,0.5201082229614258
0.5718143463134765,0.5286798477172852
0.5718143463134765,0.5286798477172852
0.5644723892211914,0.5331539154052735
0.5644723892211914,0.5331539154052735
0.5654994964599609,0.5240936279296875
0.5654994964599609,0.5240936279296875
0.5733427047729492,0.5362329483032227
0.5733427047729492,0.5362329483032227
0.5622293472290039,0.5238613128662110
0.5622293472290039,0.5238613128662110
0.5691896438598633,0.5209894180297852
0.5691896438598633,0.5209894180297852
0.5512121200561523,0.5056114196777344
0.5512121200561523,0.5056114196777344
0.5431222915649414,0.4774526596069336
0.5431222915649414,0.4774526596069336
0.5427623748779297,0.4802616119384766
0.5427623748779297,0.4802616119384766
0.5288331985473632,0.4642719268798828
0.5288331985473632,0.4642719268798828
0.5375272750854492,0.4681091308593750
0.5375272750854492,0.4681091308593750
0.5297990798950195,0.4687328338623047
0.5297990798950195,0.4687328338623047
0.5311391830444335,0.4597909927368164
0.5311391830444335,0.4597909927368164
0.5377309799194335,0.4722358703613281
0.5377309799194335,0.4722358703613281
0.5264448165893555,0.4610389709472656
0.5264448165893555,0.4610389709472656
0.5386178970336913,0.4670866012573242
0.5386178970336913,0.4670866012573242
0.5310070037841796,0.4711687088012695
0.5310070037841796,0.4711687088012695
0.5330657958984375,0.4630067825317383
0.5330657958984375,0.4630067825317383
0.5392416000366210,0.4759958267211914
0.5392416000366210,0.4759958267211914
0.5300342559814453,0.4647468566894531
0.5300342559814453,0.4647468566894531
0.5418708801269531,0.4737041473388672
0.5418708801269531,0.4737041473388672
0.5346141815185547,0.4775585174560547
0.5346141815185547,0.4775585174560547
0.5360521316528321,0.4693605422973632
0.5360521316528321,0.4693605422973632
0.5441322326660156,0.4824594497680664
0.5441322326660156,0.4824594497680664
0.5345666885375976,0.4739593505859375
0.5345666885375976,0.4739593505859375
0.5469017028808594,0.4835575103759766
0.5469017028808594,0.4835575103759766
0.5393938064575196,0.4883302688598632
0.5393938064575196,0.4883302688598632
0.5435445785522460,0.4812973022460937
0.5435445785522460,0.4812973022460937
0.5518878936767578,0.4979827880859375
0.5518878936767578,0.4979827880859375
0.5430868148803710,0.4897790908813476
0.5430868148803710,0.4897790908813476
0.5547002792358399,0.4990716934204101
0.5547002792358399,0.4990716934204101
0.5484443664550781,0.5020174026489258
0.5484443664550781,0.5020174026489258
0.5505540847778320,0.4945919036865234
0.5505540847778320,0.4945919036865234
0.5573072433471680,0.5076559066772460
0.5573072433471680,0.5076559066772460
0.5456909179687500,0.4952442169189453
0.5456909179687500,0.4952442169189453
0.5575109481811523,0.5008123397827148
0.5575109481811523,0.5008123397827148
0.5490898132324219,0.5035749435424804
0.5490898132324219,0.5035749435424804
0.5506404876708985,0.4941232681274414
0.5506404876708985,0.4941232681274414
0.5560461044311523,0.5063787460327148
0.5560461044311523,0.5063787460327148
0.5464908599853515,0.4940196990966796
0.5464908599853515,0.4940196990966796
0.5577964782714844,0.5026296615600586
0.5577964782714844,0.5026296615600586
0.5499280929565430,0.5058769226074219
0.5499280929565430,0.5058769226074219
0.5513019561767578,0.4972898483276367
0.5513019561767578,0.4972898483276367
0.5590398788452148,0.5101364135742187
0.5494525909423827,0.5009965896606445
0.5494525909423827,0.5009965896606445
0.5613481521606445,0.5098205566406250
0.5613481521606445,0.5098205566406250
0.5530466079711914,0.5133916854858398
0.5530466079711914,0.5133916854858398
0.5566360473632812,0.5051227569580078
0.5566360473632812,0.5051227569580078
0.5637462615966796,0.5202484130859375
0.5637462615966796,0.5202484130859375
0.5543506622314452,0.5107229232788085
0.5543506622314452,0.5107229232788085
0.5655721664428711,0.5191452026367187
0.5655721664428711,0.5191452026367187
0.5588865280151367,0.5217899322509766
0.5588865280151367,0.5217899322509766
0.5617652893066406,0.5155414581298828
0.5617652893066406,0.5155414581298828
0.5688829421997070,0.5298734664916992
0.5688829421997070,0.5298734664916992
0.5585895538330078,0.5198152542114257
0.5585895538330078,0.5198152542114257
0.5715751647949219,0.5279062271118163
0.5715751647949219,0.5279062271118163
0.5641433715820312,0.5327733993530274
0.5641433715820312,0.5327733993530274
0.5670124053955078,0.5259429931640625
0.5670124053955078,0.5259429931640625
0.5731882095336914,0.5394956588745117
0.5731882095336914,0.5394956588745117
0.5643213272094726,0.5280767440795898
0.5643213272094726,0.5280767440795898
0.5764715194702148,0.5379570007324218
0.5764715194702148,0.5379570007324218
0.5688194274902344,0.5413404464721679
0.5688194274902344,0.5413404464721679
0.5705926895141601,0.5334966659545898
0.5705926895141601,0.5334966659545898
0.5783329010009766,0.5464262008666992
0.5783329010009766,0.5464262008666992
0.5686695098876953,0.5372388839721679
0.5686695098876953,0.5372388839721679
0.5808322906494140,0.5467111587524414
0.5808322906494140,0.5467111587524414
0.5721828460693359,0.5492889404296875
0.5721828460693359,0.5492889404296875
0.5757860183715821,0.5405513763427734
0.5757860183715821,0.5405513763427734
0.5826610565185547,0.5554538726806640
0.5826610565185547,0.5554538726806640
0.5728855133056641,0.5448457717895507
0.5728855133056641,0.5448457717895507
0.5835966110229492,0.5522535324096679
0.5835966110229492,0.5522535324096679
0.5742347717285156,0.5481428146362305
0.5742347717285156,0.5481428146362305
0.5693447113037109,0.5251699447631836
0.5693447113037109,0.5251699447631836
0.5632638931274414,0.5152313232421875
0.5632638931274414,0.5152313232421875
0.5401971817016601,0.4829698562622070
0.5401971817016601,0.4829698562622070
0.5450952529907226,0.4787607192993164
0.5450952529907226,0.4787607192993164
0.5334978103637695,0.4767230987548828
0.5334978103637695,0.4767230987548828
0.5342714309692382,0.4660955429077148
0.5342714309692382,0.4660955429077148
0.5390499114990234,0.4777410507202148
0.5390499114990234,0.4777410507202148
0.5294740676879882,0.4646415710449219
0.5294740676879882,0.4646415710449219
0.5410680770874023,0.4736240386962891
0.5410680770874023,0.4736240386962891
0.5330337524414063,0.4762092590332031
0.5330337524414063,0.4762092590332031
0.5346839904785156,0.4675809860229492
0.5346839904785156,0.4675809860229492
0.5419435501098633,0.4800596237182617
0.5419435501098633,0.4800596237182617
0.5324037551879882,0.4702136993408203
0.5324037551879882,0.4702136993408203
0.5443342208862304,0.4792854309082031
0.5443342208862304,0.4792854309082031
0.5357408523559570,0.4821453094482422
0.5357408523559570,0.4821453094482422
0.5395145416259766,0.4740222930908203
0.5395145416259766,0.4740222930908203
0.5464382171630859,0.4893596649169922
0.5464382171630859,0.4893596649169922
0.5373676300048827,0.4797924041748047
0.5373676300048827,0.4797924041748047
0.5491178512573242,0.4893854141235351
0.5491178512573242,0.4893854141235351
0.5428464889526367,0.4929977416992187
0.5428464889526367,0.4929977416992187
0.5470264434814452,0.4891004562377930
0.5470264434814452,0.4891004562377930
0.5553073883056641,0.5060634613037109
0.5553073883056641,0.5060634613037109
0.5464834213256836,0.4985143661499023
0.5559728622436523,0.4985143661499023
0.5610769271850585,0.5094858169555664
0.5610769271850585,0.5094858169555664
0.5545269012451172,0.5156839370727538
0.5545269012451172,0.5156839370727538
0.5585231781005859,0.5101552963256836
0.5585231781005859,0.5101552963256836
0.5644712448120117,0.5235849380493164
0.5644712448120117,0.5235849380493164
0.5553646087646484,0.5108556747436523
0.5553646087646484,0.5108556747436523
0.5666393280029297,0.5191703796386719
0.5666393280029297,0.5191703796386719
0.5573987960815430,0.5196287155151367
0.5573987960815430,0.5196287155151367
0.5581489562988281,0.5095808029174804
0.5581489562988281,0.5095808029174804
0.5641233444213867,0.5197883605957031
0.5641233444213867,0.5197883605957031
0.5533338546752929,0.5078104019165038
0.5533338546752929,0.5078104019165038
0.5645055770874023,0.5153915405273437
0.5645055770874023,0.5153915405273437
0.5546504974365234,0.5161405563354492
0.5546504974365234,0.5161405563354492
0.5578336715698242,0.5068513870239257
0.5578336715698242,0.5068513870239257
0.5642412185668945,0.5211490631103516
0.5642412185668945,0.5211490631103516
0.5544645309448242,0.5101575851440430
0.5544645309448242,0.5101575851440430
0.5655939102172851,0.5191823959350585
0.5655939102172851,0.5191823959350585
0.5582942962646484,0.5210334777832031
0.5582942962646484,0.5210334777832031
0.5616622924804687,0.5154916763305664
0.5616622924804687,0.5154916763305664
0.5685785293579101,0.5302808761596679
0.5685785293579101,0.5302808761596679
0.5584413528442382,0.5195875167846680
0.5584413528442382,0.5195875167846680
0.5718338012695312,0.5284687042236328
0.5718338012695312,0.5284687042236328
0.5640157699584961,0.5327407836914062
0.5640157699584961,0.5327407836914062
0.5675605773925781,0.5262645721435547
0.5675605773925781,0.5262645721435547
0.5733066558837890,0.5402933120727539
0.5733066558837890,0.5402933120727539
0.5648431777954102,0.5286151885986328
0.5648431777954102,0.5286151885986328
0.5771804809570312,0.5393926620483398
0.5771804809570312,0.5393926620483398
0.5690483093261719,0.5423950195312500
0.5690483093261719,0.5423950195312500
0.5714080810546874,0.5348459243774414
0.5714080810546874,0.5348459243774414
0.5785898208618164,0.5476226806640625
0.5785898208618164,0.5476226806640625
0.5693384170532226,0.5379186630249023
0.5693384170532226,0.5379186630249023
0.5814702987670898,0.5473308563232422
0.5814702987670898,0.5473308563232422
0.5720987319946289,0.5494915008544922
0.5720987319946289,0.5494915008544922
0.5760995864868164,0.5409238815307617
0.5760995864868164,0.5409238815307617
0.5820613861083984,0.5551597595214843
0.5820613861083984,0.5551597595214843
0.5724071502685547,0.5441785812377929
0.5724071502685547,0.5441785812377929
0.5834478378295899,0.5524520874023438
0.5834478378295899,0.5524520874023438
0.5754695892333984,0.5528732299804687
0.5754695892333984,0.5528732299804687
0.5776903152465820,0.5438060760498047
0.5776903152465820,0.5438060760498047
0.5793731689453124,0.5470018386840820
0.5793731689453124,0.5470018386840820
0.5587343215942383,0.5155609130859374
0.5587343215942383,0.5155609130859374
0.5588825225830077,0.5006441116333008
0.5588825225830077,0.5006441116333008
0.5402223587036132,0.4880069732666015
0.5402223587036132,0.4880069732666015
0.5381526947021484,0.4730318069458008
0.5381526947021484,0.4730318069458008
0.5408746719360351,0.4818683624267578
0.5408746719360351,0.4818683624267578
0.5308782577514648,0.4674207687377929
0.5308782577514648,0.4674207687377929
0.5323986053466797,0.4708311080932617
0.5338319778442383,0.4708311080932617
0.5436132431030273,0.4808309555053711
0.5360933303833008,0.4808309555053711
0.5306385040283202,0.4741069793701171
0.5306385040283202,0.4741069793701171
0.5417072296142578,0.4745252609252930
0.5417072296142578,0.4745252609252930
0.5398189544677734,0.4862600326538086
0.5398189544677734,0.4862600326538086
0.5354204177856445,0.4739130020141601
0.5354204177856445,0.4739130020141601
0.5468976974487304,0.4867424011230468
0.5397365570068359,0.4867424011230468
0.5348550796508789,0.4807416915893554
0.5348550796508789,0.4807416915893554
0.5457887649536133,0.4838596343994140
0.5457887649536133,0.4838596343994140
0.5443067550659180,0.4925966262817383
0.5443067550659180,0.4925966262817383
0.5400484085083007,0.4830425262451172
0.5400484085083007,0.4830425262451172
0.5525442123413086,0.4970884323120117
0.5525442123413086,0.4970884323120117
0.5409456253051758,0.4947435379028320
0.5409456253051758,0.4947435379028320
0.5531084060668945,0.4961219787597656
0.5531084060668945,0.4961219787597656
0.5528474807739258,0.5091419219970703
0.5528474807739258,0.5091419219970703
0.5502531051635742,0.5017061233520508
0.5502531051635742,0.5017061233520508
0.5630796432495117,0.5188888549804688
0.5630796432495117,0.5188888549804688
0.5517826080322266,0.5125013351440429
0.5517826080322266,0.5125013351440429
0.5628433227539062,0.5142053604125977
0.5628433227539062,0.5142053604125977
0.5615650177001953,0.5238441467285156
0.5615650177001953,0.5238441467285156
0.5566778182983398,0.5144428253173828
0.5566778182983398,0.5144428253173828
0.5671909332275390,0.5235706329345703
0.5671909332275390,0.5235706329345703
0.5536989212036133,0.5152095794677735
0.5536989212036133,0.5152095794677735
0.5635471343994141,0.5138288497924804
0.5635471343994141,0.5138288497924804
0.5603542327880859,0.5234619140625000
0.5603542327880859,0.5234619140625000
0.5550104141235351,0.5092329025268555
0.5550104141235351,0.5092329025268555
0.5652139663696288,0.5203462600708008
0.5652139663696288,0.5203462600708008
0.5525899887084961,0.5128795623779296
0.5525899887084961,0.5128795623779296
0.5628805160522461,0.5149011611938477
0.5628805160522461,0.5149011611938477
0.5604755401611328,0.5222717285156250
0.5604755401611328,0.5222717285156250
0.5560009002685546,0.5117620468139649
0.5560009002685546,0.5117620468139649
0.5675159454345703,0.5245576858520508
0.5675159454345703,0.5245576858520508
0.5550722122192383,0.5204452514648438
0.5550722122192383,0.5204452514648438
0.5661197662353515,0.5197872161865235
0.5661197662353515,0.5197872161865235
0.5638841629028321,0.5297504425048828
0.5638841629028321,0.5297504425048828
0.5602781295776367,0.5197174072265625
0.5602781295776367,0.5197174072265625
0.5716152191162109,0.5344682693481445
0.5716152191162109,0.5344682693481445
0.5592149734497071,0.5264190673828125
0.5592149734497071,0.5264190673828125
0.5700845718383789,0.5275554656982422
0.5700845718383789,0.5275554656982422
0.5684366226196289,0.5373727798461914
0.5684366226196289,0.5373727798461914
0.5643316268920898,0.5295793533325195
0.5643316268920898,0.5295793533325195
0.5758684158325195,0.5407470703125000
0.5758684158325195,0.5407470703125000
0.5636003494262695,0.5353860855102539
0.5636003494262695,0.5353860855102539
0.5753665924072265,0.5371948242187500
0.5753665924072265,0.5371948242187500
0.5735372543334961,0.5494594573974609
0.5735372543334961,0.5494594573974609
0.5696891784667969,0.5377332687377929
0.5696891784667969,0.5377332687377929
0.5812099456787109,0.5506988525390625
0.5812099456787109,0.5506988525390625
0.5691896438598633,0.5447942733764648
0.5691896438598633,0.5447942733764648
0.5803001403808593,0.5481943130493164
0.5803001403808593,0.5481943130493164
0.5778322219848633,0.5549257278442382
0.5778322219848633,0.5549257278442382
0.5712781906127929,0.5385406494140624
0.5712781906127929,0.5385406494140624
0.5754878997802734,0.5354564666748046
0.5754878997802734,0.5354564666748046
0.5511285781860351,0.5089925765991211
0.5511285781860351,0.5089925765991211
0.5510902404785156,0.4896440505981445
0.5510902404785156,0.4896440505981445
0.5418674468994140,0.4884246826171875
0.5418674468994140,0.4884246826171875
0.5344654083251953,0.4727542877197266
0.5344654083251953,0.4727542877197266
0.5437871932983398,0.4842052459716797
0.5437871932983398,0.4842052459716797
0.5304525375366210,0.4739456176757812
0.5304525375366210,0.4739456176757812
0.5405685424804687,0.4738718032836914
0.5405685424804687,0.4738718032836914
0.5381492614746094,0.4822860717773437
0.5381492614746094,0.4822860717773437
0.5337284088134765,0.4732418060302734
0.5337284088134765,0.4732418060302734
0.5447221755981445,0.4834041595458984
0.5447221755981445,0.4834041595458984
0.5321273803710938,0.4765857696533203
0.5321273803710938,0.4765857696533203
0.5433757781982421,0.4775991439819336
0.5433757781982421,0.4775991439819336
0.5408609390258788,0.4889665603637695
0.5408609390258788,0.4889665603637695
0.5369556427001952,0.4771087646484375
0.5369556427001952,0.4771087646484375
0.5480827331542969,0.4899633407592773
0.5480827331542969,0.4899633407592773
0.5362833023071288,0.4838378906250000
0.5362833023071288,0.4838378906250000
0.5475036621093750,0.4876379013061523
0.5475036621093750,0.4876379013061523
0.5455369949340820,0.4960401535034180
0.5455369949340820,0.4960401535034180
0.5422542572021484,0.4872453689575195
0.5422542572021484,0.4872453689575195
0.5545824050903320,0.5016180038452148
0.5545824050903320,0.5016180038452148
0.5432739257812500,0.4996582031250000
0.5432739257812500,0.4996582031250000
0.5558498382568359,0.5018955230712890
0.5558498382568359,0.5018955230712890
0.5548004150390625,0.5143587112426757
0.5548004150390625,0.5143587112426757
0.5528554916381836,0.5067993164062500
0.5528554916381836,0.5067993164062500
0.5650806427001953,0.5232233047485352
0.5650806427001953,0.5232233047485352
0.5533647537231445,0.5157445907592774
0.5533647537231445,0.5157445907592774
0.5646509170532227,0.5171899795532227
0.5646509170532227,0.5171899795532227
0.5620033264160156,0.5256254196166992
0.5620033264160156,0.5256254196166992
0.5573650360107422,0.5160438537597656
0.5573650360107422,0.5160438537597656
0.5676469802856445,0.5249937057495117
0.5676469802856445,0.5249937057495117
0.5539043426513671,0.5166337966918945
0.5539043426513671,0.5166337966918945
0.5644855499267578,0.5160867691040039
0.5644855499267578,0.5160867691040039
0.5608531951904296,0.5256134033203125
0.5608531951904296,0.5256134033203125
0.5563013076782226,0.5122495651245117
0.5563013076782226,0.5122495651245117
0.5668590545654296,0.5237817764282227
0.5668590545654296,0.5237817764282227
0.5541503906249999,0.5165210723876953
0.5541503906249999,0.5165210723876953
0.5650400161743164,0.5195468902587891
0.5650400161743164,0.5195468902587891
0.5622837066650390,0.5268413543701171
0.5622837066650390,0.5268413543701171
0.5583990097045898,0.5169725418090820
0.5583990097045898,0.5169725418090820
0.5701349258422851,0.5299695968627930
0.5701349258422851,0.5299695968627930
0.5578285217285156,0.5260013580322266
0.5578285217285156,0.5260013580322266
0.5693470001220703,0.5261232376098632
0.5693470001220703,0.5261232376098632
0.5667572021484375,0.5357797622680663
0.5667572021484375,0.5357797622680663
0.5635511398315429,0.5260751724243163
0.5635511398315429,0.5260751724243163
0.5747806549072265,0.5409399032592773
0.5747806549072265,0.5409399032592773
0.5625343322753906,0.5329227447509766
0.5625343322753906,0.5329227447509766
0.5737066268920898,0.5348207473754882
0.5737066268920898,0.5348207473754882
0.5715705871582031,0.5444194793701171
0.5715705871582031,0.5444194793701171
0.5682626724243164,0.5370328903198242
0.5682626724243164,0.5370328903198242
0.5796890258789062,0.5484701156616211
0.5796890258789062,0.5484701156616211
0.5675851821899414,0.5424196243286132
0.5675851821899414,0.5424196243286132
0.5792346954345703,0.5441614151000976
0.5792346954345703,0.5441614151000976
0.5764091491699218,0.5556432723999023
0.5764091491699218,0.5556432723999023
0.5729352951049804,0.5439107894897460
0.5729352951049804,0.5439107894897460
0.5838581085205078,0.5565210342407226
0.5773384094238281,0.5565210342407226
0.5718852996826171,0.5498147964477539
0.5718852996826171,0.5498147964477539
0.5821214675903320,0.5502319335937500
0.5821214675903320,0.5502319335937500
0.5745100021362305,0.5466424942016601
0.5764543533325195,0.5466424942016601
0.5606340408325196,0.5162893295288086
0.5606340408325196,0.5162893295288086
0.5592813491821289,0.5066402435302734
0.5592813491821289,0.5066402435302734
0.5376377105712891,0.4873678207397460
0.5376377105712891,0.4873678207397460
0.5440235137939453,0.4793340682983398
0.5440235137939453,0.4793340682983398
0.5381795883178710,0.4843076705932617
0.5381795883178710,0.4843076705932617
0.5339143753051757,0.4718690872192383
0.5339143753051757,0.4718690872192383
0.5439880371093749,0.4848546981811523
0.5439880371093749,0.4848546981811523
0.5311088562011719,0.4751815795898438
0.5311088562011719,0.4751815795898438
0.5419338226318359,0.4758172988891601
0.5419338226318359,0.4758172988891601
0.5387329101562500,0.4840673446655273
0.5387329101562500,0.4840673446655273
0.5350381851196289,0.4754985809326172
0.5350381851196289,0.4754985809326172
0.5459438323974609,0.4858423233032226
0.5459438323974609,0.4858423233032226
0.5331212997436523,0.4791481018066406
0.5331212997436523,0.4791481018066406
0.5450511932373047,0.4807182312011719
0.5450511932373047,0.4807182312011719
0.5419092178344727,0.4918258666992187
0.5419092178344727,0.4918258666992187
0.5386590957641602,0.4803623199462890
0.5386590957641602,0.4803623199462890
0.5499544143676758,0.4934068679809570
0.5499544143676758,0.4934068679809570
0.5380943298339843,0.4874965667724609
0.5380943298339843,0.4874965667724609
0.5499761581420898,0.4921611785888672
0.5499761581420898,0.4921611785888672
0.5475591659545899,0.5009199142456054
0.5475591659545899,0.5009199142456054
0.5451084136962890,0.4932500839233398
0.5451084136962890,0.4932500839233398
0.5580705642700196,0.5086944580078124
0.5580705642700196,0.5086944580078124
0.5472215652465821,0.5073703765869141
0.5472215652465821,0.5073703765869141
0.5605808258056640,0.5102834701538086
0.5605808258056640,0.5102834701538086
0.5585878372192382,0.5218185424804688
0.5585878372192382,0.5218185424804688
0.5566377639770508,0.5135152816772460
0.5566377639770508,0.5135152816772460
0.5681631088256835,0.5286912918090820
0.5681631088256835,0.5286912918090820
0.5556518554687500,0.5199651718139648
0.5556518554687500,0.5199651718139648
0.5663057327270508,0.5203107833862305
0.5663057327270508,0.5203107833862305
0.5623638153076171,0.5271640777587890
0.5623638153076171,0.5271640777587890
0.5578102111816406,0.5167076110839843
0.5578102111816406,0.5167076110839843
0.5672761917114257,0.5246423721313477
0.5672761917114257,0.5246423721313477
0.5533618927001953,0.5152221679687500
0.5533618927001953,0.5152221679687500
0.5637342453002929,0.5144742965698242
0.5637342453002929,0.5144742965698242
0.5589946746826172,0.5231082916259765
0.5589946746826172,0.5231082916259765
0.5547586441040039,0.5093667984008788
0.5547586441040039,0.5093667984008788
0.5646286010742188,0.5203817367553710
0.5646286010742188,0.5203817367553710
0.5519245147705077,0.5126924514770508
0.5519245147705077,0.5126924514770508
0.5628873825073242,0.5154962539672852
0.5628873825073242,0.5154962539672852
0.5590850830078125,0.5216920852661132
0.5590850830078125,0.5216920852661132
0.5669752120971679,0.5180093765258789
0.5665151596069335,0.5180093765258789
0.5603805541992187,0.5130712509155273
0.5603805541992187,0.5130712509155273
0.5651115417480469,0.5265283584594727
0.5651115417480469,0.5265283584594727
0.5548965454101562,0.5150459289550781
0.5548965454101562,0.5150459289550781
0.5686431884765625,0.5238899230957031
0.5686431884765625,0.5238899230957031
0.5590410232543945,0.5267984390258789
0.5590410232543945,0.5267984390258789
0.5646286010742188,0.5218963623046875
0.5646286010742188,0.5218963623046875
0.5688188552856445,0.5353322982788086
0.5688188552856445,0.5353322982788086
0.5606838226318359,0.5233491897583008
0.5606838226318359,0.5233491897583008
0.5741214752197266,0.5352407455444336
0.5636066436767578,0.5352407455444336
0.5646446228027343,0.5372600555419922
0.5646446228027343,0.5372600555419922
0.5695243835449219,0.5319700241088867
0.5695243835449219,0.5319700241088867
0.5753293991088867,0.5445304870605469
0.5753293991088867,0.5445304870605469
0.5664619445800781,0.5351795196533203
0.5664619445800781,0.5351795196533203
0.5795923233032226,0.5459901809692382
0.5795923233032226,0.5459901809692382
0.5689968109130860,0.5465400695800781
0.5806589126586914,0.5465400695800781
0.5745471954345703,0.5373968124389649
0.5745471954345703,0.5373968124389649
0.5760910034179687,0.5443765640258789
0.5760910034179687,0.5443765640258789
0.5584568023681641,0.5163322448730469
0.5584568023681641,0.5163322448730469
0.5592950820922852,0.5057172775268555
0.5434307098388672,0.5057172775268555
0.5408123016357421,0.4903930664062500
0.5408123016357421,0.4903930664062500
0.5408174514770507,0.4774400711059570
0.5408174514770507,0.4774400711059570
0.5428556442260742,0.4867630004882812
0.5428556442260742,0.4867630004882812
0.5312353134155273,0.4721237182617187
0.5312353134155273,0.4721237182617187
0.5439485549926758,0.4789197921752930
0.5439485549926758,0.4789197921752930
0.5334308624267577,0.4798851013183594
0.5334308624267577,0.4798851013183594
0.5383913040161132,0.4729814529418945
0.5383913040161132,0.4729814529418945
0.5417484283447266,0.4853261947631836
0.5417484283447266,0.4853261947631836
0.5328878402709961,0.4720756530761718
0.5328878402709961,0.4720756530761718
0.5456909179687500,0.4826711654663086
0.5456909179687500,0.4826711654663086
0.5357088088989258,0.4840078353881836
0.5473949432373046,0.4840078353881836
0.5402441024780273,0.4773628234863281
0.5402441024780273,0.4773628234863281
0.5455638885498046,0.4894323348999023
0.5455638885498046,0.4894323348999023
0.5364252090454101,0.4793621063232422
0.5364252090454101,0.4793621063232422
0.5495372772216797,0.4895404815673828
0.5495372772216797,0.4895404815673828
0.5387208938598632,0.4907890319824219
0.5387208938598632,0.4907890319824219
0.5454133987426758,0.4843889236450195
0.5454133987426758,0.4843889236450195
0.5505924224853516,0.5001628875732421
0.5505924224853516,0.5001628875732421
0.5421890258789063,0.4909687042236328
0.5421890258789063,0.4909687042236328
0.5554492950439452,0.5024059295654296
0.5554492950439452,0.5024059295654296
0.5473497390747070,0.5045974731445312
0.5473497390747070,0.5045974731445312
0.5543724060058594,0.5021690368652344
0.5543724060058594,0.5021690368652344
0.5598323822021484,0.5171585083007812
0.5598323822021484,0.5171585083007812
0.5502136230468749,0.5065212249755859
0.5502136230468749,0.5065212249755859
0.5641136169433594,0.5151580810546875
0.5641136169433594,0.5151580810546875
0.5536623001098633,0.5167259216308594
0.5536623001098633,0.5167259216308594
0.5588338851928710,0.5100666046142578
0.5588338851928710,0.5100666046142578
0.5616205215454101,0.5212125778198242
0.5616205215454101,0.5212125778198242
0.5521093368530273,0.5065149307250977
0.5521093368530273,0.5065149307250977
0.5642704010009766,0.5161508560180664
0.5642704010009766,0.5161508560180664
0.5533287048339843,0.5155946731567382
0.5533287048339843,0.5155946731567382
0.5573713302612304,0.5082756042480469
0.5573713302612304,0.5082756042480469
0.5619461059570312,0.5192607879638672
0.5619461059570312,0.5192607879638672
0.5522489547729492,0.5083477020263671
0.5522489547729492,0.5083477020263671
0.5651218414306640,0.5183841705322265
0.5651218414306640,0.5183841705322265
0.5538110733032227,0.5185632705688477
0.5538110733032227,0.5185632705688477
0.5602426528930664,0.5114685058593750
0.5602426528930664,0.5114685058593750
0.5647665023803711,0.5261661529541015
0.5647665023803711,0.5261661529541015
0.5554973602294921,0.5150453567504882
0.5554973602294921,0.5150453567504882
0.5678764343261719,0.5251733779907226
0.5678764343261719,0.5251733779907226
0.5584957122802734,0.5250892639160156
0.5584957122802734,0.5250892639160156
0.5646228790283203,0.5209648132324218
0.5566223144531249,0.5209648132324218
0.5691427230834961,0.5350456237792969
0.5691427230834961,0.5350456237792969
0.5589803695678711,0.5231855392456054
0.5589803695678711,0.5231855392456054
0.5730646133422851,0.5318967819213867
0.5730646133422851,0.5318967819213867
0.5628501892089843,0.5342262268066406
0.5628501892089843,0.5342262268066406
0.5687822341918946,0.5285802841186523
0.5687822341918946,0.5285802841186523
0.5683959960937500,0.5397920608520508
0.5683959960937500,0.5397920608520508
0.5611312866210937,0.5269317626953125
0.5611312866210937,0.5269317626953125
0.5768611907958984,0.5401256561279296
0.5768611907958984,0.5401256561279296
0.5649593353271484,0.5415601730346680
0.5649593353271484,0.5415601730346680
0.5712146759033203,0.5346742630004883
0.5712146759033203,0.5346742630004883
0.5770151138305664,0.5484912872314452
0.5770151138305664,0.5484912872314452
0.5663412094116210,0.5367422103881836
0.5663412094116210,0.5367422103881836
0.5815647125244140,0.5481868743896484
0.5815647125244140,0.5481868743896484
0.5684320449829101,0.5481863021850586
0.5684320449829101,0.5481863021850586
0.5752767562866211,0.5377658843994141
0.5752767562866211,0.5377658843994141
0.5752012252807617,0.5431692123413085
0.5752012252807617,0.5431692123413085
0.5554172515869140,0.5119617462158202
0.5554172515869140,0.5119617462158202
0.5571950912475586,0.5018239974975586
0.5571950912475586,0.5018239974975586
0.5378866195678711,0.4874101638793945
0.5378866195678711,0.4874101638793945
0.5402280807495117,0.4754888534545898
0.5402280807495117,0.4754888534545898
0.5420911788940429,0.4858697891235351
0.5420911788940429,0.4858697891235351
0.5296800613403320,0.4704832077026367
0.5296800613403320,0.4704832077026367
0.5439983367919922,0.4783252716064453
0.5439983367919922,0.4783252716064453
0.5313714981079102,0.4784111022949218
0.5313714981079102,0.4784111022949218
0.5379426956176757,0.4717145919799804
0.5379426956176757,0.4717145919799804
0.5408535003662109,0.4846075057983398
0.5408535003662109,0.4846075057983398
0.5309669494628906,0.4693891525268554
0.5309669494628906,0.4693891525268554
0.5454683303833008,0.4811674118041992
0.5454683303833008,0.4811674118041992
0.5331350326538086,0.4811393737792968
0.5331350326538086,0.4811393737792968
0.5392141342163086,0.4745704650878906
0.5392141342163086,0.4745704650878906
0.5440567016601562,0.4875314712524414
0.5440567016601562,0.4875314712524414
0.5338497161865234,0.4757926940917969
0.5338497161865234,0.4757926940917969
0.5485382080078125,0.4875120162963867
0.5485382080078125,0.4875120162963867
0.5360040664672852,0.4875171661376953
0.5360040664672852,0.4875171661376953
0.5439651489257812,0.4811050415039062
0.5439651489257812,0.4811050415039062
0.5484827041625976,0.4969619750976562
0.5484827041625976,0.4969619750976562
0.5398681640624999,0.4868619918823242
0.5398681640624999,0.4868619918823242
0.5534574508666992,0.4990242004394531
0.5534574508666992,0.4990242004394531
0.5449659347534179,0.5009153366088867
0.5449659347534179,0.5009153366088867
0.5525362014770507,0.4992078781127929
0.5525362014770507,0.4992078781127929
0.5579589843750000,0.5151575088500976
0.5579589843750000,0.5151575088500976
0.5484764099121093,0.5041723251342773
0.5484764099121093,0.5041723251342773
0.5630945205688477,0.5133012771606446
0.5630945205688477,0.5133012771606446
0.5523015975952148,0.5148611068725586
0.5523015975952148,0.5148611068725586
0.5580602645874023,0.5080776214599609
0.5580602645874023,0.5080776214599609
0.5603960037231445,0.5195663452148437
0.5603960037231445,0.5195663452148437
0.5507165908813476,0.5044664382934571
0.5507165908813476,0.5044664382934571
0.5630842208862304,0.5141292572021484
0.5630842208862304,0.5141292572021484
0.5514301300048828,0.5135873794555664
0.5514301300048828,0.5135873794555664
0.5562852859497071,0.5060485839843750
0.5562852859497071,0.5060485839843750
0.5605058670043945,0.5170886993408202
0.5605058670043945,0.5170886993408202
0.5506959915161133,0.5060388565063476
0.5506959915161133,0.5060388565063476
0.5638458251953125,0.5159208297729492
0.5638458251953125,0.5159208297729492
0.5520669937133789,0.5161903381347656
0.5520669937133789,0.5161903381347656
0.5592664718627930,0.5092649459838867
0.5592664718627930,0.5092649459838867
0.5632787704467773,0.5242160797119141
0.5632787704467773,0.5242160797119141
0.5541257858276367,0.5132658004760742
0.5541257858276367,0.5132658004760742
0.5666879653930664,0.5233554840087891
0.5666879653930664,0.5233554840087891
0.5570302963256836,0.5229675292968750
0.5570302963256836,0.5229675292968750
0.5638996124267578,0.5192676544189453
0.5638996124267578,0.5192676544189453
0.5679645538330078,0.5332317352294922
0.5679645538330078,0.5332317352294922
0.5579183578491210,0.5216657638549804
0.5579183578491210,0.5216657638549804
0.5722961425781250,0.5307346343994140
0.5722961425781250,0.5307346343994140
0.5616891860961913,0.5329416275024413
0.5616891860961913,0.5329416275024413
0.5683599472045898,0.5279977798461913
0.5683599472045898,0.5279977798461913
0.5713016510009765,0.5407402038574218
0.5713016510009765,0.5407402038574218
0.5626665115356445,0.5273569107055663
0.5626665115356445,0.5273569107055663
0.5762666702270508,0.5389863967895507
0.5762666702270508,0.5389863967895507
0.5643848419189453,0.5391059875488281
0.5643848419189453,0.5391059875488281
0.5708427429199219,0.5326726913452148
0.5708427429199219,0.5326726913452148
0.5751892089843750,0.5452594757080078
0.5751892089843750,0.5452594757080078
0.5647230148315430,0.5330949783325195
0.5647230148315430,0.5330949783325195
0.5792901992797851,0.5446409225463867
0.5792901992797851,0.5446409225463867
0.5662387847900391,0.5435846328735351
0.5662387847900391,0.5435846328735351
0.5737369537353515,0.5360876083374023
0.5737369537353515,0.5360876083374023
0.5762031555175781,0.5469148635864257
0.5762031555175781,0.5469148635864257
0.5614156723022461,0.5236089706420898
0.5614156723022461,0.5236089706420898
0.5638841629028321,0.5144611358642578
0.5638841629028321,0.5144611358642578
0.5430845260620117,0.4950021743774414
0.5430845260620117,0.4950021743774414
0.5424270629882812,0.4792310714721679
0.5424270629882812,0.4792310714721679
0.5421947479248047,0.4867263793945312
0.5421947479248047,0.4867263793945312
0.5299896240234375,0.4708271026611328
0.5299896240234375,0.4708271026611328
0.5428968429565429,0.4773513793945312
0.5428968429565429,0.4773513793945312
0.5311603546142578,0.4773382186889648
0.5311603546142578,0.4773382186889648
0.5372995376586914,0.4705209732055664
0.5372995376586914,0.4705209732055664
0.5394647598266601,0.4824256896972656
0.5394647598266601,0.4824256896972656
0.5304393768310547,0.4683391571044921
0.5304393768310547,0.4683391571044921
0.5434890747070312,0.4728927612304688
0.5337564468383789,0.4728927612304688
0.5382385253906250,0.4834127426147461
0.5382385253906250,0.4834127426147461
0.5317022323608398,0.4762063980102539
0.5317022323608398,0.4762063980102539
0.5442014694213867,0.4784826278686523
0.5442014694213867,0.4784826278686523
0.5387769699096679,0.4885969161987305
0.5387769699096679,0.4885969161987305
0.5369527816772460,0.4769073486328125
0.5369527816772460,0.4769073486328125
0.5476278305053711,0.4899570465087890
0.5476278305053711,0.4899570465087890
0.5358089447021485,0.4835998535156250
0.5358089447021485,0.4835998535156250
0.5485942840576171,0.4889579772949219
0.5485942840576171,0.4889579772949219
0.5440824508666992,0.4969768524169922
0.5440824508666992,0.4969768524169922
0.5433637619018554,0.4892389297485351
0.5433637619018554,0.4892389297485351
0.5555986404418946,0.5045963287353515
0.5555986404418946,0.5045963287353515
0.5445075988769531,0.5022405624389649
0.5445075988769531,0.5022405624389649
0.5581787109374999,0.5050409317016601
0.5581787109374999,0.5050409317016601
0.5535432815551757,0.5147586822509765
0.5535432815551757,0.5147586822509765
0.5525299072265625,0.5051387786865235
0.5509672164916992,0.5051387786865235
0.5630172729492188,0.5193729400634766
0.5630172729492188,0.5193729400634766
0.5499183654785156,0.5093399047851562
0.5499183654785156,0.5093399047851562
0.5615123748779297,0.5101341247558594
0.5615123748779297,0.5101341247558594
0.5551769256591796,0.5162670135498046
0.5551769256591796,0.5162670135498046
0.5523359298706054,0.5063364028930664
0.5523359298706054,0.5063364028930664
0.5621217727661133,0.5154756546020508
0.5621217727661133,0.5154756546020508
0.5484718322753906,0.5069601058959960
0.5484718322753906,0.5069601058959960
0.5606145858764648,0.5082424163818359
0.5606145858764648,0.5082424163818359
0.5545852661132812,0.5175601959228515
0.5545852661132812,0.5175601959228515
0.5526208877563477,0.5053390502929688
0.5526208877563477,0.5053390502929688
0.5630968093872070,0.5178325653076171
0.5630968093872070,0.5178325653076171
0.5506816864013672,0.5108276367187500
0.5506816864013672,0.5108276367187500
0.5630945205688477,0.5155471801757813
0.5630945205688477,0.5155471801757813
0.5576791763305664,0.5219861984252929
0.5576791763305664,0.5219861984252929
0.5560186386108398,0.5125499725341797
0.5560186386108398,0.5125499725341797
0.5673540115356445,0.5256883621215820
0.5673540115356445,0.5256883621215820
0.5549898147583008,0.5211965560913085
0.5549898147583008,0.5211965560913085
0.5677436828613281,0.5224256515502930
0.5677436828613281,0.5224256515502930
0.5624330520629882,0.5311248779296874
0.5624330520629882,0.5311248779296874
0.5612028121948242,0.5216102600097656
0.5612028121948242,0.5216102600097656
0.5720117568969726,0.5367153167724609
0.5720117568969726,0.5367153167724609
0.5596990585327148,0.5277528762817383
0.5596990585327148,0.5277528762817383
0.5717760086059570,0.5303581237792968
0.5717760086059570,0.5303581237792968
0.5664648056030274,0.5380622863769531
0.5664648056030274,0.5380622863769531
0.5646921157836914,0.5298122406005860
0.5646921157836914,0.5298122406005860
0.5752464294433594,0.5404581069946289
0.5752464294433594,0.5404581069946289
0.5625732421874999,0.5329633712768554
0.5625732421874999,0.5329633712768554
0.5749317169189453,0.5351966857910156
0.5749317169189453,0.5351966857910156
0.5690631866455078,0.5449722290039062
0.5690631866455078,0.5449722290039062
0.5674787521362304,0.5328025817871094
0.5674787521362304,0.5328025817871094
0.5775707244873046,0.5454946517944336
0.5775707244873046,0.5454946517944336
0.5654851913452148,0.5380788803100586
0.5654851913452148,0.5380788803100586
0.5776611328125000,0.5425260543823242
0.5776611328125000,0.5425260543823242
0.5715751647949219,0.5472656250000000
0.5715751647949219,0.5472656250000000
0.5676103591918945,0.5313039779663086
0.5676103591918945,0.5313039779663086
0.5713817596435546,0.5294437408447266
0.5713817596435546,0.5294437408447266
0.5478481292724610,0.5042695999145508
0.5478481292724610,0.5042695999145508
0.5505231857299805,0.4886352539062500
0.5505231857299805,0.4886352539062500
0.5382379531860352,0.4868665695190429
0.5382379531860352,0.4868665695190429
0.5340053558349609,0.4718433380126953
0.5340053558349609,0.4718433380126953
0.5428962707519531,0.4836233139038086
0.5428962707519531,0.4836233139038086
0.5292068481445312,0.4725328445434570
0.5292068481445312,0.4725328445434570
0.5410108566284180,0.4735965728759766
0.5410108566284180,0.4735965728759766
0.5347909927368164,0.4802152633666992
0.5347909927368164,0.4802152633666992
0.5328277587890625,0.4710416793823242
0.5328277587890625,0.4710416793823242
0.5430931091308594,0.4815101623535156
0.5430931091308594,0.4815101623535156
0.5300010681152344,0.4735038757324219
0.5300010681152344,0.4735038757324219
0.5427595138549804,0.4758785247802734
0.5427595138549804,0.4758785247802734
0.5367559432983399,0.4854766845703125
0.5367559432983399,0.4854766845703125
0.5354015350341796,0.4736028671264648
0.5333473205566406,0.4736028671264648
0.5459884643554688,0.4866949081420898
0.5459884643554688,0.4866949081420898
0.5339166641235351,0.4798284530639648
0.5339166641235351,0.4798284530639648
0.5465698242187500,0.4851436614990234
0.5465698242187500,0.4851436614990234
0.5412363052368164,0.4921497344970703
0.5412363052368164,0.4921497344970703
0.5403882980346679,0.4837320327758789
0.5403882980346679,0.4837320327758789
0.5522804260253906,0.4986127853393554
0.5522804260253906,0.4986127853393554
0.5411693572998046,0.4958993911743164
0.5411693572998046,0.4958993911743164
0.5552392959594726,0.4996541976928711
0.5552392959594726,0.4996541976928711
0.5507978439331055,0.5100322723388672
0.5507978439331055,0.5100322723388672
0.5506902694702148,0.5019029617309571
0.5506902694702148,0.5019029617309571
0.5619066238403320,0.5178731918334961
0.5619066238403320,0.5178731918334961
0.5497100830078124,0.5086669921875000
0.5497100830078124,0.5086669921875000
0.5615655899047851,0.5105724334716797
0.5615655899047851,0.5105724334716797
0.5552845001220703,0.5169839859008789
0.5552845001220703,0.5169839859008789
0.5530105590820312,0.5072284698486328
0.5530105590820312,0.5072284698486328
0.5624485015869141,0.5162630081176758
0.5624485015869141,0.5162630081176758
0.5490108489990234,0.5071409225463867
0.5490108489990234,0.5071409225463867
0.5607959747314453,0.5082275390625000
0.5607959747314453,0.5082275390625000
0.5539644241333007,0.5167768478393554
0.5539644241333007,0.5167768478393554
0.5521997451782227,0.5039709091186523
0.5521997451782227,0.5039709091186523
0.5619575500488281,0.5161376953125000
0.5619575500488281,0.5161376953125000
0.5495635986328125,0.5082452774047851
0.5495635986328125,0.5082452774047851
0.5619821548461914,0.5129917144775390
0.5619821548461914,0.5129917144775390
0.5558996200561523,0.5189826965332031
0.5558996200561523,0.5189826965332031
0.5546590805053710,0.5093135833740234
0.5546590805053710,0.5093135833740234
0.5654960632324219,0.5225452423095703
0.5654960632324219,0.5225452423095703
0.5532302856445312,0.5174783706665039
0.5532302856445312,0.5174783706665039
0.5660264968872070,0.5191040039062500
0.5660264968872070,0.5191040039062500
0.5600275039672852,0.5274770736694335
0.5600275039672852,0.5274770736694335
0.5595336914062500,0.5180328369140624
0.5595336914062500,0.5180328369140624
0.5700960159301758,0.5334354400634765
0.5700960159301758,0.5334354400634765
0.5580745697021484,0.5246726989746093
0.5580745697021484,0.5246726989746093
0.5706636428833007,0.5278793334960937
0.5706636428833007,0.5278793334960937
0.5649673461914062,0.5358158111572265
0.5649673461914062,0.5358158111572265
0.5638120651245117,0.5280698776245117
0.5638120651245117,0.5280698776245117
0.5743938446044922,0.5391546249389648
0.5743938446044922,0.5391546249389648
0.5617784500122071,0.5321783065795899
0.5617784500122071,0.5321783065795899
0.5749837875366210,0.5353517532348633
0.5749837875366210,0.5353517532348633
0.5691656112670899,0.5457447052001952
0.5691656112670899,0.5457447052001952
0.5684183120727538,0.5347921371459960
0.5684183120727538,0.5347921371459960
0.5793485641479492,0.5487001419067382
0.5793485641479492,0.5487001419067382
0.5676418304443359,0.5423789978027344
0.5676418304443359,0.5423789978027344
0.5808305740356445,0.5485456466674804
0.5808305740356445,0.5485456466674804
0.5755496978759765,0.5559797286987305
0.5755496978759765,0.5559797286987305
0.5749282836914062,0.5475334167480469
0.5749282836914062,0.5475334167480469
0.5866762161254883,0.5616491317749023
0.5866762161254883,0.5616491317749023
0.5737449645996093,0.5542253494262696
0.5737449645996093,0.5542253494262696
0.5822216033935547,0.5452091217041015
0.5822216033935547,0.5452091217041015
0.5654926300048828,0.5322629928588867
0.5654926300048828,0.5322629928588867
0.5510862350463867,0.4984199523925781
0.5510862350463867,0.4984199523925781
0.5511337280273437,0.4965379714965820
0.5511337280273437,0.4965379714965820
0.5327465057373046,0.4782846450805664
0.5295209884643555,0.4766653060913086
0.5351720809936523,0.4817739486694336
0.5351720809936523,0.4817739486694336
0.5331504821777343,0.4718879699707031
0.5331504821777343,0.4718879699707031
0.5429477691650391,0.4820686340332031
0.5429477691650391,0.4820686340332031
0.5300479888916015,0.4737407684326171
0.5300479888916015,0.4737407684326171
0.5427612304687500,0.4758647918701172
0.5427612304687500,0.4758647918701172
0.5361551284790039,0.4851968765258789
0.5361551284790039,0.4851968765258789
0.5349174499511719,0.4729494094848632
0.5349174499511719,0.4729494094848632
0.5451999664306640,0.4860683441162109
0.5451999664306640,0.4860683441162109
0.5330360412597656,0.4784757614135742
0.5330360412597656,0.4784757614135742
0.5458660125732422,0.4836427688598632
0.5458660125732422,0.4836427688598632
0.5398481369018554,0.4902013778686523
0.5398481369018554,0.4902013778686523
0.5391065597534179,0.4808526992797851
0.5391065597534179,0.4808526992797851
0.5505735397338867,0.4954462051391602
0.5505735397338867,0.4954462051391602
0.5388462066650390,0.4917572021484375
0.5388462066650390,0.4917572021484375
0.5530958175659180,0.4958175659179687
0.5530958175659180,0.4958175659179687
0.5482767105102538,0.5070802688598632
0.5482767105102538,0.5070802688598632
0.5497323989868164,0.5006011962890625
0.5497323989868164,0.5006011962890625
0.5621223449707031,0.5192058563232421
0.5621223449707031,0.5192058563232421
0.5510581970214844,0.5124710083007812
0.5510581970214844,0.5124710083007812
0.5650142669677735,0.5171293258666992
0.5650142669677735,0.5171293258666992
0.5590913772583007,0.5253095626831055
0.5590913772583007,0.5253095626831055
0.5577438354492187,0.5161474227905273
0.5577438354492187,0.5161474227905273
0.5673643112182617,0.5255229949951171
0.5673643112182617,0.5255229949951171
0.5532726287841797,0.5154195785522461
0.5532726287841797,0.5154195785522461
0.5650503158569335,0.5157571792602539
0.5650503158569335,0.5157571792602539
0.5570114135742187,0.5228256225585938
0.5570114135742187,0.5228256225585938
0.5547454833984374,0.5087608337402344
0.5547454833984374,0.5087608337402344
0.5642646789550781,0.5203668594360351
0.5642646789550781,0.5203668594360351
0.5513111114501953,0.5114501953125000
0.5513111114501953,0.5114501953125000
0.5637216567993164,0.5158739089965820
0.5637216567993164,0.5158739089965820
0.5570440292358398,0.5215095520019531
0.5570440292358398,0.5215095520019531
0.5536291122436523,0.5113437652587890
0.5536291122436523,0.5203376770019531
0.5666919708251953,0.5248666763305664
0.5620719909667968,0.5248666763305664
0.5542304992675781,0.5194095611572266
0.5542304992675781,0.5194095611572266
0.5673088073730469,0.5212039947509766
0.5673088073730469,0.5212039947509766
0.5610534667968750,0.5293785095214844
0.5610534667968750,0.5293785095214844
0.5604211807250976,0.5193941116333007
0.5604211807250976,0.5193941116333007
0.5710430145263672,0.5349237442016601
0.5710430145263672,0.5349237442016601
0.5583457946777344,0.5252574920654297
0.5583457946777344,0.5252574920654297
0.5709972381591797,0.5281425476074219
0.5709972381591797,0.5281425476074219
0.5646297454833984,0.5355422973632812
0.5646297454833984,0.5355422973632812
0.5634006500244141,0.5267789840698242
0.5634006500244141,0.5267789840698242
0.5736225128173827,0.5379695892333984
0.5736225128173827,0.5379695892333984
0.5608217239379882,0.5298431396484374
0.5608217239379882,0.5298431396484374
0.5739189147949219,0.5328517913818359
0.5739189147949219,0.5328517913818359
0.5671617507934570,0.5426651000976562
0.5671617507934570,0.5426651000976562
0.5664339065551758,0.5307741165161133
0.5664339065551758,0.5307741165161133
0.5767816543579102,0.5444366455078125
0.5723693847656249,0.5444366455078125
0.5647745132446289,0.5367290496826171
0.5647745132446289,0.5367290496826171
0.5778116226196289,0.5423955917358398
0.5778116226196289,0.5423955917358398
0.5714630126953125,0.5489295959472656
0.5714630126953125,0.5489295959472656
0.5710184097290039,0.5395362854003906
0.5710184097290039,0.5395362854003906
0.5821203231811524,0.5536382675170898
0.5821203231811524,0.5536382675170898
0.5697303771972656,0.5479145050048828
0.5697303771972656,0.5479145050048828
0.5815446853637695,0.5456359863281249
0.5815446853637695,0.5456359863281249
0.5692291259765625,0.5417615890502929
0.5692291259765625,0.5417615890502929
0.5584196090698242,0.5113683700561523
0.5584196090698242,0.5113683700561523
0.5568809509277344,0.5060737609863281
0.5568809509277344,0.5060737609863281
0.5356161117553710,0.4824485778808594
0.5356161117553710,0.4824485778808594
0.5438117980957031,0.4782308578491211
0.5438117980957031,0.4782308578491211
0.5348865509033203,0.4819055557250976
0.5348865509033203,0.4819055557250976
0.5327041625976562,0.4711767196655273
0.5327041625976562,0.4711767196655273
0.5423538208007812,0.4814077377319336
0.5423538208007812,0.4814077377319336
0.5290712356567383,0.4722501754760742
0.5290712356567383,0.4722501754760742
0.5422737121582031,0.4747409820556641
0.5422737121582031,0.4747409820556641
0.5352161407470702,0.4838756561279297
0.5352161407470702,0.4838756561279297
0.5344591140747070,0.4716367721557617
0.5344591140747070,0.4716367721557617
0.5448457717895507,0.4852100372314453
0.5448457717895507,0.4852100372314453
0.5324460983276367,0.4772546768188476
0.5324460983276367,0.4772546768188476
0.5456777572631836,0.4828508377075195
0.5456777572631836,0.4828508377075195
0.5391517639160156,0.4892337799072266
0.5391517639160156,0.4892337799072266
0.5385910034179687,0.4796985626220703
0.5385910034179687,0.4796985626220703
0.5498044967651367,0.4942182540893554
0.5498044967651367,0.4942182540893554
0.5379552841186523,0.4896223068237304
0.5379552841186523,0.4896223068237304
0.5520835876464844,0.4933158874511718
0.5520835876464844,0.4933158874511718
0.5466905593872070,0.5037139892578125
0.5466905593872070,0.5037139892578125
0.5478458404541016,0.4967267990112305
0.5478458404541016,0.4967267990112305
0.5600755691528320,0.5154767990112304
0.5600755691528320,0.5154767990112304
0.5492277145385742,0.5086183547973633
0.5492277145385742,0.5086183547973633
0.5633983612060547,0.5143655776977539
0.5633983612060547,0.5143655776977539
0.5579120635986328,0.5232307434082031
0.5579120635986328,0.5232307434082031
0.5575149536132812,0.5153898239135742
0.5575149536132812,0.5153898239135742
0.5677619934082031,0.5265787124633788
0.5677619934082031,0.5265787124633788
0.5545280456542968,0.5170377731323242
0.5545280456542968,0.5170377731323242
0.5667005538940429,0.5184602737426758
0.5667005538940429,0.5184602737426758
0.5585615158081054,0.5257570266723632
0.5585615158081054,0.5257570266723632
0.5567985534667969,0.5116853713989258
0.5567985534667969,0.5116853713989258
0.5657341003417968,0.5234390258789062
0.5657341003417968,0.5234390258789062
0.5527622222900390,0.5135702133178711
0.5527622222900390,0.5135702133178711
0.5649988174438476,0.5178377151489257
0.5649988174438476,0.5178377151489257
0.5577501296997071,0.5228015899658203
0.5577501296997071,0.5228015899658203
0.5568580627441406,0.5121402740478516
0.5568580627441406,0.5121402740478516
0.5670873641967773,0.5255270004272461
0.5670873641967773,0.5255270004272461
0.5545114517211914,0.5194238662719727
0.5545114517211914,0.5194238662719727
0.5676721572875977,0.5214191436767578
0.5676721572875977,0.5214191436767578
0.5606311798095703,0.5293962478637695
0.5606311798095703,0.5293962478637695
0.5607885360717774,0.5196779251098632
0.5607885360717774,0.5196779251098632
0.5712638854980469,0.5357488632202149
0.5712638854980469,0.5357488632202149
0.5589162826538085,0.5260522842407226
0.5589162826538085,0.5260522842407226
0.5722063064575195,0.5298494338989258
0.5722063064575195,0.5298494338989258
0.5654766082763671,0.5376085281372071
0.5654766082763671,0.5376085281372071
0.5649971008300781,0.5294271469116211
0.5649971008300781,0.5294271469116211
0.5754907608032226,0.5415830612182617
0.5713571548461914,0.5415830612182617
0.5628284454345703,0.5335596084594726
0.5628284454345703,0.5335596084594726
0.5766174316406250,0.5374162673950195
0.5766174316406250,0.5374162673950195
0.5696348190307617,0.5472633361816406
0.5696348190307617,0.5472633361816406
0.5693252563476562,0.5355400085449219
0.5693252563476562,0.5355400085449219
0.5796821594238281,0.5494663238525390
0.5757093429565430,0.5494663238525390
0.5674793243408203,0.5414382934570312
0.5674793243408203,0.5414382934570312
0.5807859420776367,0.5474298477172851
0.5807859420776367,0.5474298477172851
0.5740550994873047,0.5535730361938477
0.5740550994873047,0.5535730361938477
0.5733135223388671,0.5428224563598633
0.5733135223388671,0.5428224563598633
0.5822153091430664,0.5519783020019531
0.5822153091430664,0.5519783020019531
0.5633245468139648,0.5321199417114257
0.5633245468139648,0.5321199417114257
0.5655172348022460,0.5132389068603516
0.5655172348022460,0.5132389068603516
0.5469097137451172,0.5009130477905274
0.5469097137451172,0.5009130477905274
0.5385824203491211,0.4778869628906250
0.5385824203491211,0.4778869628906250
0.5444217681884765,0.4865707397460937
0.5444217681884765,0.4865707397460937
0.5296634674072266,0.4727205276489257
0.5296634674072266,0.4727205276489257
0.5413375854492187,0.4739152908325195
0.5413375854492187,0.4739152908325195
0.5337839126586914,0.4798044204711914
0.5337839126586914,0.4798044204711914
0.5327762603759766,0.4703126907348633
0.5327762603759766,0.4703126907348633
0.5425764083862304,0.4813533782958984
0.5425764083862304,0.4813533782958984
0.5298448562622070,0.4724018096923828
0.5298448562622070,0.4724018096923828
0.5429208755493163,0.4755992889404297
0.5429208755493163,0.4755992889404297
0.5356418609619140,0.4844758987426758
0.5356418609619140,0.4844758987426758
0.5352762222290038,0.4724676132202148
0.5352762222290038,0.4724676132202148
0.5450975418090820,0.4861862182617187
0.5450975418090820,0.4861862182617187
0.5332483291625977,0.4780323028564453
0.5332483291625977,0.4780323028564453
0.5463970184326171,0.4839540481567383
0.5463970184326171,0.4839540481567383
0.5396713256835938,0.4901985168457031
0.5396713256835938,0.4901985168457031
0.5399156570434570,0.4812704086303711
0.5399156570434570,0.4812704086303711
0.5508785247802734,0.4966186523437500
0.5508785247802734,0.4966186523437500
0.5396993637084960,0.4923254013061523
0.5396993637084960,0.4923254013061523
0.5543369293212891,0.4972927093505859
0.5543369293212891,0.4972927093505859
0.5485868453979492,0.5078041076660156
0.5485868453979492,0.5078041076660156
0.5504116058349610,0.5005645751953125
0.5504116058349610,0.5005645751953125
0.5618356704711914,0.5186622619628906
0.5618356704711914,0.5186622619628906
0.5505283355712890,0.5100156784057617
0.5505283355712890,0.5100156784057617
0.5640403747558593,0.5144874572753906
0.5640403747558593,0.5144874572753906
0.5570440292358398,0.5214918136596679
0.5570440292358398,0.5214918136596679
0.5561759948730468,0.5123514175415039
0.5561759948730468,0.5123514175415039
0.5655818939208984,0.5227872848510742
0.5655818939208984,0.5227872848510742
0.5520721435546875,0.5126152038574219
0.5520721435546875,0.5126152038574219
0.5645982742309570,0.5145812988281250
0.5645982742309570,0.5145812988281250
0.5564460754394531,0.5221572875976562
0.5564460754394531,0.5221572875976562
0.5555477142333984,0.5091110229492187
0.5555477142333984,0.5091110229492187
0.5649147033691406,0.5218173980712890
0.5649147033691406,0.5218173980712890
0.5523942947387696,0.5126701354980469
0.5523942947387696,0.5126701354980469
0.5651533126831054,0.5180482864379883
