REDsignal,IRsignal
0.4547956466674805,0.4883256912231445
0.4542909622192383,0.4958873748779297
0.4542909622192383,0.4958873748779297
0.4518373489379883,0.4891422271728516
0.4518373489379883,0.4891422271728516
0.4596982955932617,0.4956127166748047
0.4596982955932617,0.4956127166748047
0.4528186798095703,0.4947795867919922
0.4528186798095703,0.4947795867919922
0.4544380187988281,0.4920907974243164
0.4544380187988281,0.4920907974243164
0.4579879760742187,0.4992238998413085
0.4579879760742187,0.4992238998413085
0.4534950256347656,0.4922962188720703
0.4534950256347656,0.4922962188720703
0.4604690551757812,0.4984268188476562
0.4604690551757812,0.4984268188476562
0.4521297454833984,0.4976520538330078
0.4521297454833984,0.4976520538330078
0.4579227447509766,0.4946886062622070
0.4579227447509766,0.4946886062622070
0.4595792770385742,0.5016786575317382
0.4595792770385742,0.5016786575317382
0.4543035507202148,0.4945272445678711
0.4543035507202148,0.4945272445678711
0.4593641281127929,0.5006486892700195
0.4593641281127929,0.5006486892700195
0.4551658630371094,0.4994831085205078
0.4551658630371094,0.4994831085205078
0.4588634490966796,0.4965105056762695
0.4588634490966796,0.4965105056762695
0.4596021652221680,0.5029970169067383
0.4596021652221680,0.5029970169067383
0.4528644561767578,0.4961540222167968
0.4528644561767578,0.4961540222167968
0.4620969772338867,0.5020723342895508
0.4620969772338867,0.5020723342895508
0.4560836791992187,0.5008071899414063
0.4560836791992187,0.5008071899414063
0.4590780258178710,0.4977590560913085
0.4590780258178710,0.4977590560913085
0.4579662322998047,0.5045082092285156
0.4579662322998047,0.5045082092285156
0.4554594039916992,0.4974008560180664
0.4554594039916992,0.4974008560180664
0.4626811981201172,0.5032831192016601
0.4626811981201172,0.5032831192016601
0.4558433532714843,0.5016345977783203
0.4558433532714843,0.5016345977783203
0.4573642730712890,0.4987037658691406
0.4573642730712890,0.4987037658691406
0.4602516174316406,0.5047033309936523
0.4602516174316406,0.5047033309936523
0.4552322387695312,0.4957511901855469
0.4552322387695312,0.4957511901855469
0.4601188659667969,0.4973539352416992
0.4601188659667969,0.4973539352416992
0.4487657546997070,0.4894786834716797
0.4487657546997070,0.4894786834716797
0.4512765884399414,0.4784803390502930
0.4512765884399414,0.4784803390502930
0.4487434387207031,0.4777645111083984
0.4487434387207031,0.4777645111083984
0.4408842086791992,0.4645414352416992
0.4408842086791992,0.4645414352416992
0.4439855575561523,0.4665750503540039
0.4439855575561523,0.4665750503540039
0.4380884170532227,0.4626142501831054
0.4380884170532227,0.4626142501831054
0.4416435241699219,0.4583896636962890
0.4416435241699219,0.4583896636962890
0.4416584014892578,0.4646244049072266
0.4416584014892578,0.4646244049072266
0.4352703094482422,0.4580062866210937
0.4352703094482422,0.4580062866210937
0.4447900772094727,0.4648555755615234
0.4447900772094727,0.4648555755615234
0.4389003753662109,0.4647434234619141
0.4389003753662109,0.4647434234619141
0.4433773040771484,0.4632350921630859
0.4433773040771484,0.4632350921630859
0.4430797576904297,0.4719663619995117
0.4430797576904297,0.4719663619995117
0.4415388107299805,0.4674133300781250
0.4415388107299805,0.4674133300781250
0.4503055572509765,0.4760633468627929
0.4503055572509765,0.4760633468627929
0.4443643569946289,0.4774269104003906
0.4443643569946289,0.4774269104003906
0.4476528167724609,0.4771545410156250
0.4476528167724609,0.4771545410156250
0.4515798568725586,0.4861804962158203
0.4515798568725586,0.4861804962158203
0.4479578018188476,0.4811594009399414
0.4479578018188476,0.4811594009399414
0.4556070327758789,0.4885019302368164
0.4556070327758789,0.4885019302368164
0.4474611282348633,0.4884326934814453
0.4474611282348633,0.4884326934814453
0.4541690826416016,0.4863756179809570
0.4541690826416016,0.4863756179809570
0.4555561065673828,0.4936019897460937
0.4555561065673828,0.4936019897460937
0.4505315780639648,0.4872442245483398
0.4505315780639648,0.4872442245483398
0.4559011459350586,0.4938354492187500
0.4559011459350586,0.4938354492187500
0.4516313552856445,0.4928346633911133
0.4516313552856445,0.4928346633911133
0.4560642242431641,0.4904680252075195
0.4560642242431641,0.4904680252075195
0.4566066741943359,0.4969591140747070
0.4566066741943359,0.4969591140747070
0.4500469207763672,0.4906705856323242
0.4500469207763672,0.4906705856323242
0.4595043182373046,0.4969190597534179
0.4595043182373046,0.4969190597534179
0.4534378051757812,0.4958261489868164
0.4534378051757812,0.4958261489868164
0.4571582794189453,0.4931928634643554
0.4571582794189453,0.4931928634643554
0.4556018829345703,0.4998624801635742
0.4556018829345703,0.4998624801635742
0.4532884597778320,0.4931138992309570
0.4532884597778320,0.4931138992309570
0.4606298446655273,0.4993377685546875
0.4606298446655273,0.4993377685546875
0.4537817001342773,0.4977968215942383
0.4537817001342773,0.4977968215942383
0.4560270309448242,0.4954387664794921
0.4560270309448242,0.4954387664794921
0.4587512969970703,0.5020580291748047
0.4588520050048828,0.5020580291748047
0.4547264099121093,0.4952276229858398
0.4547264099121093,0.4952276229858398
0.4613456726074219,0.5013376235961914
0.4613456726074219,0.5013376235961914
0.4525005340576171,0.4999300003051758
0.4525005340576171,0.4999300003051758
0.4591690063476562,0.4973802566528320
0.4591690063476562,0.4973802566528320
0.4596742630004882,0.5038444519042968
0.4596742630004882,0.5038444519042968
0.4549352645874023,0.4968395233154297
0.4549352645874023,0.4968395233154297
0.4599752426147461,0.5031372070312500
0.4599752426147461,0.5031372070312500
0.4555046081542968,0.5017118453979492
0.4555046081542968,0.5017118453979492
0.4550811767578125,0.5029758453369141
0.4550811767578125,0.5029758453369141
0.4550811767578125,0.4991912841796875
0.4614881515502929,0.5017662048339844
0.4614881515502929,0.5017662048339844
0.4572195053100586,0.5053304672241211
0.4572195053100586,0.5053304672241211
0.4590408325195312,0.4994968414306640
0.4590408325195312,0.4994968414306640
0.4619882583618164,0.5044692993164063
0.4619882583618164,0.5044692993164063
0.4540391921997070,0.4968503952026367
0.4540391921997070,0.4968503952026367
0.4581836700439453,0.4935298919677734
0.4581836700439453,0.4935298919677734
0.4524290084838867,0.4896652221679687
0.4524290084838867,0.4896652221679687
0.4475824356079102,0.4748348236083984
0.4475824356079102,0.4748348236083984
0.4488916397094727,0.4745252609252930
0.4488916397094727,0.4745252609252930
0.4387578964233398,0.4630765914916992
0.4387578964233398,0.4630765914916992
0.4446899414062500,0.4613571166992188
0.4446899414062500,0.4613571166992188
0.4376741409301758,0.4615705490112305
0.4376741409301758,0.4615705490112305
0.4373268127441406,0.4549255371093750
0.4373268127441406,0.4549255371093750
0.4418106079101562,0.4611082077026367
0.4418106079101562,0.4611082077026367
0.4362848281860351,0.4558897018432617
0.4362848281860351,0.4558897018432617
0.4416698455810547,0.4577041625976562
0.4416698455810547,0.4577041625976562
0.4376346588134766,0.4623624801635742
0.4376346588134766,0.4623624801635742
0.4385393142700195,0.4578088760375976
0.4385393142700195,0.4578088760375976
0.4455791473388672,0.4663249969482421
0.4455791473388672,0.4663249969482421
0.4380094528198242,0.4618223190307617
0.4380094528198242,0.4618223190307617
0.4453788757324219,0.4667398452758789
0.4453788757324219,0.4667398452758789
0.4423484802246094,0.4729963302612304
0.4423484802246094,0.4729963302612304
0.4456975936889648,0.4706045150756836
0.4456975936889648,0.4706045150756836
0.4504829406738281,0.4795698165893554
0.4504829406738281,0.4795698165893554
0.4447751998901367,0.4773468017578125
0.4447751998901367,0.4773468017578125
0.4523345947265625,0.4818952560424805
0.4523345947265625,0.4818952560424805
0.4504165649414062,0.4873334884643554
0.4504165649414062,0.4873334884643554
0.4502105712890625,0.4823753356933593
0.4502105712890625,0.4823753356933593
0.4554656982421875,0.4906311035156250
0.4554656982421875,0.4906311035156250
0.4488229751586914,0.4858840942382812
0.4488229751586914,0.4858840942382812
0.4573242187500000,0.4890214920043945
0.4573242187500000,0.4890214920043945
0.4516834259033203,0.4923563003540039
0.4516834259033203,0.4923563003540039
0.4524347305297851,0.4877403259277344
0.4524347305297851,0.4877403259277344
0.4573368072509765,0.4948705673217773
0.4573368072509765,0.4948705673217773
0.4521520614624023,0.4900228500366210
0.4521520614624023,0.4900228500366210
0.4573207855224609,0.4918773651123047
0.4573207855224609,0.4918773651123047
0.4530967712402343,0.4960287094116211
0.4530967712402343,0.4960287094116211
0.4536243438720703,0.4908262252807617
0.4536243438720703,0.4908262252807617
0.4601383209228516,0.4981412887573242
0.4601383209228516,0.4981412887573242
0.4519111633300781,0.4920913696289062
0.4519111633300781,0.4920913696289062
0.4586500167846679,0.4949741363525391
0.4586500167846679,0.4949741363525391
0.4540689468383789,0.4986425399780273
0.4540689468383789,0.4986425399780273
0.4563852310180664,0.4935728073120117
0.4563852310180664,0.4935728073120117
0.4598510742187500,0.4998001098632812
0.4598510742187500,0.4998001098632812
0.4528873443603516,0.4949546813964844
0.4528873443603516,0.4949546813964844
0.4594797134399414,0.4973236083984375
0.4594797134399414,0.4973236083984375
0.4566370010375976,0.5010498046874999
0.4566370010375976,0.5010498046874999
0.4558856964111328,0.4949060440063476
0.4558856964111328,0.4949060440063476
0.4607608795166016,0.5024774551391601
0.4607608795166016,0.5024774551391601
0.4537033081054687,0.4970615386962891
0.4537033081054687,0.4970615386962891
0.4620077133178710,0.4995294570922851
0.4620077133178710,0.4995294570922851
0.4559537887573242,0.5022737503051757
0.4559537887573242,0.5022737503051757
0.4567108154296875,0.4973030090332031
0.4567108154296875,0.4973030090332031
0.4614973068237305,0.5041769027709960
0.4614973068237305,0.5041769027709960
0.4560562133789062,0.4988576889038085
0.4560562133789062,0.4988576889038085
0.4611454010009766,0.4998464584350586
0.4611454010009766,0.4998464584350586
0.4558937072753906,0.5025026321411132
0.4558937072753906,0.5025026321411132
0.4553609848022461,0.4939441680908203
0.4553609848022461,0.4939441680908203
0.4592313766479492,0.4948493957519531
0.4592313766479492,0.4948493957519531
0.4471315383911132,0.4797946929931640
0.4471315383911132,0.4797946929931640
0.4498340606689453,0.4734214782714843
0.4498340606689453,0.4734214782714843
0.4402702331542969,0.4565505981445312
0.4402702331542969,0.4565505981445312
0.4402702331542969,0.4581865310668945
0.4359420776367187,0.4581865310668945
0.4358716964721679,0.4567989349365234
0.4358716964721679,0.4567989349365234
0.4401294708251953,0.4548139572143555
0.4401294708251953,0.4548139572143555
0.4350402832031250,0.4569528579711914
0.4362361907958984,0.4511844635009765
0.4345727920532226,0.4530395507812500
0.4345727920532226,0.4530395507812500
0.4345727920532226,0.4515752792358398
0.4417196273803711,0.4587575912475585
0.4417196273803711,0.4587575912475585
0.4331937789916992,0.4584960937500000
0.4331937789916992,0.4584960937500000
0.4414157867431641,0.4583850860595703
0.4414157867431641,0.4583850860595703
0.4422443389892578,0.4665950775146484
0.4422443389892578,0.4665950775146484
0.4390159606933594,0.4625135421752929
0.4390159606933594,0.4625135421752929
0.4457118988037109,0.4718358993530273
0.4457118988037109,0.4718358993530273
0.4417802810668945,0.4730958938598633
0.4417802810668945,0.4730958938598633
0.4489717483520508,0.4739467620849609
0.4489717483520508,0.4739467620849609
0.4491662979125977,0.4821207046508789
0.4491662979125977,0.4821207046508789
0.4437910079956054,0.4772008895874023
0.4437910079956054,0.4772008895874023
0.4538291931152343,0.4849090576171875
0.4538291931152343,0.4849090576171875
0.4472368240356445,0.4842710494995117
0.4472368240356445,0.4842710494995117
0.4528438568115234,0.4830797195434570
0.4528438568115234,0.4830797195434570
0.4507925033569335,0.4896686553955078
0.4507925033569335,0.4896686553955078
0.4489442825317383,0.4834842681884766
0.4489442825317383,0.4834842681884766
0.4568487167358398,0.4901309967041015
0.4568487167358398,0.4901309967041015
0.4491119384765625,0.4889230728149414
0.4491119384765625,0.4889230728149414
0.4527105331420898,0.4874158859252929
0.4527105331420898,0.4874158859252929
0.4545158386230468,0.4935831069946289
0.4545158386230468,0.4935831069946289
0.4505441665649414,0.4870382308959961
0.4505441665649414,0.4870382308959961
0.4577081680297851,0.4932815551757812
0.4577081680297851,0.4932815551757812
0.4484642028808594,0.4920553207397461
0.4484642028808594,0.4920553207397461
0.4561889648437500,0.4905464172363281
0.4561889648437500,0.4905464172363281
0.4562891006469726,0.4964040756225586
0.4562891006469726,0.4964040756225586
0.4516616821289062,0.4898569107055664
0.4516616821289062,0.4898569107055664
0.4569334030151367,0.4962060928344726
0.4491777420043945,0.4962060928344726
0.4517217636108398,0.4946931838989257
0.4517217636108398,0.4946931838989257
0.4574438095092773,0.4931716918945312
0.4574438095092773,0.4931716918945312
0.4567525863647461,0.4987569808959961
0.4567525863647461,0.4987569808959961
0.4507335662841797,0.4921806335449219
0.4507335662841797,0.4921806335449219
0.4600919723510742,0.4985727310180664
0.4600919723510742,0.4985727310180664
0.4531671524047851,0.4969654083251953
0.4531671524047851,0.4969654083251953
0.4582592010498047,0.4954101562500000
0.4582592010498047,0.4954101562500000
0.4557065963745117,0.5010910034179688
0.4557065963745117,0.5010910034179688
0.4538177490234375,0.4942749023437500
0.4538177490234375,0.4942749023437500
0.4610435485839843,0.5005313873291015
0.4610435485839843,0.5005313873291015
0.4533519744873047,0.4984159469604492
0.4533519744873047,0.4984159469604492
0.4566375732421875,0.4965019226074219
0.4566375732421875,0.4965019226074219
0.4577590942382812,0.5008878707885742
0.4577590942382812,0.5008878707885742
0.4528799057006836,0.4906299591064453
0.4528799057006836,0.4906299591064453
0.4569511413574219,0.4903398513793945
0.4569511413574219,0.4903398513793945
0.4435792922973633,0.4793718338012695
0.4435792922973633,0.4793718338012695
0.4470697402954101,0.4685474395751953
0.4470697402954101,0.4685474395751953
0.4425773620605469,0.4660200119018554
0.4425773620605469,0.4660200119018554
0.4351924896240234,0.4532054901123047
0.4351924896240234,0.4532054901123047
0.4385358810424805,0.4556465148925781
0.4385358810424805,0.4556465148925781
0.4318777084350586,0.4514505386352539
0.4318777084350586,0.4514505386352539
0.4371986389160156,0.4485385894775391
0.4371986389160156,0.4485385894775391
0.4356857299804687,0.4531602859497070
0.4356857299804687,0.4531602859497070
0.4296083450317383,0.4460597991943359
0.4296083450317383,0.4460597991943359
0.4387315750122070,0.4523391723632812
0.4387315750122070,0.4523391723632812
0.4314977645874024,0.4507770538330078
0.4314977645874024,0.4507770538330078
0.4373062133789062,0.4497688293457031
0.4373062133789062,0.4497688293457031
0.4350414276123047,0.4561569213867187
0.4350414276123047,0.4561569213867187
0.4337133407592773,0.4504440307617187
0.4337133407592773,0.4504440307617187
0.4418930053710937,0.4584371566772460
0.4418930053710937,0.4584371566772460
0.4347816467285156,0.4586608886718750
0.4347816467285156,0.4586608886718750
0.4398410797119141,0.4599866867065430
0.4398410797119141,0.4599866867065430
0.4426151275634765,0.4684587478637695
0.4426151275634765,0.4684587478637695
0.4402627944946289,0.4648389816284180
0.4402627944946289,0.4648389816284180
0.4485603332519531,0.4739204406738281
0.4485603332519531,0.4739204406738281
0.4404047012329101,0.4748548507690429
0.4404047012329101,0.4748548507690429
0.4492961883544922,0.4758281707763672
0.4492961883544922,0.4758281707763672
0.4499010086059570,0.4829887390136718
0.4499010086059570,0.4829887390136718
0.4461931228637695,0.4775184631347656
0.4461931228637695,0.4775184631347656
0.4517091751098632,0.4848266601562500
0.4517091751098632,0.4848266601562500
0.4467281341552734,0.4838607788085937
0.4467281341552734,0.4838607788085937
0.4529022216796875,0.4831832885742187
0.4529022216796875,0.4831832885742187
0.4520988464355469,0.4888710021972656
0.4520988464355469,0.4888710021972656
0.4465667724609375,0.4827363967895508
0.4465667724609375,0.4827363967895508
0.4559097290039062,0.4894220352172851
0.4559097290039062,0.4894220352172851
0.4489265441894531,0.4878564834594726
0.4489265441894531,0.4878564834594726
0.4543991088867188,0.4869186401367187
0.4543991088867188,0.4869186401367187
0.4516399383544922,0.4924942016601562
0.4516399383544922,0.4924942016601562
0.4500932693481445,0.4860992431640625
0.4500932693481445,0.4860992431640625
0.4573934555053711,0.4925680160522461
0.4573934555053711,0.4925680160522461
0.4498014450073242,0.4907066345214843
0.4498014450073242,0.4907066345214843
0.4505475997924804,0.4927974700927734
0.4505475997924804,0.4899787902832031
0.4505475997924804,0.4899787902832031
0.4591489791870117,0.4930103302001953
0.4500909805297851,0.4930103302001953
0.4526184082031250,0.4947778701782226
0.4526184082031250,0.4947778701782226
0.4540935516357422,0.4906923294067382
0.4540935516357422,0.4906923294067382
0.4583358764648438,0.4980583190917969
0.4583358764648438,0.4980583190917969
0.4531517028808594,0.4925794601440430
0.4531517028808594,0.4925794601440430
0.4587850570678711,0.4946336746215820
0.4587850570678711,0.4946336746215820
0.4535825729370117,0.4975255966186523
0.4535825729370117,0.4975255966186523
0.4549346923828125,0.4929285049438477
0.4549346923828125,0.4929285049438477
0.4608261108398437,0.5005456924438476
0.4608261108398437,0.5005456924438476
0.4526893615722656,0.4939710617065429
0.4526893615722656,0.4939710617065429
0.4596891403198242,0.4971828460693359
0.4596891403198242,0.4971828460693359
0.4543951034545898,0.4992959976196289
0.4543951034545898,0.4992959976196289
0.4570804595947265,0.4945896148681641
0.4570804595947265,0.4945896148681641
0.4593315124511719,0.4999139785766601
0.4593315124511719,0.4999139785766601
0.4517103195190429,0.4914327621459961
0.4517103195190429,0.4914327621459961
0.4561140060424804,0.4881866455078125
0.4561140060424804,0.4881866455078125
0.4485380172729492,0.4816085815429687
0.4485380172729492,0.4816085815429687
0.4443294525146484,0.4667055130004882
0.4443294525146484,0.4667055130004882
0.4442539215087891,0.4659009933471679
0.4442539215087891,0.4659009933471679
0.4343788146972656,0.4540071487426758
0.4343788146972656,0.4540071487426758
0.4407308578491211,0.4530218124389648
0.4407308578491211,0.4530218124389648
0.4329723358154297,0.4520399093627929
0.4329723358154297,0.4520399093627929
0.4336824417114258,0.4465850830078125
0.4336824417114258,0.4465850830078125
0.4373662948608398,0.4531448364257812
0.4373662948608398,0.4531448364257812
0.4322656631469726,0.4472997665405273
0.4322656631469726,0.4472997665405273
0.4379550933837891,0.4498420715332031
0.4379550933837891,0.4498420715332031
0.4329746246337891,0.4526687622070312
0.4329746246337891,0.4526687622070312
0.4346746444702148,0.4487113952636719
0.4346746444702148,0.4487113952636719
0.4404539108276367,0.4569992065429687
0.4404539108276367,0.4569992065429687
0.4332778930664062,0.4517360687255859
0.4332778930664062,0.4517360687255859
0.4409797668457031,0.4569185256958008
0.4409797668457031,0.4569185256958008
0.4366716384887695,0.4612106323242187
0.4366716384887695,0.4612106323242187
0.4409294128417969,0.4596427917480468
0.4409294128417969,0.4596427917480468
0.4449857711791992,0.4692535400390625
0.4449857711791992,0.4692535400390625
0.4400053024291992,0.4667266845703125
0.4400053024291992,0.4667266845703125
0.4481300354003906,0.4727949142456054
0.4481300354003906,0.4727949142456054
0.4456254959106445,0.4774938583374023
0.4456254959106445,0.4774938583374023
0.4468866348266601,0.4742403030395508
0.4468866348266601,0.4742403030395508
0.4516199111938476,0.4835826873779296
0.4516199111938476,0.4835826873779296
0.4457450866699219,0.4788568496704101
0.4457450866699219,0.4788568496704101
0.4545232772827148,0.4832187652587890
0.4545232772827148,0.4832187652587890
0.4481151580810547,0.4850881576538086
0.4481151580810547,0.4850881576538086
0.4501390457153320,0.4816658020019531
0.4501390457153320,0.4816658020019531
0.4541616439819336,0.4893373489379882
0.4541616439819336,0.4893373489379882
0.4495262145996093,0.4839683532714844
0.4495262145996093,0.4839683532714844
0.4550685882568359,0.4869443893432617
0.4550685882568359,0.4869443893432617
0.4500000000000000,0.4894351959228516
0.4500000000000000,0.4894351959228516
0.4518218994140625,0.4853456497192383
0.4518218994140625,0.4853456497192383
0.4572641372680664,0.4930549621582031
0.4572641372680664,0.4930549621582031
0.4497018814086914,0.4866559982299805
0.4572492599487304,0.4866559982299805
0.4564447402954102,0.4907123565673828
0.4564447402954102,0.4907123565673828
0.4512554168701172,0.4925937652587891
0.4512554168701172,0.4925937652587891
0.4545782089233398,0.4885482788085938
0.4545782089233398,0.4885482788085938
0.4570198059082031,0.4950937271118164
0.4570198059082031,0.4950937271118164
0.4509613037109375,0.4897727966308594
0.4509613037109375,0.4897727966308594
0.4575777053833008,0.4934114456176757
0.4575777053833008,0.4934114456176757
0.4539190292358398,0.4953454971313476
0.4539190292358398,0.4953454971313476
0.4543436050415039,0.4902711868286133
0.4543436050415039,0.4902711868286133
0.4581459045410156,0.4979736328125000
0.4581459045410156,0.4979736328125000
0.4519294738769531,0.4920736312866211
0.4519294738769531,0.4920736312866211
0.4600667953491211,0.4959526062011719
0.4600667953491211,0.4959526062011719
0.4534040451049804,0.4967639923095703
0.4534040451049804,0.4967639923095703
0.4553369522094726,0.4928398132324219
0.4553369522094726,0.4928398132324219
0.4589406967163085,0.5000741958618163
0.4589406967163085,0.5000741958618163
0.4543773651123046,0.4942348480224609
0.4543773651123046,0.4942348480224609
0.4594573974609375,0.4970129013061523
0.4594573974609375,0.4970129013061523
0.4540151596069336,0.4985824584960937
0.4540151596069336,0.4985824584960937
0.4554611206054687,0.4933324813842773
0.4554611206054687,0.4933324813842773
0.4597246170043945,0.4981887817382812
0.4597246170043945,0.4981887817382812
0.4499788284301758,0.4859819412231445
0.4499788284301758,0.4859819412231445
0.4531414031982421,0.4818037033081055
0.4531414031982421,0.4818037033081055
0.4436668395996093,0.4739953994750976
0.4436668395996093,0.4739953994750976
0.4429195404052734,0.4614595413208007
0.4429195404052734,0.4614595413208007
0.4419113159179687,0.4615173339843750
0.4419113159179687,0.4615173339843750
0.4335886001586914,0.4514940261840820
0.4335886001586914,0.4514940261840820
0.4386754989624023,0.4527265548706054
0.4386754989624023,0.4527265548706054
0.4341407775878906,0.4527225494384766
0.4341407775878906,0.4527225494384766
0.4344417572021484,0.4471246719360352
0.4344417572021484,0.4471246719360352
0.4379522323608399,0.4546274185180664
0.4379522323608399,0.4546274185180664
0.4321271896362305,0.4489030838012695
0.4321271896362305,0.4489030838012695
0.4404064178466797,0.4538961410522461
0.4404064178466797,0.4538961410522461
0.4342987060546875,0.4553701400756835
0.4342987060546875,0.4553701400756835
0.4368719100952148,0.4528776168823242
0.4368719100952148,0.4528776168823242
0.4411462783813476,0.4622011184692383
0.4411462783813476,0.4622011184692383
0.4378366470336914,0.4586185455322265
0.4378366470336914,0.4586185455322265
0.4444175720214844,0.4649236679077148
0.4444175720214844,0.4649236679077148
0.4405649185180664,0.4694915771484375
0.4405649185180664,0.4694915771484375
0.4438968658447265,0.4683214187622070
0.4438968658447265,0.4683214187622070
0.4501607894897461,0.4784231185913086
0.4501607894897461,0.4784231185913086
0.4440387725830078,0.4737110137939453
0.4440387725830078,0.4737110137939453
0.4513166427612305,0.4801294326782226
0.4513166427612305,0.4801294326782226
0.4466783523559570,0.4824937820434570
0.4466783523559570,0.4824937820434570
0.4506711959838867,0.4794553756713867
0.4506711959838867,0.4794553756713867
0.4531379699707031,0.4867074966430664
0.4531379699707031,0.4867074966430664
0.4475040435791016,0.4814495086669922
0.4475040435791016,0.4814495086669922
0.4541461944580078,0.4862417221069336
0.4541461944580078,0.4862417221069336
0.4505138397216797,0.4879177093505859
0.4505138397216797,0.4879177093505859
0.4513504028320312,0.4833560943603515
0.4513504028320312,0.4833560943603515
0.4548471450805664,0.4912015914916992
0.4548471450805664,0.4912015914916992
0.4491342544555664,0.4851264953613281
0.4491342544555664,0.4851264953613281
0.4572423934936523,0.4900897979736328
0.4572423934936523,0.4900897979736328
0.4505533218383789,0.4904239654541016
0.4505533218383789,0.4904239654541016
0.4527311325073242,0.4867824554443359
0.4527311325073242,0.4867824554443359
0.4560092926025390,0.4942611694335937
0.4560092926025390,0.4942611694335937
0.4519758224487305,0.4882318496704101
0.4519758224487305,0.4882318496704101
0.4570793151855468,0.4922235488891601
0.4570793151855468,0.4922235488891601
0.4518121719360351,0.4935916900634765
0.4518121719360351,0.4935916900634765
0.4538486480712891,0.4895427703857422
0.4538486480712891,0.4895427703857422
0.4586769104003906,0.4970952987670898
0.4586769104003906,0.4970952987670898
0.4517429351806641,0.4899456024169921
0.4517429351806641,0.4899456024169921
0.4582277297973633,0.4952333450317383
0.4582277297973633,0.4952333450317383
0.4527523040771484,0.4959440231323242
0.4527523040771484,0.4959440231323242
0.4564487457275390,0.4921485900878906
0.4564487457275390,0.4921485900878906
0.4582614898681641,0.4986894607543945
0.4582614898681641,0.4986894607543945
0.4527070999145508,0.4926115036010742
0.4527070999145508,0.4926115036010742
0.4589996337890625,0.4974649429321289
0.4589996337890625,0.4974649429321289
0.4552213668823242,0.4983867645263672
0.4552213668823242,0.4983867645263672
0.4559806823730468,0.4934806823730469
0.4559806823730468,0.4934806823730469
0.4590677261352539,0.5011161804199219
0.4590677261352539,0.5011161804199219
0.4534532546997070,0.4943504333496094
0.4534532546997070,0.4943504333496094
0.4611551284790039,0.4991289138793945
0.4611551284790039,0.4991289138793945
0.4540168762207031,0.4980503082275390
0.4540168762207031,0.4980503082275390
0.4553003311157227,0.4917697906494141
0.4553003311157227,0.4917697906494141
0.4561449050903320,0.4939607620239257
0.4561449050903320,0.4939607620239257
0.4489334106445312,0.4794828414916992
0.4489334106445312,0.4794828414916992
0.4500560760498047,0.4749973297119141
0.4500560760498047,0.4749973297119141
0.4406982421875000,0.4676548004150390
0.4406982421875000,0.4676548004150390
0.4395481109619140,0.4572658538818359
0.4395481109619140,0.4572658538818359
0.4419044494628906,0.4605302810668945
0.4419044494628906,0.4605302810668945
0.4337247848510742,0.4503147125244140
0.4337247848510742,0.4503147125244140
0.4393415451049805,0.4542995452880859
0.4311962127685547,0.4542995452880859
0.4335382461547851,0.4542325973510742
0.4335382461547851,0.4542325973510742
0.4372037887573242,0.4504789352416992
0.4372037887573242,0.4504789352416992
0.4392436981201172,0.4576864242553711
0.4392436981201172,0.4576864242553711
0.4342809677124023,0.4521709442138672
0.4342809677124023,0.4521709442138672
0.4411336898803711,0.4586128234863281
0.4411336898803711,0.4586128234863281
0.4378200531005859,0.4608398437500000
0.4378200531005859,0.4608398437500000
0.4396888732910156,0.4581144332885742
0.4396888732910156,0.4581144332885742
0.4438236236572266,0.4682641983032226
0.4438236236572266,0.4682641983032226
0.4396001815795899,0.4641511917114258
0.4396001815795899,0.4641511917114258
0.4487949371337890,0.4724166870117187
0.4487949371337890,0.4724166870117187
0.4432256698608398,0.4747896194458008
0.4432256698608398,0.4747896194458008
0.4466291427612304,0.4734872817993164
0.4466291427612304,0.4734872817993164
0.4503782272338867,0.4827341079711914
0.4503782272338867,0.4827341079711914
0.4472723007202148,0.4777416229248047
0.4472723007202148,0.4777416229248047
0.4529508590698242,0.4833234786987304
0.4529508590698242,0.4833234786987304
0.4479194641113281,0.4849559783935546
0.4479194641113281,0.4849559783935546
0.4503690719604492,0.4815238952636718
0.4503690719604492,0.4815238952636718
0.4549982070922851,0.4896617889404297
0.4549982070922851,0.4896617889404297
0.4512296676635742,0.4899215698242188
0.4530441284179687,0.4899215698242188
0.4472728729248047,0.4839042663574218
0.4472728729248047,0.4839042663574218
0.4552654266357422,0.4912233352661133
0.4502300262451172,0.4912233352661133
0.4491617202758789,0.4869981765747070
0.4491617202758789,0.4869981765747070
0.4545312881469726,0.4880876541137695
0.4545312881469726,0.4880876541137695
0.4505601882934570,0.4931350708007812
0.4505601882934570,0.4931350708007812
0.4509859085083008,0.4870147705078125
0.4509859085083008,0.4870147705078125
0.4565528869628906,0.4940877914428711
0.4565528869628906,0.4940877914428711
0.4498403549194336,0.4896537780761718
0.4498403549194336,0.4896537780761718
0.4535316467285156,0.4908828735351562
0.4535316467285156,0.4908828735351562
0.4540008544921875,0.4959972381591797
0.4540008544921875,0.4959972381591797
0.4525566101074219,0.4896097183227539
0.4525566101074219,0.4896097183227539
0.4575056076049804,0.4967273712158203
0.4575056076049804,0.4967273712158203
0.4488327026367188,0.4922435760498047
0.4488327026367188,0.4922435760498047
0.4569660186767578,0.4934228897094726
0.4569660186767578,0.4934228897094726
0.4551086425781250,0.4983346939086914
0.4568784713745117,0.4983346939086914
0.4531688690185547,0.4916501998901367
0.4531688690185547,0.4916501998901367
0.4563108444213867,0.4989469528198242
0.4563108444213867,0.4989469528198242
0.4521114349365234,0.4944190979003906
0.4521114349365234,0.4944190979003906
0.4583616256713867,0.4956241607666015
0.4583616256713867,0.4956241607666015
0.4558336257934570,0.5003591537475586
0.4558336257934570,0.5003591537475586
0.4517852783203125,0.4937850952148437
0.4517852783203125,0.4937850952148437
0.4595100402832031,0.5007619857788086
0.4595100402832031,0.5007619857788086
0.4528747558593750,0.4959096908569336
0.4528747558593750,0.4959096908569336
0.4580961227416992,0.4959320068359375
0.4580961227416992,0.4959320068359375
0.4531511306762695,0.4986671447753906
0.4531511306762695,0.4986671447753906
0.4516141891479492,0.4870016098022460
0.4516141891479492,0.4870016098022460
0.4540288925170898,0.4859470367431640
0.4540288925170898,0.4859470367431640
0.4427324295043945,0.4719200134277344
0.4427324295043945,0.4719200134277344
0.4424005508422851,0.4643194198608398
0.4424005508422851,0.4643194198608398
0.4391275405883789,0.4622806549072265
0.4391275405883789,0.4622806549072265
0.4349573135375976,0.4511564254760742
0.4349573135375976,0.4511564254760742
0.4385713577270507,0.4548877716064453
0.4385713577270507,0.4548877716064453
0.4290309906005859,0.4486524581909180
0.4290309906005859,0.4486524581909180
0.4364902496337891,0.4490478515625000
0.4364902496337891,0.4490478515625000
0.4347770690917969,0.4534435272216797
0.4347770690917969,0.4534435272216797
0.4327554702758789,0.4471612930297851
0.4327554702758789,0.4471612930297851
0.4362499237060547,0.4546543121337890
0.4362499237060547,0.4546543121337890
0.4319566726684570,0.4505687713623047
0.4319566726684570,0.4505687713623047
0.4383607864379883,0.4528827667236328
0.4383607864379883,0.4528827667236328
0.4366819381713867,0.4586259841918945
0.4366819381713867,0.4586259841918945
0.4338769912719727,0.4541118621826172
0.4338769912719727,0.4541118621826172
0.4422695159912109,0.4635555267333984
0.4422695159912109,0.4635555267333984
0.4371997833251953,0.4614458084106445
0.4371997833251953,0.4614458084106445
0.4438945770263672,0.4657052993774414
0.4438945770263672,0.4657052993774414
0.4411788940429687,0.4731702804565430
0.4411788940429687,0.4731702804565430
0.4431781768798828,0.4694698333740234
0.4431781768798828,0.4694698333740234
0.4494701385498047,0.4789747238159179
0.4494701385498047,0.4789747238159179
0.4435684204101563,0.4757921218872070
0.4435684204101563,0.4757921218872070
0.4481374740600586,0.4788099288940429
0.4481374740600586,0.4788099288940429
0.4487251281738281,0.4844787597656250
0.4487251281738281,0.4844787597656250
0.4480436325073242,0.4789117813110351
0.4480436325073242,0.4789117813110351
0.4529777526855469,0.4866760253906250
0.4467990875244141,0.4866760253906250
0.4444158554077148,0.4822546005249023
0.4444158554077148,0.4822546005249023
0.4528238296508789,0.4842578887939453
0.4528238296508789,0.4842578887939453
0.4509172439575195,0.4891771316528320
0.4509172439575195,0.4891771316528320
0.4494844436645508,0.4827844619750976
0.4494844436645508,0.4827844619750976
0.4526264190673828,0.4904033660888671
0.4526264190673828,0.4904033660888671
0.4482095718383789,0.4858692169189453
0.4482095718383789,0.4858692169189453
0.4547029495239258,0.4876762390136719
0.4547029495239258,0.4876762390136719
0.4520421981811523,0.4923683166503906
0.4520421981811523,0.4923683166503906
0.4488046646118164,0.4861061096191406
0.4488046646118164,0.4861061096191406
0.4561002731323242,0.4934652328491211
0.4561002731323242,0.4934652328491211
0.4496835708618164,0.4888069152832031
0.4496835708618164,0.4888069152832031
0.4555286407470703,0.4905395507812500
0.4555286407470703,0.4905395507812500
0.4510969161987304,0.4950759887695312
0.4510969161987304,0.4950759887695312
0.4523117065429687,0.4889493942260742
0.4523117065429687,0.4889493942260742
0.4578105926513671,0.4961694717407226
0.4578105926513671,0.4961694717407226
0.4505453109741211,0.4913206100463867
0.4505453109741211,0.4913206100463867
0.4543973922729492,0.4932020187377930
0.4543973922729492,0.4932020187377930
0.4544746398925781,0.4975994110107422
0.4544746398925781,0.4975994110107422
0.4533548355102539,0.4912748336791992
0.4533548355102539,0.4912748336791992
0.4582391738891601,0.4982173919677734
0.4582391738891601,0.4982173919677734
0.4494655609130859,0.4935327529907226
0.4494655609130859,0.4935327529907226
0.4577419281005859,0.4953134536743164
0.4577419281005859,0.4953134536743164
0.4556579589843750,0.4993400573730469
0.4556579589843750,0.4993400573730469
0.4538618087768554,0.4925531387329101
0.4538618087768554,0.4925531387329101
0.4561986923217773,0.4982156753540039
0.4561986923217773,0.4982156753540039
0.4503667831420898,0.4897127151489258
0.4503667831420898,0.4897127151489258
0.4537307739257812,0.4849182128906250
0.4537307739257812,0.4849182128906250
0.4472196578979492,0.4797025680541992
0.4472196578979492,0.4797025680541992
0.4399847030639648,0.4641683578491211
0.4399847030639648,0.4641683578491211
0.4430196762084961,0.4632396697998047
0.4430196762084961,0.4632396697998047
0.4337968826293945,0.4524633407592773
0.4337968826293945,0.4524633407592773
0.4372541427612305,0.4503971099853515
0.4372541427612305,0.4503971099853515
0.4316179275512695,0.4520112991333007
0.4316179275512695,0.4520112991333007
0.4319406509399414,0.4444604873657226
0.4319406509399414,0.4444604873657226
0.4366573333740234,0.4507518768310547
0.4366573333740234,0.4507518768310547
0.4296604156494140,0.4453840255737305
0.4296604156494140,0.4453840255737305
0.4338352203369141,0.4474863052368164
0.4338352203369141,0.4474863052368164
0.4334941864013672,0.4518550872802734
0.4334941864013672,0.4518550872802734
0.4331794738769531,0.4462280273437500
0.4331794738769531,0.4462280273437500
0.4380083084106445,0.4539384841918945
0.4380083084106445,0.4539384841918945
0.4299264907836914,0.4501979827880859
0.4299264907836914,0.4501979827880859
0.4387619018554688,0.4538091659545898
0.4387619018554688,0.4538091659545898
0.4370824813842774,0.4598682403564453
0.4370824813842774,0.4598682403564453
0.4372684478759766,0.4563154220581054
0.4372684478759766,0.4563154220581054
0.4416057586669922,0.4663021087646484
0.4416057586669922,0.4663021087646484
0.4384243011474609,0.4645483016967773
0.4384243011474609,0.4645483016967773
0.4463962554931640,0.4694601058959961
0.4463962554931640,0.4694601058959961
0.4443099975585937,0.4759431838989258
0.4443099975585937,0.4759431838989258
0.4426031112670898,0.4719755172729492
0.4426031112670898,0.4719755172729492
0.4504285812377929,0.4805923461914062
0.4504285812377929,0.4805923461914062
0.4444250106811523,0.4769456863403320
0.4444250106811523,0.4769456863403320
0.4508577346801758,0.4797460556030273
0.4508577346801758,0.4797460556030273
0.4531116485595703,0.4805128097534179
0.4531116485595703,0.4836673736572266
0.4485431671142578,0.4833681106567382
0.4485431671142578,0.4833681106567382
0.4507410049438476,0.4803806304931640
0.4507410049438476,0.4803806304931640
0.4523677825927734,0.4880109786987304
0.4523677825927734,0.4880109786987304
0.4478668212890625,0.4814002990722656
0.4478668212890625,0.4814002990722656
0.4561969757080078,0.4879079818725586
0.4561969757080078,0.4879079818725586
0.4488744735717773,0.4862611770629883
0.4488744735717773,0.4862611770629883
0.4522241592407226,0.4843368530273438
0.4522241592407226,0.4843368530273438
0.4537061691284179,0.4911861419677734
0.4537061691284179,0.4911861419677734
0.4506254196166992,0.4848958969116210
0.4506254196166992,0.4848958969116210
0.4562753677368164,0.4904170989990234
0.4562753677368164,0.4904170989990234
0.4501676559448242,0.4896823883056640
0.4501676559448242,0.4896823883056640
0.4535711288452148,0.4873867034912109
0.4535711288452148,0.4873867034912109
0.4564435958862305,0.4943304061889648
0.4564435958862305,0.4943304061889648
0.4505567550659180,0.4869787216186523
0.4505567550659180,0.4869787216186523
0.4574718475341797,0.4934000015258789
0.4574718475341797,0.4934000015258789
0.4511421203613281,0.4922847747802734
0.4511421203613281,0.4922847747802734
0.4561008453369140,0.4900846481323242
0.4561008453369140,0.4900846481323242
0.4561414718627930,0.4961265563964843
0.4561414718627930,0.4961265563964843
0.4516788482666015,0.4898094177246093
0.4516788482666015,0.4898094177246093
0.4584062576293945,0.4957614898681640
0.4584062576293945,0.4957614898681640
0.4535573959350586,0.4945690155029296
0.4535573959350586,0.4945690155029296
0.4556631088256836,0.4913640975952148
0.4556631088256836,0.4913640975952148
0.4567972183227539,0.4979610443115234
0.4567972183227539,0.4979610443115234
0.4517984390258789,0.4903747558593750
0.4517984390258789,0.4903747558593750
0.4591157913208008,0.4939229965209961
0.4591157913208008,0.4939229965209961
0.4491502761840820,0.4862703323364257
0.4491502761840820,0.4862703323364257
0.4492944717407226,0.4755426406860351
0.4492944717407226,0.4755426406860351
0.4462022781372070,0.4726146697998047
0.4462022781372070,0.4726146697998047
0.4388202667236328,0.4575542449951172
0.4388202667236328,0.4575542449951172
0.4411245346069336,0.4562089920043945
0.4411245346069336,0.4562089920043945
0.4324419021606445,0.4506322860717773
0.4324419021606445,0.4506322860717773
0.4346700668334961,0.4453542709350586
0.4346700668334961,0.4453542709350586
0.4361526489257813,0.4503141403198242
0.4361526489257813,0.4503141403198242
0.4300758361816406,0.4421287536621094
0.4300758361816406,0.4421287536621094
0.4366384506225586,0.4480070114135742
0.4366384506225586,0.4480070114135742
0.4301662445068359,0.4466434478759765
0.4301662445068359,0.4466434478759765
0.4355724334716797,0.4447654724121093
0.4355724334716797,0.4447654724121093
0.4355712890625000,0.4509412765502929
0.4355712890625000,0.4509412765502929
0.4313592910766602,0.4455167770385742
0.4313592910766602,0.4455167770385742
0.4385421752929687,0.4523071289062500
0.4385421752929687,0.4523071289062500
0.4339702606201172,0.4524501800537109
0.4339702606201172,0.4524501800537109
0.4376810073852539,0.4515174865722656
0.4376810073852539,0.4515174865722656
0.4395486831665039,0.4605966567993164
0.4395486831665039,0.4605966567993164
0.4363792419433594,0.4570529937744141
0.4426986694335938,0.4570529937744141
0.4373760223388672,0.4659793853759766
0.4403783798217774,0.4659793853759766
0.4394960403442383,0.4668268203735351
0.4394960403442383,0.4668268203735351
0.4448816299438477,0.4675374984741211
0.4448816299438477,0.4675374984741211
0.4466594696044922,0.4760662078857422
0.4466594696044922,0.4760662078857422
0.4444799423217773,0.4717254638671875
0.4444799423217773,0.4717254638671875
0.4508686065673828,0.4783985137939453
0.4508686065673828,0.4783985137939453
0.4447311401367187,0.4783504486083984
0.4447311401367187,0.4783504486083984
0.4493288040161132,0.4772100448608398
0.4493288040161132,0.4772100448608398
0.4515798568725586,0.4841623306274414
0.4515798568725586,0.4841623306274414
0.4462594985961914,0.4775859832763671
0.4462594985961914,0.4775859832763671
0.4533502578735351,0.4843397140502930
0.4533502578735351,0.4843397140502930
0.4467418670654297,0.4831438064575195
0.4467418670654297,0.4831438064575195
0.4527231216430664,0.4816022872924804
0.4527231216430664,0.4816022872924804
0.4520742416381835,0.4873912811279297
0.4520742416381835,0.4873912811279297
0.4478816986083984,0.4817407608032226
0.4478816986083984,0.4817407608032226
0.4547069549560547,0.4879051208496094
0.4547069549560547,0.4879051208496094
0.4496200561523437,0.4868179321289062
0.4496200561523437,0.4868179321289062
0.4528896331787109,0.4843357086181641
0.4528896331787109,0.4843357086181641
0.4534418106079101,0.4910345077514648
0.4534418106079101,0.4910345077514648
0.4491313934326172,0.4848014831542968
0.4491313934326172,0.4848014831542968
0.4576332092285156,0.4911849975585937
0.4576332092285156,0.4911849975585937
0.4495737075805664,0.4891977310180664
0.4495737075805664,0.4891977310180664
0.4543109893798828,0.4876562118530273
0.4543109893798828,0.4876562118530273
0.4545518875122070,0.4937862396240234
0.4545518875122070,0.4937862396240234
0.4516983032226562,0.4877271652221680
0.4516983032226562,0.4877271652221680
0.4574495315551758,0.4930469512939453
0.4574495315551758,0.4930469512939453
0.4505292892456054,0.4918865203857422
0.4505292892456054,0.4918865203857422
0.4553180694580078,0.4900920867919922
0.4553180694580078,0.4900920867919922
0.4569820404052734,0.4962953567504882
0.4569820404052734,0.4962953567504882
0.4513875961303710,0.4891473770141601
0.4513875961303710,0.4891473770141601
0.4582740783691406,0.4955595016479492
0.4582740783691406,0.4955595016479492
0.4512130737304687,0.4938365936279296
0.4512130737304687,0.4938365936279296
0.4573957443237304,0.4915540695190430
0.4573957443237304,0.4915540695190430
0.4555206298828125,0.4953374862670898
0.4555206298828125,0.4953374862670898
0.4498008728027343,0.4853610992431641
0.4498008728027343,0.4853610992431641
0.4540803909301758,0.4846647262573242
0.4540803909301758,0.4846647262573242
0.4445915222167969,0.4743169784545898
0.4445915222167969,0.4743169784545898
0.4443426132202148,0.4629083633422851
0.4443426132202148,0.4629083633422851
0.4406324386596679,0.4616237640380859
0.4406324386596679,0.4616237640380859
0.4335777282714844,0.4499547958374023
0.4335777282714844,0.4499547958374023
0.4400487899780273,0.4525371551513672
0.4400487899780273,0.4525371551513672
0.4307916641235351,0.4480339050292969
0.4307916641235351,0.4480339050292969
0.4352674484252930,0.4455442428588867
0.4352674484252930,0.4455442428588867
0.4348171234130859,0.4508056640625000
0.4348171234130859,0.4508056640625000
0.4320116043090820,0.4447608947753906
0.4320116043090820,0.4447608947753906
0.4380243301391601,0.4507295608520507
0.4380243301391601,0.4507295608520507
0.4314153671264648,0.4501487731933593
0.4314153671264648,0.4501487731933593
0.4370361328125000,0.4495084762573242
0.4370361328125000,0.4495084762573242
0.4387870788574219,0.4569974899291992
0.4387870788574219,0.4569974899291992
0.4343902587890625,0.4519855499267578
0.4343902587890625,0.4519855499267578
0.4424394607543945,0.4608667373657226
0.4424394607543945,0.4608667373657226
0.4365074157714844,0.4620162963867187
0.4365074157714844,0.4620162963867187
0.4445137023925781,0.4635177612304687
0.4445137023925781,0.4635177612304687
0.4442808151245117,0.4713666915893555
0.4442808151245117,0.4713666915893555
0.4416172027587891,0.4679363250732422
0.4416172027587891,0.4679363250732422
0.4495016098022461,0.4762596130371093
0.4495016098022461,0.4762596130371093
0.4445354461669922,0.4765291213989258
0.4445354461669922,0.4765291213989258
0.4492773056030273,0.4756193161010742
0.4445560455322266,0.4756193161010742
0.4493093490600586,0.4824485778808594
0.4493093490600586,0.4824485778808594
0.4455791473388672,0.4767728805541992
0.4455791473388672,0.4767728805541992
0.4542772293090820,0.4836524963378906
0.4542772293090820,0.4836524963378906
0.4459751129150391,0.4818065643310547
0.4459751129150391,0.4818065643310547
0.4517257690429687,0.4811101913452148
0.4517257690429687,0.4811101913452148
0.4511976242065430,0.4869775772094727
0.4511976242065430,0.4869775772094727
0.4488767623901367,0.4810003280639648
0.4488767623901367,0.4810003280639648
0.4546760559082031,0.4868608474731445
0.4546760559082031,0.4868608474731445
0.4475692749023437,0.4857633590698242
0.4475692749023437,0.4857633590698242
0.4530378341674804,0.4846012115478515
0.4530378341674804,0.4846012115478515
0.4540300369262695,0.4905126571655273
0.4540300369262695,0.4905126571655273
0.4489803314208984,0.4835500717163086
0.4489803314208984,0.4835500717163086
0.4559749603271484,0.4902231216430664
0.4559749603271484,0.4902231216430664
0.4487445831298828,0.4886981964111328
0.4487445831298828,0.4886981964111328
0.4557752609252930,0.4877397537231445
0.4557752609252930,0.4877397537231445
0.4538446426391601,0.4926258087158203
0.4538446426391601,0.4926258087158203
0.4501516342163085,0.4866405487060547
0.4501516342163085,0.4866405487060547
0.4569980621337890,0.4928455352783203
0.4569980621337890,0.4928455352783203
0.4511936187744141,0.4914093017578125
0.4511936187744141,0.4914093017578125
0.4555830001831054,0.4895977020263672
0.4555830001831054,0.4895977020263672
0.4548900604248047,0.4953998565673828
0.4548900604248047,0.4953998565673828
0.4511272430419921,0.4889144897460938
0.4511272430419921,0.4889144897460938
0.4594236373901367,0.4952785491943359
0.4594236373901367,0.4952785491943359
0.4508914947509766,0.4929239273071289
0.4508914947509766,0.4929239273071289
0.4564802169799804,0.4920467376708984
0.4564802169799804,0.4920467376708984
0.4555898666381836,0.4973419189453125
0.4555898666381836,0.4973419189453125
0.4533210754394531,0.4911066055297851
0.4533210754394531,0.4911066055297851
0.4588468551635742,0.4963371276855468
0.4588468551635742,0.4963371276855468
0.4513715744018554,0.4945009231567383
0.4513715744018554,0.4945009231567383
0.4564298629760742,0.4920410156250000
0.4564298629760742,0.4920410156250000
0.4557981491088867,0.4942405700683594
0.4557981491088867,0.4942405700683594
0.4484401702880859,0.4811405181884765
0.4484401702880859,0.4811405181884765
0.4518018722534179,0.4792676925659179
0.4518018722534179,0.4792676925659179
0.4408395767211914,0.4691459655761718
0.4408395767211914,0.4691459655761718
0.4443775177001953,0.4610080718994141
0.4443775177001953,0.4610080718994141
0.4394159317016602,0.4600273132324219
0.4394159317016602,0.4600273132324219
0.4340097427368164,0.4501235961914062
0.4340097427368164,0.4501235961914062
0.4393918991088867,0.4539264678955078
0.4393918991088867,0.4539264678955078
0.4329013824462891,0.4511638641357422
0.4329013824462891,0.4511638641357422
0.4372100830078125,0.4490879058837891
0.4372100830078125,0.4490879058837891
0.4363071441650391,0.4548379898071289
0.4363071441650391,0.4548379898071289
0.4330747604370117,0.4489213943481445
0.4330747604370117,0.4489213943481445
0.4416097640991211,0.4562719345092773
0.4416097640991211,0.4562719345092773
0.4337465286254883,0.4551057815551758
0.4337465286254883,0.4551057815551758
0.4401975631713867,0.4562965393066406
0.4401975631713867,0.4562965393066406
0.4401346206665039,0.4637334823608398
0.4401346206665039,0.4637334823608398
0.4392328262329102,0.4600444793701172
0.4392328262329102,0.4600444793701172
0.4459648132324219,0.4683477401733398
0.4459648132324219,0.4683477401733398
0.4400310516357422,0.4694732666015625
0.4400310516357422,0.4694732666015625
0.4468236923217773,0.4711807250976562
0.4421567916870117,0.4711807250976562
0.4481792449951172,0.4786577224731445
0.4481792449951172,0.4786577224731445
0.4444759368896484,0.4732904434204102
0.4444759368896484,0.4732904434204102
0.4516908645629882,0.4811262130737304
0.4516908645629882,0.4811262130737304
0.4449228286743164,0.4800075531005859
0.4449228286743164,0.4800075531005859
0.4523380279541016,0.4802347183227539
0.4523380279541016,0.4802347183227539
0.4503049850463867,0.4852609634399414
0.4503049850463867,0.4852609634399414
0.4472991943359375,0.4795377731323242
0.4472991943359375,0.4795377731323242
0.4539602279663086,0.4861587524414062
0.4539602279663086,0.4861587524414062
0.4483114242553711,0.4845926284790039
0.4483114242553711,0.4845926284790039
0.4528615951538086,0.4835723876953125
0.4528615951538086,0.4835723876953125
0.4518321990966797,0.4893619537353515
0.4518321990966797,0.4893619537353515
0.4486913681030273,0.4831495285034180
0.4486913681030273,0.4831495285034180
0.4567571640014648,0.4896835327148437
0.4567571640014648,0.4896835327148437
0.4484453201293945,0.4870405197143555
0.4484453201293945,0.4870405197143555
0.4542434692382812,0.4870948791503906
0.4542434692382812,0.4870948791503906
0.4529891967773437,0.4922201156616210
0.4529891967773437,0.4922201156616210
0.4513257980346679,0.4862308502197266
0.4513257980346679,0.4862308502197266
0.4566352844238281,0.4919380187988281
0.4566352844238281,0.4919380187988281
0.4495731353759765,0.4900388717651367
0.4495731353759765,0.4900388717651367
0.4553730010986328,0.4897647857666015
0.4553730010986328,0.4897647857666015
0.4555286407470703,0.4951520919799804
0.4555286407470703,0.4951520919799804
0.4512165069580078,0.4880584716796875
0.4512165069580078,0.4880584716796875
0.4577350616455078,0.4947229385375976
0.4577350616455078,0.4947229385375976
0.4506099700927734,0.4923271179199218
0.4506099700927734,0.4923271179199218
0.4578374862670898,0.4923660278320312
0.4578374862670898,0.4923660278320312
0.4552219390869141,0.4967290878295898
0.4552219390869141,0.4967290878295898
0.4522384643554687,0.4908170700073242
0.4522384643554687,0.4908170700073242
0.4585687637329101,0.4969808578491210
0.4585687637329101,0.4969808578491210
0.4529880523681640,0.4946245193481445
0.4529880523681640,0.4946245193481445
0.4574289321899414,0.4938154220581055
0.4574289321899414,0.4938154220581055
0.4560144424438476,0.4990493774414062
0.4560144424438476,0.4990493774414062
0.4528564453125000,0.4924209594726562
0.4528564453125000,0.4924209594726562
0.4602481842041015,0.4980497360229492
0.4602481842041015,0.4980497360229492
0.4511724472045898,0.4922779083251953
0.4511724472045898,0.4922779083251953
0.4548746109008789,0.4873043060302734
0.4548746109008789,0.4873043060302734
0.4501058578491210,0.4840307235717773
0.4501058578491210,0.4840307235717773
0.4445154190063477,0.4683872222900390
0.4445154190063477,0.4683872222900390
0.4452964782714844,0.4649997711181640
0.4452964782714844,0.4649997711181640
0.4347896575927734,0.4553901672363281
0.4347896575927734,0.4553901672363281
0.4379648208618164,0.4504314422607422
0.4379648208618164,0.4504314422607422
0.4361846923828125,0.4523557662963867
0.4361846923828125,0.4523557662963867
0.4312139511108398,0.4434316635131836
0.4314502716064453,0.4517641067504883
0.4368558883666992,0.4489351272583008
0.4298131942749023,0.4489351272583008
0.4296838760375977,0.4454778671264648
0.4296838760375977,0.4454778671264648
0.4366493225097656,0.4457262039184570
0.4366493225097656,0.4457262039184570
0.4341453552246093,0.4502998352050781
0.4341453552246093,0.4502998352050781
0.4315835952758789,0.4448163986206055
0.4315835952758789,0.4448163986206055
0.4379642486572266,0.4517967224121093
0.4379642486572266,0.4517967224121093
0.4329608917236328,0.4499639511108398
0.4329608917236328,0.4499639511108398
0.4381605148315429,0.4511329650878906
0.4381605148315429,0.4511329650878906
0.4375213623046875,0.4584423065185547
0.4375213623046875,0.4584423065185547
0.4358739852905273,0.4546108245849609
0.4405014038085938,0.4546108245849609
0.4444862365722656,0.4639778137207031
0.4371683120727539,0.4639778137207031
0.4378761291503906,0.4629878997802734
0.4378761291503906,0.4629878997802734
0.4448484420776367,0.4665006637573242
0.4448484420776367,0.4665006637573242
0.4445108413696289,0.4739570617675781
0.4445108413696289,0.4739570617675781
0.4441268920898437,0.4699035644531250
0.4441268920898437,0.4699035644531250
0.4496841430664062,0.4772907257080078
0.4496841430664062,0.4772907257080078
0.4437154769897461,0.4755563735961914
0.4437154769897461,0.4755563735961914
0.4497871398925781,0.4770566940307617
0.4497871398925781,0.4770566940307617
0.4498746871948242,0.4829355239868164
0.4498746871948242,0.4829355239868164
0.4463859558105469,0.4766263961791992
0.4463859558105469,0.4766263961791992
0.4525583267211914,0.4837446212768555
0.4525583267211914,0.4837446212768555
0.4459779739379883,0.4807353973388672
0.4459779739379883,0.4807353973388672
0.4531997680664062,0.4818626403808594
0.4531997680664062,0.4818626403808594
0.4504880905151367,0.4865266799926757
0.4504880905151367,0.4865266799926757
0.4480562210083008,0.4808498382568359
0.4480562210083008,0.4808498382568359
0.4539310455322265,0.4875514984130859
0.4539310455322265,0.4875514984130859
0.4488578796386719,0.4844421386718750
0.4488578796386719,0.4844421386718750
0.4534235000610352,0.4846858978271484
0.4534235000610352,0.4846858978271484
0.4519014358520508,0.4902276992797852
0.4519014358520508,0.4902276992797852
0.4494455337524414,0.4841480255126953
0.4494455337524414,0.4841480255126953
0.4566970825195312,0.4910150527954101
0.4566970825195312,0.4910150527954101
0.4490718841552734,0.4868877410888672
0.4490718841552734,0.4868877410888672
0.4547927856445312,0.4880126953125000
0.4547927856445312,0.4880126953125000
0.4530830383300781,0.4931430816650391
0.4530830383300781,0.4931430816650391
0.4520999908447265,0.4871641159057617
0.4520999908447265,0.4871641159057617
0.4567565917968750,0.4930938720703125
0.4567565917968750,0.4930938720703125
0.4500772476196289,0.4896709442138671
0.4500772476196289,0.4896709442138671
0.4557764053344726,0.4905441284179687
0.4557764053344726,0.4905441284179687
0.4554656982421875,0.4957786560058594
0.4554656982421875,0.4957786560058594
0.4520164489746094,0.4889007568359375
0.4520164489746094,0.4889007568359375
0.4576520919799805,0.4957614898681640
0.4576520919799805,0.4957614898681640
0.4510477066040039,0.4919059753417969
0.4510477066040039,0.4919059753417969
0.4581241607666016,0.4928472518920898
0.4581241607666016,0.4928472518920898
0.4549541473388672,0.4968309402465820
0.4549541473388672,0.4968309402465820
0.4522859573364257,0.4898540496826171
0.4522859573364257,0.4898540496826171
0.4568618774414062,0.4937353134155273
0.4568618774414062,0.4937353134155273
0.4495004653930664,0.4844329833984375
0.4495004653930664,0.4844329833984375
0.4505281448364258,0.4759265899658203
0.4505281448364258,0.4759265899658203
0.4446086883544922,0.4717008590698242
0.4446086883544922,0.4717008590698242
0.4380249023437500,0.4564189910888672
0.4380249023437500,0.4564189910888672
0.4414850234985351,0.4564750671386719
0.4414850234985351,0.4564750671386719
0.4313535690307617,0.4468734741210937
0.4313535690307617,0.4468734741210937
0.4355072021484375,0.4449811935424804
0.4355072021484375,0.4449811935424804
0.4326890945434570,0.4478982925415039
0.4326890945434570,0.4478982925415039
0.4312145233154297,0.4408081054687500
0.4312145233154297,0.4408081054687500
0.4354236602783203,0.4461914062500000
0.4354236602783203,0.4461914062500000
0.4287940979003906,0.4422809600830078
0.4287940979003906,0.4422809600830078
0.4345739364624023,0.4436639785766601
0.4345739364624023,0.4436639785766601
0.4343770980834961,0.4491188049316406
0.4343770980834961,0.4491188049316406
0.4314691543579102,0.4429653167724609
0.4314691543579102,0.4429653167724609
0.4374320983886719,0.4510557174682617
0.4374320983886719,0.4510557174682617
0.4313867568969726,0.4482336044311523
0.4313867568969726,0.4482336044311523
0.4393238067626953,0.4516994476318359
0.4393238067626953,0.4516994476318359
0.4374956130981445,0.4584285736083984
0.4374956130981445,0.4584285736083984
0.4368335723876953,0.4553701400756835
0.4368335723876953,0.4553701400756835
0.4435146331787109,0.4650197982788086
0.4435146331787109,0.4650197982788086
0.4395149230957031,0.4638742446899414
0.4395149230957031,0.4638742446899414
0.4453594207763672,0.4669876098632812
0.4453594207763672,0.4669876098632812
0.4446630477905273,0.4742408752441406
0.4446630477905273,0.4742408752441406
0.4434322357177734,0.4697822570800781
0.4434322357177734,0.4697822570800781
0.4507816314697266,0.4781232833862304
0.4507816314697266,0.4781232833862304
0.4435415267944336,0.4741481781005859
0.4435415267944336,0.4741481781005859
0.4496383666992188,0.4765542984008789
0.4496383666992188,0.4765542984008789
0.4480504989624023,0.4820045471191406
0.4480504989624023,0.4820045471191406
0.4477661132812500,0.4763740539550781
0.4477661132812500,0.4763740539550781
0.4520009994506836,0.4829721450805664
0.4520009994506836,0.4829721450805664
0.4455694198608398,0.4791458129882812
0.4455694198608398,0.4791458129882812
0.4513961791992187,0.4807977676391602
0.4513961791992187,0.4807977676391602
0.4511192321777344,0.4860649108886719
0.4511192321777344,0.4860649108886719
0.4482175827026367,0.4794204711914062
0.4482175827026367,0.4794204711914062
0.4535968780517578,0.4868619918823242
0.4535968780517578,0.4868619918823242
0.4470365524291992,0.4827346801757812
0.4470365524291992,0.4827346801757812
0.4542102813720703,0.4844490051269531
0.4542102813720703,0.4844490051269531
0.4512680053710937,0.4887931823730469
0.4512680053710937,0.4887931823730469
0.4496549606323242,0.4829881668090820
0.4496549606323242,0.4829881668090820
0.4549180984497070,0.4901527404785156
0.4549180984497070,0.4901527404785156
0.4496498107910156,0.4860237121582031
0.4496498107910156,0.4860237121582031
0.4542749404907226,0.4869146347045898
0.4486404418945312,0.4869146347045898
0.4525789260864257,0.4921028137207031
0.4525789260864257,0.4921028137207031
0.4508594512939453,0.4858972549438476
0.4508594512939453,0.4858972549438476
0.4574970245361328,0.4930475234985351
0.4574970245361328,0.4930475234985351
0.4496137619018555,0.4879812240600586
0.4496137619018555,0.4879812240600586
0.4554353713989258,0.4898214340209961
0.4554353713989258,0.4898214340209961
0.4534772872924804,0.4945547103881835
0.4534772872924804,0.4945547103881835
0.4533256530761718,0.4885036468505859
0.4533256530761718,0.4885036468505859
0.4572555541992187,0.4948242187500000
0.4572555541992187,0.4948242187500000
0.4504491806030273,0.4903919219970703
0.4504491806030273,0.4903919219970703
0.4562341690063476,0.4917154312133789
0.4503587722778320,0.4917154312133789
0.4553535461425781,0.4956911087036133
0.4553535461425781,0.4956911087036133
0.4517114639282226,0.4867263793945312
0.4517114639282226,0.4867263793945312
0.4549129486083984,0.4890563964843750
0.4549129486083984,0.4890563964843750
0.4450012207031250,0.4760599136352539
0.4450012207031250,0.4760599136352539
0.4479686737060547,0.4682819366455078
0.4479686737060547,0.4682819366455078
0.4405357360839844,0.4629215240478515
0.4405357360839844,0.4629215240478515
0.4353755950927734,0.4496915817260742
0.4353755950927734,0.4496915817260742
0.4377588272094726,0.4514253616333008
0.4377588272094726,0.4514253616333008
0.4305433273315429,0.4433973312377930
0.4305433273315429,0.4433973312377930
0.4342151641845703,0.4423679351806640
0.4342151641845703,0.4423679351806640
0.4317323684692383,0.4458549499511719
0.4317323684692383,0.4458549499511719
0.4299167633056640,0.4390256881713867
0.4299167633056640,0.4390256881713867
0.4361143112182617,0.4460517883300781
0.4361143112182617,0.4460517883300781
0.4283975601196289,0.4408658981323242
0.4283975601196289,0.4408658981323242
0.4344652175903320,0.4431558609008789
0.4287803649902344,0.4431558609008789
0.4326787948608398,0.4482959747314453
0.4326787948608398,0.4482959747314453
0.4329288482666016,0.4431661605834961
0.4329288482666016,0.4431661605834961
0.4374023437500000,0.4509429931640625
0.4374023437500000,0.4509429931640625
0.4314851760864258,0.4482170104980469
0.4314851760864258,0.4482170104980469
0.4382995605468750,0.4522161483764648
0.4382995605468750,0.4522161483764648
0.4388271331787109,0.4596450805664062
0.4388271331787109,0.4596450805664062
0.4378017425537109,0.4557529449462890
0.4378017425537109,0.4557529449462890
0.4440341949462890,0.4659919738769531
0.4440341949462890,0.4659919738769531
0.4385461807250977,0.4638679504394531
0.4385461807250977,0.4638679504394531
0.4467933654785156,0.4682098388671875
0.4467933654785156,0.4682098388671875
0.4445428848266602,0.4738666534423828
0.4445428848266602,0.4738666534423828
0.4439529418945312,0.4696397781372070
0.4439529418945312,0.4696397781372070
0.4493888854980468,0.4777679443359375
0.4493888854980468,0.4777679443359375
0.4444559097290039,0.4741441726684570
0.4444559097290039,0.4741441726684570
0.4494947433471679,0.4759265899658203
0.4494947433471679,0.4759265899658203
0.4476087570190430,0.4811737060546875
0.4476087570190430,0.4811737060546875
0.4466543197631836,0.4755346298217773
0.4466543197631836,0.4755346298217773
0.4529977798461914,0.4830654144287109
0.4529977798461914,0.4830654144287109
0.4452930450439453,0.4781095504760742
0.4452930450439453,0.4781095504760742
0.4513458251953125,0.4803857803344727
0.4513458251953125,0.4803857803344727
0.4491846084594727,0.4849994659423828
0.4491846084594727,0.4849994659423828
0.4495513916015625,0.4794467926025390
0.4495513916015625,0.4794467926025390
0.4533760070800781,0.4860952377319336
0.4533760070800781,0.4860952377319336
0.4468740463256836,0.4818471908569336
0.4468740463256836,0.4818471908569336
0.4527013778686523,0.4839437484741211
0.4527013778686523,0.4839437484741211
0.4519935607910156,0.4886032104492187
0.4519935607910156,0.4886032104492187
0.4498546600341797,0.4822975158691406
0.4498546600341797,0.4822975158691406
0.4548345565795898,0.4897579193115234
0.4548345565795898,0.4897579193115234
0.4481924057006836,0.4850595474243164
0.4481924057006836,0.4850595474243164
0.4555257797241211,0.4873100280761719
0.4555257797241211,0.4873100280761719
0.4520267486572265,0.4909549713134765
0.4520267486572265,0.4909549713134765
0.4511363983154297,0.4854394912719726
0.4511363983154297,0.4854394912719726
0.4558834075927734,0.4924003601074218
0.4558834075927734,0.4924003601074218
0.4506500244140625,0.4879131317138672
0.4506500244140625,0.4879131317138672
0.4553752899169922,0.4891862869262695
0.4553752899169922,0.4891862869262695
0.4529846191406250,0.4937192916870117
0.4529846191406250,0.4937192916870117
0.4516839981079102,0.4877660751342773
0.4516839981079102,0.4955497741699219
0.4582569122314453,0.4948671340942383
0.4514276504516601,0.4948671340942383
0.4504056930541992,0.4891937255859375
0.4504056930541992,0.4891937255859375
0.4560224533081054,0.4911678314208984
0.4560224533081054,0.4911678314208984
0.4530561447143555,0.4942028045654296
0.4530561447143555,0.4942028045654296
0.4526115417480469,0.4854858398437500
0.4526115417480469,0.4854858398437500
0.4537433624267578,0.4855768203735351
0.4461261749267578,0.4855768203735351
0.4434797286987305,0.4718725204467773
0.4434797286987305,0.4718725204467773
0.4449720382690430,0.4641157150268554
0.4449720382690430,0.4641157150268554
0.4394691467285156,0.4596210479736328
0.4394691467285156,0.4596210479736328
0.4346168518066406,0.4467842102050781
0.4346168518066406,0.4467842102050781
0.4369394302368164,0.4493785858154297
0.4369394302368164,0.4493785858154297
0.4289388656616211,0.4417613983154297
0.4289388656616211,0.4417613983154297
0.4353034973144531,0.4423238754272461
0.4276399612426758,0.4423238754272461
0.4310405731201172,0.4449142456054687
0.4310405731201172,0.4449142456054687
0.4303813934326172,0.4391510009765625
0.4303813934326172,0.4391510009765625
0.4350540161132813,0.4458927154541015
0.4350540161132813,0.4458927154541015
0.4298555374145508,0.4415805816650391
0.4298555374145508,0.4415805816650391
0.4349693298339843,0.4436388015747070
0.4349693298339843,0.4436388015747070
0.4325923919677734,0.4486650466918945
0.4325923919677734,0.4486650466918945
0.4326038360595703,0.4441743850708008
0.4326038360595703,0.4441743850708008
0.4392311096191406,0.4527614593505859
0.4392311096191406,0.4527614593505859
0.4326822280883789,0.4495937347412109
0.4326822280883789,0.4495937347412109
0.4398141860961914,0.4546102523803711
0.4398141860961914,0.4546102523803711
0.4380140304565430,0.4614938735961914
0.4380140304565430,0.4614938735961914
0.4403972625732422,0.4590345382690429
0.4403972625732422,0.4590345382690429
0.4452529907226562,0.4679317474365234
0.4452529907226562,0.4679317474365234
0.4398330688476562,0.4658294677734375
0.4398330688476562,0.4658294677734375
0.4467704772949219,0.4698675155639648
0.4467704772949219,0.4698675155639648
0.4456151962280273,0.4755661010742187
0.4456151962280273,0.4755661010742187
0.4449554443359375,0.4707601547241211
0.4449554443359375,0.4707601547241211
0.4500709533691406,0.4786520004272461
0.4500709533691406,0.4786520004272461
0.4438207626342773,0.4744617462158203
0.4438207626342773,0.4744617462158203
0.4512891769409180,0.4773193359375000
0.4512891769409180,0.4773193359375000
0.4471624374389648,0.4810300827026367
0.4471624374389648,0.4810300827026367
0.4472591400146484,0.4762504577636719
0.4472591400146484,0.4762504577636719
0.4519901275634766,0.4832433700561523
0.4519901275634766,0.4832433700561523
0.4469026565551757,0.4788265228271484
0.4469026565551757,0.4788265228271484
0.4518276214599609,0.4806209564208984
0.4518276214599609,0.4806209564208984
0.4487154006958008,0.4850566864013672
0.4487154006958008,0.4850566864013672
0.4488218307495117,0.4798765182495117
0.4488218307495117,0.4798765182495117
0.4548231124877929,0.4868894577026367
0.4548231124877929,0.4868894577026367
0.4472980499267578,0.4816669464111328
0.4472980499267578,0.4816669464111328
0.4534189224243164,0.4843242645263672
0.4534189224243164,0.4843242645263672
0.4499902725219727,0.4883663177490234
0.4499902725219727,0.4883663177490234
0.4514253616333008,0.4833429336547851
0.4514253616333008,0.4833429336547851
0.4550823211669922,0.4894735336303710
0.4550823211669922,0.4894735336303710
0.4486753463745117,0.4849451065063476
0.4486753463745117,0.4849451065063476
0.4546754837036133,0.4872585296630859
0.4546754837036133,0.4872585296630859
0.4524845123291015,0.4913658142089843
0.4524845123291015,0.4913658142089843
0.4515495300292969,0.4854572296142578
0.4515495300292969,0.4854572296142578
0.4562244415283203,0.4924306869506836
0.4562244415283203,0.4924306869506836
0.4496829986572266,0.4874593734741210
0.4496829986572266,0.4874593734741210
0.4570587158203125,0.4899398803710937
0.4570587158203125,0.4899398803710937
0.4522447586059570,0.4930984497070312
0.4522447586059570,0.4930984497070312
0.4526201248168945,0.4881769180297851
0.4526201248168945,0.4881769180297851
0.4571834564208984,0.4947137832641602
0.4571834564208984,0.4947137832641602
0.4519809722900390,0.4898031234741211
0.4519809722900390,0.4898031234741211
0.4568435668945312,0.4913337707519531
0.4568435668945312,0.4913337707519531
0.4529325485229492,0.4948740005493164
0.4529325485229492,0.4948740005493164
0.4527843475341797,0.4885837554931640
0.4527843475341797,0.4885837554931640
0.4576406478881836,0.4924020767211914
0.4576406478881836,0.4924020767211914
0.4476757049560547,0.4810232162475586
0.4476757049560547,0.4810232162475586
0.4502300262451172,0.4749332427978515
0.4502300262451172,0.4749332427978515
0.4423702239990234,0.4693004608154296
0.4444067001342774,0.4693004608154296
0.4400356292724609,0.4559978485107422
0.4400356292724609,0.4559978485107422
0.4404327392578125,0.4554983139038086
0.4339021682739257,0.4554983139038086
0.4317232131958008,0.4465015411376953
0.4317232131958008,0.4465015411376953
0.4362957000732422,0.4459041595458984
0.4362957000732422,0.4459041595458984
0.4328435897827148,0.4480785369873047
0.4328435897827148,0.4480785369873047
0.4319086074829102,0.4417161941528320
0.4319086074829102,0.4417161941528320
0.4365406036376953,0.4484601974487304
0.4365406036376953,0.4484601974487304
0.4302223205566406,0.4438602447509766
0.4302223205566406,0.4438602447509766
0.4378835678100586,0.4471149444580078
0.4378835678100586,0.4471149444580078
0.4332572937011719,0.4510580062866211
0.4332572937011719,0.4510580062866211
0.4344812393188476,0.4476219177246094
0.4344812393188476,0.4476219177246094
0.4397077560424805,0.4559520721435547
0.4397077560424805,0.4559520721435547
0.4355409622192383,0.4534761428833007
0.4355409622192383,0.4534761428833007
0.4419828414916992,0.4579776763916015
0.4419828414916992,0.4579776763916015
0.4390829086303711,0.4645059585571289
0.4390829086303711,0.4645059585571289
0.4409706115722656,0.4623321533203125
0.4409706115722656,0.4623321533203125
0.4478542327880859,0.4716739654541016
0.4478542327880859,0.4716739654541016
0.4414930343627930,0.4682550430297852
0.4414930343627930,0.4682550430297852
0.4484762191772461,0.4725477218627929
0.4484762191772461,0.4725477218627929
0.4448896408081054,0.4773267745971679
0.4448896408081054,0.4773267745971679
0.4473890304565429,0.4736022949218750
0.4473890304565429,0.4736022949218750
0.4511455535888672,0.4801792144775390
0.4511455535888672,0.4801792144775390
0.4449914932250976,0.4761280059814453
0.4449914932250976,0.4761280059814453
0.4513538360595703,0.4789014816284179
0.4513538360595703,0.4789014816284179
0.4485219955444336,0.4827690124511719
0.4485219955444336,0.4827690124511719
0.4483411788940430,0.4776781082153320
0.4483411788940430,0.4776781082153320
0.4530138015747070,0.4847419738769531
0.4530138015747070,0.4847419738769531
0.4465427398681641,0.4799062728881835
0.4465427398681641,0.4799062728881835
0.4542240142822265,0.4827873229980468
0.4542240142822265,0.4827873229980468
0.4488515853881836,0.4856288909912109
0.4488515853881836,0.4856288909912109
0.4497144699096680,0.4813035964965820
0.4497144699096680,0.4813035964965820
0.4542354583740234,0.4879566192626953
0.4542354583740234,0.4879566192626953
0.4492532730102539,0.4834236145019531
0.4492532730102539,0.4834236145019531
0.4544540405273437,0.4853004455566406
0.4544540405273437,0.4853004455566406
0.4501728057861328,0.4889900207519531
0.4501728057861328,0.4889900207519531
0.4510139465332031,0.4843540191650391
0.4510139465332031,0.4843540191650391
0.4568641662597656,0.4912364959716797
0.4568641662597656,0.4912364959716797
0.4494083404541016,0.4856952667236328
0.4494083404541016,0.4856952667236328
0.4557867050170898,0.4884504318237304
0.4557867050170898,0.4884504318237304
0.4511569976806640,0.4915597915649414
0.4511569976806640,0.4915597915649414
0.4535951614379883,0.4871749877929688
0.4535951614379883,0.4871749877929688
0.4567880630493164,0.4931756973266601
0.4567880630493164,0.4931756973266601
0.4504514694213867,0.4884595870971680
0.4504514694213867,0.4884595870971680
0.4567628860473633,0.4908445358276367
0.4567628860473633,0.4908445358276367
0.4535259246826172,0.4941547393798828
0.4535259246826172,0.4941547393798828
0.4534069061279297,0.4889442443847656
0.4534069061279297,0.4889442443847656
0.4577676773071289,0.4956424713134766
0.4577676773071289,0.4956424713134766
0.4512680053710937,0.4906253814697266
0.4512680053710937,0.4906253814697266
0.4590557098388672,0.4931453704833984
0.4590557098388672,0.4931453704833984
0.4531431198120117,0.4954044342041015
0.4531431198120117,0.4954044342041015
0.4539316177368164,0.4906270980834961
0.4539316177368164,0.4906270980834961
0.4577796936035156,0.4958536148071289
0.4577796936035156,0.4958536148071289
0.4515237808227539,0.4875165939331054
0.4515237808227539,0.4875165939331054
0.4541507720947265,0.4828760147094726
0.4541507720947265,0.4828760147094726
0.4456935882568359,0.4768598556518555
0.4456935882568359,0.4768598556518555
0.4425727844238281,0.4626829147338867
0.4425727844238281,0.4626829147338867
0.4441623687744141,0.4609228134155273
0.4441623687744141,0.4609228134155273
0.4334260940551758,0.4489459991455078
0.4334260940551758,0.4489459991455078
0.4376981735229492,0.4473123550415039
0.4376981735229492,0.4473123550415039
0.4315664291381836,0.4473461151123047
0.4315664291381836,0.4473461151123047
0.4330787658691406,0.4412120819091797
0.4330787658691406,0.4412120819091797
0.4357498168945312,0.4462537765502930
0.4357498168945312,0.4462537765502930
0.4292530059814453,0.4410633087158203
0.4292530059814453,0.4410633087158203
0.4355958938598632,0.4432817459106445
0.4355958938598632,0.4432817459106445
0.4322273254394531,0.4466377258300781
0.4322273254394531,0.4466377258300781
0.4325180053710938,0.4419696807861328
0.4325180053710938,0.4419696807861328
0.4371883392333984,0.4494792938232422
0.4371883392333984,0.4494792938232422
0.4310811996459961,0.4454355239868164
0.4310811996459961,0.4454355239868164
0.4394599914550781,0.4495359420776367
0.4394599914550781,0.4495359420776367
0.4345355987548828,0.4538452148437500
0.4345355987548828,0.4538452148437500
0.4368850708007813,0.4523065567016601
0.4368850708007813,0.4523065567016601
0.4423610687255859,0.4617805480957031
0.4423610687255859,0.4617805480957031
0.4386011123657226,0.4597778320312500
0.4386011123657226,0.4597778320312500
0.4453531265258789,0.4643926620483398
0.4453531265258789,0.4643926620483398
0.4416481018066406,0.4698308944702148
0.4416481018066406,0.4698308944702148
0.4437372207641602,0.4673835754394531
0.4437372207641602,0.4673835754394531
0.4498918533325195,0.4758504867553711
0.4498918533325195,0.4758504867553711
0.4430591583251953,0.4713500976562500
0.4430591583251953,0.4713500976562500
0.4500406265258789,0.4749441146850586
0.4500406265258789,0.4749441146850586
0.4455087661743164,0.4783544540405273
0.4455087661743164,0.4783544540405273
0.4481706619262695,0.4746608734130859
0.4481706619262695,0.4746608734130859
0.4515632629394531,0.4811908721923828
0.4515632629394531,0.4811908721923828
0.4454263687133789,0.4766853332519531
0.4454263687133789,0.4766853332519531
0.4520221710205078,0.4795343399047851
0.4520221710205078,0.4795343399047851
0.4485506057739257,0.4825990676879883
0.4485506057739257,0.4825990676879883
0.4461044311523437,0.4848712921142578
0.4461044311523437,0.4809585571289062
0.4461044311523437,0.4809585571289062
0.4496395111083984,0.4799915313720703
0.4447734832763672,0.4799915313720703
0.4512708663940430,0.4856328964233398
0.4512708663940430,0.4856328964233398
0.4481643676757812,0.4797060012817382
0.4481643676757812,0.4797060012817382
0.4545970916748047,0.4858646392822266
0.4545970916748047,0.4858646392822266
0.4455614089965820,0.4844106674194336
0.4455614089965820,0.4844106674194336
0.4533388137817382,0.4835964202880859
0.4533388137817382,0.4835964202880859
0.4527729034423828,0.4889396667480468
0.4527729034423828,0.4889396667480468
0.4491422653198242,0.4826774597167969
0.4491422653198242,0.4826774597167969
0.4538057327270508,0.4888092041015625
0.4538057327270508,0.4888092041015625
0.4489562988281250,0.4874296188354492
0.4489562988281250,0.4874296188354492
0.4550514221191406,0.4864379882812500
0.4550514221191406,0.4864379882812500
0.4537439346313477,0.4916170120239258
0.4537439346313477,0.4916170120239258
0.4483285903930664,0.4853216171264648
0.4483285903930664,0.4853216171264648
0.4570444107055664,0.4914424896240234
0.4570444107055664,0.4914424896240234
0.4501659393310546,0.4898214340209961
0.4587404251098632,0.4898214340209961
0.4554439544677734,0.4885150909423828
0.4554439544677734,0.4885150909423828
0.4526762008666992,0.4937862396240234
0.4526762008666992,0.4937862396240234
0.4513612747192383,0.4875686645507812
0.4583679199218750,0.4932970046997070
0.4583679199218750,0.4932970046997070
0.4505201339721679,0.4910196304321289
0.4505201339721679,0.4910196304321289
0.4533988952636718,0.4882810592651367
0.4533988952636718,0.4882810592651367
0.4532003402709961,0.4893247604370117
0.4532003402709961,0.4893247604370117
0.4471384048461914,0.4757600784301758
0.4471384048461914,0.4757600784301758
0.4494197845458984,0.4719423294067382
0.4494197845458984,0.4719423294067382
0.4360296249389649,0.4603609085083007
0.4360296249389649,0.4603609085083007
0.4396265029907226,0.4511764526367187
0.4396265029907226,0.4511764526367187
0.4361017227172851,0.4503530502319336
0.4361017227172851,0.4503530502319336
0.4302635192871094,0.4399538040161133
0.4302635192871094,0.4399538040161133
0.4336252212524414,0.4431919097900390
0.4336252212524414,0.4431919097900390
0.4277589797973633,0.4399606704711914
0.4277589797973633,0.4399606704711914
0.4330060958862305,0.4381319046020508
0.4330060958862305,0.4381319046020508
0.4317432403564453,0.4424966812133789
0.4317432403564453,0.4424966812133789
0.4264755249023438,0.4360651016235351
0.4264755249023438,0.4360651016235351
0.4350379943847656,0.4423118591308594
0.4350379943847656,0.4423118591308594
0.4285577774047851,0.4407554626464844
0.4285577774047851,0.4407554626464844
0.4339965820312500,0.4403629302978516
0.4339965820312500,0.4403629302978516
0.4314416885375976,0.4459894180297851
0.4314416885375976,0.4459894180297851
0.4305742263793945,0.4409580230712891
0.4305742263793945,0.4409580230712891
0.4378875732421875,0.4485643386840820
0.4378875732421875,0.4485643386840820
0.4316848754882812,0.4487308502197265
0.4316848754882812,0.4487308502197265
0.4365251541137695,0.4505578994750976
0.4365251541137695,0.4505578994750976
0.4387624740600586,0.4585069656372070
0.4387624740600586,0.4585069656372070
0.4373170852661133,0.4552082061767578
0.4373170852661133,0.4552082061767578
0.4446149826049804,0.4639108657836914
0.4446149826049804,0.4639108657836914
0.4367626190185547,0.4642404556274414
0.4367626190185547,0.4642404556274414
0.4454057693481445,0.4657625198364257
0.4454057693481445,0.4657625198364257
0.4451911926269531,0.4723749160766602
0.4451911926269531,0.4723749160766602
0.4425292968750000,0.4672828674316406
0.4425292968750000,0.4672828674316406
0.4474628448486328,0.4743364334106445
0.4474628448486328,0.4743364334106445
0.4428840637207031,0.4732486724853515
0.4428840637207031,0.4732486724853515
0.4491531372070313,0.4732852935791015
0.4491531372070313,0.4732852935791015
0.4478845596313477,0.4786348342895508
0.4478845596313477,0.4786348342895508
0.4429218292236328,0.4727834701538086
0.4429218292236328,0.4727834701538086
0.4516502380371094,0.4793277740478515
0.4516502380371094,0.4793277740478515
0.4448673248291016,0.4775728225708007
0.4448673248291016,0.4775728225708007
0.4505670547485351,0.4772489547729492
0.4505670547485351,0.4772489547729492
0.4475475311279297,0.4825298309326171
0.4475475311279297,0.4825298309326171
0.4467407226562500,0.4768426895141601
0.4467407226562500,0.4768426895141601
0.4536918640136718,0.4831821441650390
0.4536918640136718,0.4831821441650390
0.4464311599731445,0.4813854217529296
0.4464311599731445,0.4813854217529296
0.4502002716064453,0.4811056137084961
0.4502002716064453,0.4811056137084961
0.4512697219848633,0.4864540100097656
0.4512697219848633,0.4864540100097656
0.4484813690185547,0.4805162429809570
0.4484813690185547,0.4805162429809570
0.4547407150268554,0.4865512847900391
0.4547407150268554,0.4865512847900391
0.4460140228271484,0.4845674514770508
0.4460140228271484,0.4845674514770508
0.4537473678588867,0.4844890594482422
0.4537473678588867,0.4844890594482422
0.4530710220336914,0.4894866943359375
0.4530710220336914,0.4894866943359375
0.4496646881103515,0.4834259033203125
0.4539236068725586,0.4834259033203125
0.4539030075073242,0.4894100189208984
0.4539030075073242,0.4894100189208984
0.4492406845092773,0.4873558044433594
0.4492406845092773,0.4873558044433594
0.4550394058227539,0.4870656967163086
0.4550394058227539,0.4870656967163086
0.4537221908569335,0.4918327331542969
0.4537221908569335,0.4918327331542969
0.4486209869384766,0.4856620788574219
0.4486209869384766,0.4856620788574219
0.4570306777954101,0.4916948318481445
0.4570306777954101,0.4916948318481445
0.4504280090332031,0.4889665603637695
0.4504280090332031,0.4889665603637695
0.4550233840942383,0.4874502182006836
0.4550233840942383,0.4874502182006836
0.4505950927734375,0.4888229370117188
0.4505950927734375,0.4888229370117188
0.4473089218139648,0.4764123916625976
0.4473089218139648,0.4764123916625976
0.4496898651123047,0.4730501174926758
0.4496898651123047,0.4730501174926758
0.4383996963500976,0.4604204177856445
0.4383996963500976,0.4604204177856445
0.4379550933837891,0.4514545440673828
0.4379550933837891,0.4514545440673828
0.4354854583740234,0.4498912811279297
0.4354854583740234,0.4498912811279297
0.4305845260620117,0.4392585754394531
0.4305845260620117,0.4392585754394531
0.4349252700805664,0.4423948287963867
0.4349252700805664,0.4423948287963867
0.4253980636596680,0.4379665374755859
0.4253980636596680,0.4379665374755859
0.4324298858642578,0.4368919372558593
0.4324298858642578,0.4368919372558593
0.4310222625732422,0.4412246704101562
0.4310222625732422,0.4412246704101562
0.4279066085815429,0.4346906661987305
0.4279066085815429,0.4346906661987305
0.4322565078735351,0.4407697677612304
0.4322565078735351,0.4407697677612304
0.4274551391601563,0.4385444641113281
0.4274551391601563,0.4385444641113281
0.4337488174438476,0.4389095306396484
0.4337488174438476,0.4389095306396484
0.4322828292846679,0.4443334579467773
0.4322828292846679,0.4443334579467773
0.4280525207519531,0.4391298294067383
0.4280525207519531,0.4391298294067383
0.4368421554565430,0.4470903396606445
0.4368421554565430,0.4470903396606445
0.4312082290649414,0.4466188430786133
0.4312082290649414,0.4466188430786133
0.4377851486206055,0.4491062164306641
0.4377851486206055,0.4491062164306641
0.4359231948852539,0.4567949295043945
0.4359231948852539,0.4567949295043945
0.4365045547485352,0.4538789749145508
0.4365045547485352,0.4538789749145508
0.4442436218261719,0.4627853393554687
0.4442436218261719,0.4627853393554687
0.4382944107055664,0.4624517440795898
0.4382944107055664,0.4624517440795898
0.4429172515869140,0.4645477294921875
0.4429172515869140,0.4645477294921875
0.4443134307861328,0.4711063385009766
0.4443134307861328,0.4711063385009766
0.4423433303833008,0.4664148330688476
0.4423433303833008,0.4664148330688476
0.4487033843994140,0.4733299255371093
0.4487033843994140,0.4733299255371093
0.4404596328735351,0.4713752746582031
0.4404596328735351,0.4713752746582031
0.4483926773071289,0.4722335815429687
0.4483926773071289,0.4722335815429687
0.4476551055908203,0.4774961471557617
0.4476551055908203,0.4774961471557617
0.4446659088134766,0.4718811035156250
0.4446659088134766,0.4718811035156250
0.4488252639770507,0.4781970977783203
0.4488252639770507,0.4781970977783203
0.4443929672241211,0.4757148742675781
0.4443929672241211,0.4757148742675781
0.4502603530883789,0.4763053894042968
0.4502603530883789,0.4763053894042968
0.4488716125488281,0.4812789916992187
0.4488716125488281,0.4812789916992187
0.4443500518798828,0.4754911422729492
0.4443500518798828,0.4754911422729492
0.4525360107421875,0.4822849273681640
0.4525360107421875,0.4822849273681640
0.4465209960937500,0.4796075820922852
0.4465209960937500,0.4796075820922852
0.4518035888671875,0.4801523208618164
0.4518035888671875,0.4801523208618164
0.4484951019287109,0.4851316452026367
0.4484951019287109,0.4851316452026367
0.4480373382568359,0.4794988632202148
0.4480373382568359,0.4794988632202148
0.4542823791503906,0.4859733581542969
0.4542823791503906,0.4859733581542969
0.4476694107055664,0.4829206466674805
0.4476694107055664,0.4829206466674805
0.4513366699218750,0.4834442138671875
0.4461965560913086,0.4834442138671875
0.4519889831542969,0.4885551452636718
0.4519889831542969,0.4885551452636718
0.4499193191528320,0.4825944900512695
0.4499193191528320,0.4825944900512695
0.4553478240966797,0.4888160705566406
0.4553478240966797,0.4888160705566406
0.4467327117919922,0.4855722427368164
0.4467327117919922,0.4855722427368164
0.4545867919921875,0.4862005233764648
0.4545867919921875,0.4862005233764648
0.4531660079956055,0.4910614013671875
0.4531660079956055,0.4910614013671875
0.4505424499511719,0.4848878860473633
0.4505424499511719,0.4848878860473633
0.4543024063110351,0.4909664154052734
0.4543024063110351,0.4909664154052734
0.4498306274414062,0.4876367568969726
0.4498306274414062,0.4876367568969726
0.4556934356689453,0.4876733779907226
0.4556934356689453,0.4876733779907226
0.4530864715576172,0.4910121917724609
0.4530864715576172,0.4910121917724609
0.4470960617065430,0.4809682846069336
0.4470960617065430,0.4809682846069336
0.4523740768432617,0.4802352905273437
0.4523740768432617,0.4802352905273437
0.4419027328491211,0.4670282363891601
0.4419027328491211,0.4670282363891601
0.4428560256958008,0.4572389602661133
0.4428560256958008,0.4572389602661133
0.4351375579833984,0.4534183502197265
0.4351375579833984,0.4534183502197265
0.4314777374267578,0.4412189483642578
0.4314777374267578,0.4412189483642578
0.4354854583740234,0.4433464050292968
0.4354854583740234,0.4433464050292968
0.4272697448730469,0.4370773315429687
0.4272697448730469,0.4370773315429687
0.4302721023559570,0.4359031677246094
0.4302721023559570,0.4359031677246094
0.4300569534301757,0.4399223327636719
0.4300569534301757,0.4399223327636719
0.4274030685424804,0.4333116531372070
0.4274030685424804,0.4333116531372070
0.4329923629760742,0.4391847610473633
0.4329923629760742,0.4391847610473633
0.4247142791748047,0.4357521057128906
0.4247142791748047,0.4357521057128906
0.4324293136596680,0.4367752075195312
0.4324293136596680,0.4367752075195312
0.4313215255737304,0.4419805526733399
0.4313215255737304,0.4419805526733399
0.4288238525390625,0.4364788055419922
0.4288238525390625,0.4364788055419922
0.4332138061523437,0.4438339233398437
0.4332138061523437,0.4438339233398437
0.4372198104858399,0.4486558914184570
0.4329408645629882,0.4486558914184570
0.4319858551025391,0.4445640563964844
0.4397518157958984,0.4445640563964844
0.4395292282104492,0.4521526336669922
0.4395292282104492,0.4521526336669922
0.4356943130493164,0.4556213378906250
0.4356943130493164,0.4556213378906250
0.4400722503662109,0.4548780441284179
0.4400722503662109,0.4548780441284179
0.4434333801269531,0.4640625000000000
0.4434333801269531,0.4640625000000000
0.4392311096191406,0.4604181289672851
0.4392311096191406,0.4604181289672851
0.4461565017700195,0.4669984817504882
0.4461565017700195,0.4669984817504882
0.4428531646728516,0.4690132141113281
0.4428531646728516,0.4690132141113281
0.4442819595336914,0.4658374786376953
0.4442819595336914,0.4658374786376953
0.4479166030883789,0.4739828109741211
0.4479166030883789,0.4739828109741211
0.4429235458374023,0.4684392929077148
0.4429235458374023,0.4684392929077148
0.4504880905151367,0.4738901138305664
0.4504880905151367,0.4738901138305664
0.4443700790405273,0.4742837905883789
0.4443700790405273,0.4742837905883789
0.4465393066406250,0.4710554122924804
0.4465393066406250,0.4710554122924804
0.4497018814086914,0.4782709121704101
0.4497018814086914,0.4782709121704101
0.4458555221557617,0.4727336883544921
0.4458555221557617,0.4727336883544921
0.4511169433593750,0.4773239135742187
0.4511169433593750,0.4773239135742187
0.4459939956665039,0.4783246994018555
0.4459939956665039,0.4783246994018555
0.4480808258056641,0.4748313903808594
0.4480808258056641,0.4748313903808594
0.4526590347290039,0.4826116561889648
0.4526590347290039,0.4826116561889648
0.4465198516845703,0.4762550354003906
0.4465198516845703,0.4762550354003906
0.4528942108154297,0.4818260192871093
0.4528942108154297,0.4818260192871093
0.4477272033691406,0.4825870513916015
0.4477272033691406,0.4825870513916015
0.4512537002563476,0.4792654037475585
0.4512537002563476,0.4792654037475585
0.4533290863037109,0.4862188339233398
0.4533290863037109,0.4862188339233398
0.4483531951904297,0.4804899215698242
0.4483531951904297,0.4804899215698242
0.4545307159423828,0.4855504989624023
0.4545307159423828,0.4855504989624023
0.4505750656127929,0.4862903594970703
0.4505750656127929,0.4862903594970703
0.4516267776489258,0.4821487426757812
0.4516267776489258,0.4821487426757812
0.4546920776367187,0.4895862579345703
0.4546920776367187,0.4895862579345703
0.4494483947753906,0.4833755493164062
0.4494483947753906,0.4833755493164062
0.4570209503173828,0.4886117935180664
0.4570209503173828,0.4886117935180664
0.4507541656494141,0.4884309768676758
0.4507541656494141,0.4884309768676758
0.4527259826660156,0.4848707199096680
0.4527259826660156,0.4848707199096680
0.4556459426879882,0.4919128417968750
0.4556459426879882,0.4919128417968750
0.4516937255859375,0.4856294631958007
0.4516937255859375,0.4856294631958007
0.4566593170166016,0.4897310256958007
0.4566593170166016,0.4897310256958007
0.4508571624755859,0.4888515472412109
0.4508571624755859,0.4888515472412109
0.4514739990234375,0.4815530776977539
0.4486043930053711,0.4815530776977539
0.4530744552612305,0.4821121215820312
0.4530744552612305,0.4821121215820312
0.4427782058715820,0.4653476715087890
0.4427782058715820,0.4653476715087890
0.4444690704345703,0.4600456237792969
0.4444690704345703,0.4600456237792969
0.4346460342407226,0.4511192321777344
0.4346460342407226,0.4511192321777344
0.4344234466552734,0.4409528732299804
0.4344234466552734,0.4409528732299804
0.4341339111328125,0.4430923461914062
0.4341339111328125,0.4430923461914062
0.4276371002197266,0.4340234756469726
0.4276371002197266,0.4340234756469726
0.4328269958496094,0.4375093460083008
0.4328269958496094,0.4375093460083008
0.4282264709472656,0.4367609024047852
0.4282264709472656,0.4367609024047852
0.4290447235107422,0.4320224761962890
0.4290447235107422,0.4320224761962890
0.4318490982055664,0.4391109466552734
0.4318490982055664,0.4391109466552734
0.4267456054687500,0.4327503204345703
0.4267456054687500,0.4327503204345703
0.4343341827392578,0.4384677886962891
0.4343341827392578,0.4384677886962891
0.4282859802246093,0.4385141372680664
0.4282859802246093,0.4385141372680664
0.4306549072265625,0.4356771469116211
0.4306549072265625,0.4356771469116211
0.4338558197021484,0.4438550949096680
0.4338558197021484,0.4438550949096680
0.4306726455688477,0.4392190933227539
0.4306726455688477,0.4392190933227539
0.4368919372558593,0.4462228775024414
0.4368919372558593,0.4462228775024414
0.4328264236450195,0.4490564346313476
0.4328264236450195,0.4490564346313476
0.4361663818359375,0.4483114242553711
0.4361663818359375,0.4483114242553711
0.4414386749267578,0.4585813522338867
0.4414386749267578,0.4585813522338867
0.4368221282958984,0.4543195724487304
0.4368221282958984,0.4543195724487304
0.4442836761474609,0.4625095367431640
0.4442836761474609,0.4625095367431640
0.4397809982299805,0.4645849227905273
0.4397809982299805,0.4645849227905273
0.4439466476440430,0.4628093719482422
0.4439466476440430,0.4628093719482422
0.4462926864624023,0.4707355499267578
0.4462926864624023,0.4707355499267578
0.4418964385986328,0.4654907226562500
0.4418964385986328,0.4654907226562500
0.4484395980834961,0.4716556549072266
0.4484395980834961,0.4716556549072266
0.4445537567138672,0.4724824905395508
0.4445537567138672,0.4724824905395508
0.4458675384521484,0.4687482833862304
0.4458675384521484,0.4687482833862304
0.4488035202026367,0.4764930725097656
0.4488035202026367,0.4764930725097656
0.4439020156860352,0.4702857971191406
0.4439020156860352,0.4702857971191406
0.4516279220581054,0.4763122558593750
0.4516279220581054,0.4763122558593750
0.4453256607055664,0.4760753631591796
0.4511318206787109,0.4760753631591796
0.4476093292236328,0.4729803085327148
0.4476093292236328,0.4729803085327148
0.4504079818725586,0.4805356979370117
0.4504079818725586,0.4805356979370117
0.4468505859375000,0.4744903564453125
0.4468505859375000,0.4744903564453125
0.4524599075317383,0.4799091339111328
0.4524599075317383,0.4799091339111328
0.4472328186035156,0.4805168151855468
0.4472328186035156,0.4805168151855468
0.4493705749511719,0.4773405075073242
0.4493705749511719,0.4773405075073242
0.4534790039062500,0.4850051879882812
0.4534790039062500,0.4850051879882812
0.4476694107055664,0.4781547546386719
0.4476694107055664,0.4781547546386719
0.4542228698730468,0.4842533111572265
0.4542228698730468,0.4842533111572265
0.4487297058105469,0.4842372894287109
0.4487297058105469,0.4842372894287109
0.4522207260131836,0.4809677124023437
0.4522207260131836,0.4809677124023437
0.4538291931152343,0.4877603530883789
0.4538291931152343,0.4877603530883789
0.4490873336791992,0.4813625335693359
0.4490873336791992,0.4813625335693359
0.4553169250488281,0.4871383666992187
0.4553169250488281,0.4871383666992187
0.4512216567993164,0.4871669769287109
0.4512216567993164,0.4871669769287109
0.4522790908813477,0.4831752777099609
0.4522790908813477,0.4831752777099609
0.4549295425415039,0.4905418395996093
0.4549295425415039,0.4905418395996093
0.4500114440917968,0.4838253021240234
0.4500114440917968,0.4838253021240234
0.4576915740966797,0.4896617889404297
0.4576915740966797,0.4896617889404297
0.4511707305908203,0.4888921737670898
0.4511707305908203,0.4888921737670898
0.4531562805175781,0.4853925704956055
0.4531562805175781,0.4853925704956055
0.4554216384887695,0.4920078277587890
0.4554216384887695,0.4920078277587890
0.4513372421264648,0.4841531753540039
0.4513372421264648,0.4841531753540039
0.4553226470947265,0.4856374740600586
0.4553226470947265,0.4856374740600586
0.4472585678100586,0.4788894653320312
0.4472585678100586,0.4788894653320312
0.4452535629272461,0.4655988693237305
0.4406833648681641,0.4655988693237305
0.4444581985473633,0.4627973556518554
0.4444581985473633,0.4627973556518554
0.4344560623168945,0.4468568801879882
0.4344560623168945,0.4468568801879882
0.4376586914062500,0.4464054107666016
0.4376586914062500,0.4464054107666016
0.4297840118408203,0.4417173385620117
0.4297840118408203,0.4417173385620117
0.4317632675170898,0.4357051849365234
0.4317632675170898,0.4357051849365234
0.4324047088623047,0.4407691955566406
0.4324047088623047,0.4407691955566406
0.4272954940795898,0.4334100723266601
0.4272954940795898,0.4334100723266601
0.4335536956787109,0.4389009475708008
0.4335536956787109,0.4389009475708008
0.4292558670043945,0.4388935089111328
0.4292558670043945,0.4388935089111328
0.4306606292724609,0.4351570129394531
0.4306606292724609,0.4351570129394531
0.4332429885864258,0.4430986404418945
0.4332429885864258,0.4430986404418945
0.4288816452026367,0.4370687484741211
0.4288816452026367,0.4370687484741211
0.4370218276977539,0.4440862655639649
0.4370218276977539,0.4440862655639649
0.4312408447265625,0.4448078155517578
0.4312408447265625,0.4448078155517578
0.4343502044677734,0.4438636779785156
0.4343502044677734,0.4438636779785156
0.4378246307373047,0.4536140441894531
0.4378246307373047,0.4536140441894531
0.4356966018676758,0.4498964309692383
0.4356966018676758,0.4498964309692383
0.4425859451293945,0.4581144332885742
0.4425859451293945,0.4581144332885742
0.4383470535278320,0.4607397079467773
0.4383470535278320,0.4607397079467773
0.4414804458618164,0.4597938537597656
0.4414804458618164,0.4597938537597656
0.4460803985595703,0.4690750122070312
0.4460803985595703,0.4690750122070312
0.4411170959472656,0.4634290695190429
0.4411170959472656,0.4634290695190429
0.4482404708862305,0.4705930709838867
0.4482404708862305,0.4705930709838867
0.4430654525756836,0.4711235046386719
0.4492498397827148,0.4711235046386719
0.4467653274536132,0.4687196731567382
0.4467653274536132,0.4687196731567382
0.4483251571655273,0.4758653640747070
0.4483251571655273,0.4758653640747070
0.4439157485961914,0.4695842742919922
0.4439157485961914,0.4695842742919922
0.4503765106201172,0.4757509231567383
0.4503765106201172,0.4757509231567383
0.4461936950683594,0.4757503509521484
0.4461936950683594,0.4757503509521484
0.4474634170532226,0.4721820831298828
0.4474634170532226,0.4721820831298828
0.4499250411987304,0.4798112869262695
0.4499250411987304,0.4798112869262695
0.4454109191894531,0.4732904434204102
0.4454109191894531,0.4732904434204102
0.4532392501831055,0.4796419143676758
0.4532392501831055,0.4796419143676758
0.4468385696411133,0.4789947509765625
0.4468385696411133,0.4789947509765625
0.4491674423217774,0.4762813568115234
0.4491674423217774,0.4762813568115234
0.4514734268188476,0.4836547851562500
0.4514734268188476,0.4836547851562500
0.4481763839721680,0.4772981643676757
0.4481763839721680,0.4772981643676757
0.4538829803466797,0.4829669952392578
0.4538829803466797,0.4829669952392578
0.4484264373779297,0.4829395294189453
0.4484264373779297,0.4829395294189453
0.4506820678710937,0.4798524856567383
0.4506820678710937,0.4798524856567383
0.4542194366455078,0.4873157501220703
0.4542194366455078,0.4873157501220703
0.4486341476440430,0.4801906585693359
0.4486341476440430,0.4801906585693359
0.4553295135498047,0.4864477157592773
0.4553295135498047,0.4864477157592773
0.4496309280395508,0.4860151290893555
0.4496309280395508,0.4860151290893555
0.4531877517700195,0.4829973220825195
0.4531877517700195,0.4829973220825195
0.4543024063110351,0.4896612167358398
0.4543024063110351,0.4896612167358398
0.4498386383056641,0.4831335067749023
0.4498386383056641,0.4831335067749023
0.4563743591308593,0.4889711380004882
0.4563743591308593,0.4889711380004882
0.4519906997680664,0.4887439727783203
0.4519906997680664,0.4887439727783203
0.4493568420410156,0.4864505767822265
0.4582889556884766,0.4864505767822265
0.4531167984008789,0.4879028320312500
0.4474033355712890,0.4879028320312500
0.4532009124755859,0.4922435760498047
0.4532009124755859,0.4922435760498047
0.4517812728881836,0.4856826782226562
0.4517812728881836,0.4856826782226562
0.4559635162353515,0.4909240722656250
0.4559635162353515,0.4909240722656250
0.4458927154541015,0.4820755004882812
0.4458927154541015,0.4820755004882812
0.4509029388427734,0.4765079498291016
0.4509029388427734,0.4765079498291016
0.4449342727661132,0.4705879211425781
0.4449342727661132,0.4705879211425781
0.4384849548339844,0.4537153244018555
0.4384849548339844,0.4537153244018555
0.4369571685791016,0.4516176223754882
0.4369571685791016,0.4516176223754882
0.4290790557861328,0.4406604766845703
0.4290790557861328,0.4406604766845703
0.4328138351440430,0.4381982803344727
0.4328138351440430,0.4381982803344727
0.4293388366699218,0.4395870208740234
0.4293388366699218,0.4395870208740234
0.4254472732543945,0.4319847106933594
0.4254472732543945,0.4319847106933594
0.4317552566528320,0.4380512237548828
0.4317552566528320,0.4380512237548828
0.4253437042236328,0.4327028274536133
0.4253437042236328,0.4327028274536133
0.4306360244750976,0.4341110229492187
0.4306360244750976,0.4341110229492187
0.4266271591186523,0.4381965637207031
0.4266271591186523,0.4381965637207031
0.4276702880859375,0.4323898315429687
0.4276702880859375,0.4323898315429687
0.4325672149658203,0.4394989013671875
0.4325672149658203,0.4394989013671875
0.4261310577392578,0.4351449966430664
0.4261310577392578,0.4351449966430664
0.4305444717407226,0.4376014709472656
0.4305444717407226,0.4376014709472656
0.4308826446533203,0.4433200836181641
0.4308826446533203,0.4433200836181641
0.4308958053588867,0.4391304016113281
0.4308958053588867,0.4391304016113281
0.4362648010253906,0.4482891082763672
0.4362648010253906,0.4482891082763672
0.4291265487670898,0.4460695266723633
0.4291265487670898,0.4460695266723633
0.4382669448852539,0.4508995056152343
0.4382669448852539,0.4508995056152343
0.4376432418823242,0.4580978393554687
0.4376432418823242,0.4580978393554687
0.4377771377563476,0.4545541763305664
0.4377771377563476,0.4545541763305664
0.4416870117187500,0.4637701034545898
0.4416870117187500,0.4637701034545898
0.4380512237548828,0.4609886169433594
0.4380512237548828,0.4609886169433594
0.4448776245117188,0.4642639160156250
0.4448776245117188,0.4642639160156250
0.4428783416748047,0.4695516586303711
0.4428783416748047,0.4695516586303711
0.4402685165405273,0.4643285751342773
0.4402685165405273,0.4643285751342773
0.4474885940551758,0.4719915390014648
0.4474885940551758,0.4719915390014648
0.4412435531616211,0.4677211761474609
0.4412435531616211,0.4677211761474609
0.4470542907714843,0.4697519302368164
0.4470542907714843,0.4697519302368164
0.4430957794189453,0.4742729187011718
0.4430957794189453,0.4742729187011718
0.4443054199218750,0.4688409805297851
0.4443054199218750,0.4688409805297851
0.4496166229248047,0.4761108398437500
0.4496166229248047,0.4761108398437500
0.4428955078125000,0.4717969894409180
0.4428955078125000,0.4717969894409180
0.4469507217407226,0.4739456176757812
0.4469507217407226,0.4739456176757812
0.4470228195190429,0.4787378311157227
0.4470228195190429,0.4787378311157227
0.4465187072753906,0.4734334945678711
0.4465187072753906,0.4734334945678711
0.4512880325317383,0.4806026458740234
0.4512880325317383,0.4806026458740234
0.4430253982543945,0.4762504577636719
0.4430253982543945,0.4762504577636719
0.4511037826538086,0.4787212371826172
0.4511037826538086,0.4787212371826172
0.4493854522705078,0.4833766937255859
0.4493854522705078,0.4833766937255859
0.4482782363891601,0.4778263092041015
0.4482782363891601,0.4778263092041015
0.4511833190917969,0.4846006393432617
0.4511833190917969,0.4846006393432617
0.4468196868896484,0.4802953720092773
0.4468196868896484,0.4802953720092773
0.4528615951538086,0.4822620391845703
0.4528615951538086,0.4822620391845703
0.4504674911499023,0.4863842010498047
0.4504674911499023,0.4863842010498047
0.4476894378662109,0.4806484222412109
0.4476894378662109,0.4806484222412109
0.4545925140380859,0.4875949859619140
0.4545925140380859,0.4875949859619140
0.4484258651733398,0.4829103469848632
0.4484258651733398,0.4829103469848632
0.4538286209106445,0.4848941802978515
0.4538286209106445,0.4848941802978515
0.4494134902954102,0.4887382507324218
0.4494134902954102,0.4887382507324218
0.4507999420166016,0.4830785751342773
0.4507999420166016,0.4830785751342773
0.4555309295654297,0.4895822525024414
0.4555309295654297,0.4895822525024414
0.4485980987548828,0.4841938018798828
0.4485980987548828,0.4841938018798828
0.4519014358520508,0.4845142364501953
0.4519014358520508,0.4845142364501953
0.4500686645507812,0.4849056243896484
0.4500686645507812,0.4849056243896484
0.4468688964843750,0.4718713760375977
0.4468688964843750,0.4718713760375977
0.4468769073486328,0.4683820724487304
0.4468769073486328,0.4683820724487304
0.4337356567382812,0.4529760360717773
0.4337356567382812,0.4529760360717773
0.4371208190917968,0.4462572097778320
0.4371208190917968,0.4462572097778320
0.4314794540405273,0.4439500808715820
0.4314794540405273,0.4439500808715820
0.4284862518310547,0.4337471008300781
0.4284862518310547,0.4337471008300781
0.4298704147338867,0.4376300811767578
0.4298704147338867,0.4376300811767578
0.4244888305664062,0.4313707351684570
0.4244888305664062,0.4313707351684570
0.4302497863769531,0.4322330474853516
0.4302497863769531,0.4322330474853516
0.4269550323486328,0.4356925964355469
0.4269550323486328,0.4356925964355469
0.4245054244995117,0.4294996261596680
0.4245054244995117,0.4294996261596680
0.4309341430664063,0.4362350463867187
0.4309341430664063,0.4362350463867187
0.4246227264404297,0.4315143585205078
0.4246227264404297,0.4315143585205078
0.4305049896240234,0.4336229324340820
0.4305049896240234,0.4336229324340820
0.4263319015502929,0.4380283355712891
0.4263319015502929,0.4380283355712891
0.4280393600463867,0.4333368301391601
0.4280393600463867,0.4333368301391601
0.4336498260498047,0.4412973403930664
0.4336498260498047,0.4412973403930664
0.4275552749633789,0.4383201599121094
0.4275552749633789,0.4383201599121094
0.4326799392700195,0.4424949645996094
0.4326799392700195,0.4424949645996094
0.4332498550415039,0.4495416641235351
0.4332498550415039,0.4495416641235351
0.4342163085937500,0.4470634460449219
0.4342163085937500,0.4470634460449219
0.4402421951293945,0.4565202713012695
0.4402421951293945,0.4565202713012695
0.4332035064697266,0.4544820785522461
0.4332035064697266,0.4544820785522461
0.4423135757446289,0.4590007781982421
0.4423135757446289,0.4590007781982421
0.4408773422241211,0.4650747299194335
0.4408773422241211,0.4650747299194335
0.4408046722412109,0.4610321044921875
0.4408046722412109,0.4610321044921875
0.4440673828125000,0.4687397003173828
0.4440673828125000,0.4687397003173828
0.4401334762573242,0.4650403976440429
0.4401334762573242,0.4650403976440429
0.4463979721069336,0.4677137374877929
0.4463979721069336,0.4677137374877929
0.4437795639038086,0.4722015380859375
0.4437795639038086,0.4722015380859375
0.4416578292846680,0.4669727325439453
0.4416578292846680,0.4669727325439453
0.4485219955444336,0.4741230010986328
0.4485219955444336,0.4741230010986328
0.4425710678100586,0.4696735382080078
0.4425710678100586,0.4696735382080078
0.4480831146240234,0.4720212936401367
0.4480831146240234,0.4720212936401367
0.4434768676757813,0.4762092590332031
0.4434768676757813,0.4762092590332031
0.4454263687133789,0.4711572647094726
0.4454263687133789,0.4711572647094726
0.4502202987670898,0.4782222747802734
0.4502202987670898,0.4782222747802734
0.4438138961791992,0.4735719680786132
0.4438138961791992,0.4735719680786132
0.4479337692260742,0.4759511947631836
0.4479337692260742,0.4759511947631836
0.4473495483398438,0.4803977966308594
0.4473495483398438,0.4803977966308594
0.4475086212158203,0.4752302169799805
0.4475086212158203,0.4752302169799805
0.4519243240356445,0.4821527481079101
0.4519243240356445,0.4821527481079101
0.4436370849609375,0.4774223327636719
0.4436370849609375,0.4774223327636719
0.4517257690429687,0.4798719406127929
0.4517257690429687,0.4798719406127929
0.4489986419677734,0.4840713500976562
0.4489986419677734,0.4840713500976562
0.4487720489501953,0.4785799026489257
0.4487720489501953,0.4785799026489257
0.4514574050903320,0.4851980209350586
0.4514574050903320,0.4851980209350586
0.4471401214599609,0.4806879043579101
0.4471401214599609,0.4806879043579101
0.4534624099731445,0.4828977584838867
0.4534624099731445,0.4828977584838867
0.4501327514648437,0.4868316650390625
0.4501327514648437,0.4868316650390625
0.4480567932128906,0.4812274932861328
0.4480567932128906,0.4812274932861328
0.4547298431396484,0.4880189895629883
0.4547298431396484,0.4880189895629883
0.4483634948730469,0.4830963134765625
0.4483634948730469,0.4830963134765625
0.4540918350219726,0.4849599838256836
0.4540918350219726,0.4849599838256836
0.4488813400268555,0.4884241104125976
0.4488813400268555,0.4884241104125976
0.4505121231079101,0.4824068069458007
0.4505121231079101,0.4824068069458007
0.4547000885009765,0.4867458343505859
0.4547000885009765,0.4867458343505859
0.4458080291748047,0.4766269683837890
0.4458080291748047,0.4766269683837890
0.4464334487915039,0.4698715209960938
0.4464334487915039,0.4698715209960938
0.4407548904418945,0.4637826919555664
0.4407548904418945,0.4637826919555664
0.4361389160156250,0.4485660552978515
0.4361389160156250,0.4485660552978515
0.4366922378540039,0.4472373962402343
0.4366922378540039,0.4472373962402343
0.4255903244018555,0.4367528915405273
0.4255903244018555,0.4367528915405273
0.4314147949218750,0.4353206634521484
0.4314147949218750,0.4353206634521484
0.4273487091064453,0.4366504669189453
0.4273487091064453,0.4366504669189453
0.4261648178100586,0.4297851562500000
0.4261648178100586,0.4297851562500000
0.4287031173706055,0.4352325439453125
0.4230754852294922,0.4352325439453125
0.4238101959228516,0.4300455093383789
0.4238101959228516,0.4300455093383789
0.4297845840454101,0.4318983078002930
0.4297845840454101,0.4318983078002930
0.4264125823974609,0.4356245040893554
0.4264125823974609,0.4356245040893554
0.4247371673583984,0.4303207397460938
0.4247371673583984,0.4303207397460938
0.4314302444458007,0.4373640060424804
0.4314302444458007,0.4373640060424804
0.4254873275756836,0.4329505920410156
0.4254873275756836,0.4329505920410156
0.4315973281860351,0.4359626770019531
0.4315973281860351,0.4359626770019531
0.4270225524902344,0.4408315658569336
0.4270225524902344,0.4408315658569336
0.4297691345214844,0.4375568389892578
0.4297691345214844,0.4375568389892578
0.4355369567871094,0.4464643478393555
0.4355369567871094,0.4464643478393555
0.4302091598510742,0.4439924240112305
0.4302091598510742,0.4439924240112305
0.4357858657836914,0.4488739013671875
0.4357858657836914,0.4488739013671875
0.4355449676513672,0.4554897308349609
0.4355449676513672,0.4554897308349609
0.4370681762695313,0.4525943756103515
0.4370681762695313,0.4525943756103515
0.4422889709472656,0.4612255096435547
0.4422889709472656,0.4612255096435547
0.4348526000976562,0.4578168869018555
0.4348526000976562,0.4578168869018555
0.4434442520141602,0.4615974426269531
0.4434442520141602,0.4615974426269531
0.4406215667724609,0.4664537429809570
0.4406215667724609,0.4664537429809570
0.4411073684692383,0.4618011474609375
0.4411073684692383,0.4618011474609375
0.4441698074340820,0.4689828872680664
0.4441698074340820,0.4689828872680664
0.4398971557617187,0.4646530151367188
0.4496812820434570,0.4646530151367188
0.4395017623901367,0.4672851562500000
0.4411926269531250,0.4672851562500000
0.4428016662597656,0.4714136123657227
0.4428016662597656,0.4714136123657227
0.4412693023681640,0.4662940979003906
0.4412693023681640,0.4662940979003906
0.4479314804077149,0.4733865737915039
0.4479314804077149,0.4733865737915039
0.4419038772583008,0.4690029144287109
0.4419038772583008,0.4690029144287109
0.4480064392089844,0.4715389251708984
0.4480064392089844,0.4715389251708984
0.4429275512695313,0.4757909774780273
0.4429275512695313,0.4757909774780273
0.4453742980957031,0.4712522506713867
0.4453742980957031,0.4712522506713867
0.4504732131958007,0.4782737731933593
0.4504732131958007,0.4782737731933593
0.4440273284912109,0.4739604949951172
0.4440273284912109,0.4739604949951172
0.4483669281005859,0.4764101028442382
0.4483669281005859,0.4764101028442382
0.4470680236816406,0.4808149337768555
0.4470680236816406,0.4808149337768555
0.4476121902465820,0.4759963989257812
0.4476121902465820,0.4759963989257812
0.4522825241088867,0.4827701568603515
0.4522825241088867,0.4827701568603515
0.4441074371337890,0.4780036926269531
0.4441074371337890,0.4780036926269531
0.4521881103515625,0.4806999206542968
0.4521881103515625,0.4806999206542968
0.4491577148437500,0.4845560073852539
0.4491577148437500,0.4845560073852539
0.4490421295166016,0.4795011520385742
0.4490421295166016,0.4795011520385742
0.4517818450927734,0.4858772277832031
0.4517818450927734,0.4858772277832031
0.4474828720092773,0.4812057495117187
0.4474828720092773,0.4812057495117187
0.4535602569580078,0.4835655212402343
0.4535602569580078,0.4835655212402343
0.4498495101928711,0.4870267868041992
0.4538183212280273,0.4870267868041992
0.4482828140258789,0.4818105697631836
0.4482828140258789,0.4818105697631836
0.4548042297363281,0.4882369995117187
0.4548042297363281,0.4882369995117187
0.4486427307128906,0.4830310821533203
0.4486427307128906,0.4830310821533203
0.4537914276123047,0.4839328765869140
0.4537914276123047,0.4839328765869140
0.4469947814941406,0.4840782165527344
0.4469947814941406,0.4840782165527344
0.4466600418090820,0.4725065231323242
0.4466600418090820,0.4725065231323242
0.4470943450927734,0.4688879013061523
0.4394227981567383,0.4688879013061523
0.4358682632446289,0.4531259536743164
0.4358682632446289,0.4531259536743164
0.4356079101562500,0.4464323043823242
0.4356079101562500,0.4464323043823242
0.4300758361816406,0.4427833557128906
0.4300758361816406,0.4427833557128906
0.4283769607543945,0.4329643249511719
0.4283769607543945,0.4329643249511719
0.4309656143188477,0.4364473342895508
0.4309656143188477,0.4364473342895508
0.4219270706176758,0.4294624328613281
0.4219270706176758,0.4294624328613281
0.4292306900024414,0.4307453155517578
0.4292306900024414,0.4307453155517578
0.4253013610839844,0.4336521148681641
0.4253013610839844,0.4336521148681641
0.4254123687744141,0.4280845642089844
0.4254123687744141,0.4280845642089844
0.4282196044921875,0.4343187332153320
0.4282196044921875,0.4343187332153320
0.4237209320068359,0.4295276641845703
0.4237209320068359,0.4295276641845703
0.4302223205566406,0.4319812774658203
0.4302223205566406,0.4319812774658203
0.4262575149536132,0.4359420776367187
0.4262575149536132,0.4359420776367187
0.4252944946289062,0.4313833236694336
0.4252944946289062,0.4313833236694336
0.4321580886840820,0.4390422821044922
0.4321580886840820,0.4390422821044922
0.4265167236328125,0.4356903076171875
0.4265167236328125,0.4356903076171875
0.4334884643554687,0.4399555206298828
0.4334884643554687,0.4399555206298828
0.4290184020996093,0.4459888458251953
0.4290184020996093,0.4459888458251953
0.4327159881591797,0.4440376281738281
0.4327159881591797,0.4440376281738281
0.4390863418579101,0.4534961700439453
0.4390863418579101,0.4534961700439453
0.4336772918701172,0.4513246536254882
0.4336772918701172,0.4513246536254882
0.4390680313110352,0.4558536529541015
0.4390680313110352,0.4558536529541015
0.4381633758544922,0.4617799758911132
0.4381633758544922,0.4617799758911132
0.4397060394287109,0.4584640502929687
0.4397060394287109,0.4584640502929687
0.4447099685668945,0.4662368774414062
0.4447099685668945,0.4662368774414062
0.4370349884033203,0.4622629165649414
0.4370349884033203,0.4622629165649414
0.4453994750976563,0.4654575347900390
0.4453994750976563,0.4654575347900390
0.4422025680541992,0.4695859909057617
0.4422025680541992,0.4695859909057617
0.4426139831542968,0.4651239395141601
0.4426139831542968,0.4651239395141601
0.4454177856445312,0.4717266082763671
0.4454177856445312,0.4717266082763671
0.4412590026855469,0.4673927307128906
0.4412590026855469,0.4673927307128906
0.4475114822387695,0.4700763702392578
0.4475114822387695,0.4700763702392578
0.4437589645385742,0.4736709594726562
0.4437589645385742,0.4736709594726562
0.4425819396972656,0.4691333770751953
0.4425819396972656,0.4691333770751953
0.4492830276489257,0.4761938095092773
0.4492830276489257,0.4761938095092773
0.4435392379760742,0.4717266082763671
0.4435392379760742,0.4717266082763671
0.4494724273681641,0.4744852066040039
0.4494724273681641,0.4744852066040039
0.4437601089477539,0.4781850814819336
0.4437601089477539,0.4781850814819336
0.4466005325317383,0.4738363265991211
0.4466005325317383,0.4738363265991211
0.4513647079467773,0.4806804656982422
0.4513647079467773,0.4806804656982422
0.4450321197509766,0.4758344650268554
0.4450321197509766,0.4758344650268554
0.4494678497314453,0.4782995223999023
0.4494678497314453,0.4782995223999023
0.4474142074584961,0.4822803497314453
0.4474142074584961,0.4822803497314453
0.4485477447509765,0.4774354934692382
0.4485477447509765,0.4774354934692382
0.4528106689453125,0.4840295791625976
0.4528106689453125,0.4840295791625976
0.4446235656738281,0.4790170669555664
0.4446235656738281,0.4790170669555664
0.4527746200561523,0.4815301895141602
0.4527746200561523,0.4815301895141602
0.4488281250000000,0.4850143432617187
0.4488281250000000,0.4850143432617187
0.4494243621826172,0.4800573348999023
0.4494243621826172,0.4800573348999023
0.4520994186401367,0.4864871978759766
0.4520994186401367,0.4864871978759766
0.4477867126464843,0.4816949844360351
0.4477867126464843,0.4816949844360351
0.4543487548828125,0.4841377258300781
0.4543487548828125,0.4841377258300781
0.4496589660644531,0.4873935699462890
0.4485689163208008,0.4822174072265625
0.4485689163208008,0.4822174072265625
0.4548151016235351,0.4885299682617187
0.4548151016235351,0.4885299682617187
0.4481145858764649,0.4823913574218750
0.4481145858764649,0.4823913574218750
0.4531156539916992,0.4815668106079101
0.4531156539916992,0.4815668106079101
0.4445331573486328,0.4786153793334961
0.4445331573486328,0.4786153793334961
0.4432914733886719,0.4641706466674804
0.4432914733886719,0.4641706466674804
0.4433904647827148,0.4600421905517578
0.4433904647827148,0.4600421905517578
0.4319103240966797,0.4455013275146484
0.4319103240966797,0.4455013275146484
0.4327674865722656,0.4405700683593750
0.4327674865722656,0.4405700683593750
0.4279094696044922,0.4392906188964844
0.4279094696044922,0.4392906188964844
0.4272348403930664,0.4313816070556640
0.4272348403930664,0.4313816070556640
0.4306629180908203,0.4360067367553711
0.4306629180908203,0.4360067367553711
0.4220483779907226,0.4298469543457031
0.4220483779907226,0.4298469543457031
0.4299425125122070,0.4318897247314453
0.4299425125122070,0.4318897247314453
0.4259216308593750,0.4349390029907226
0.4259216308593750,0.4349390029907226
0.4264904022216797,0.4302446365356445
0.4264904022216797,0.4302446365356445
0.4293966293334961,0.4368083953857422
0.4293966293334961,0.4368083953857422
0.4250524520874023,0.4324481964111328
0.4250524520874023,0.4324481964111328
0.4317358016967773,0.4353893280029297
0.4317358016967773,0.4353893280029297
0.4277727127075195,0.4395132064819336
0.4277727127075195,0.4395132064819336
0.4274648666381836,0.4360467910766602
0.4274648666381836,0.4360467910766602
0.4346752166748047,0.4447299957275391
0.4346752166748047,0.4447299957275391
0.4297702789306641,0.4422649383544922
0.4297702789306641,0.4422649383544922
0.4369359970092773,0.4473501205444336
0.4369359970092773,0.4473501205444336
0.4322090148925781,0.4533027648925781
0.4322090148925781,0.4533027648925781
0.4363019943237305,0.4515169143676758
0.4363019943237305,0.4515169143676758
0.4420583724975586,0.4606201171875000
0.4420583724975586,0.4606201171875000
0.4366533279418945,0.4575994491577148
0.4366533279418945,0.4575994491577148
0.4420732498168945,0.4615665435791015
0.4420732498168945,0.4615665435791015
0.4400796890258789,0.4663833618164062
0.4400796890258789,0.4663833618164062
0.4419210433959961,0.4626531600952148
0.4419210433959961,0.4626531600952148
0.4463579177856445,0.4699338912963867
0.4463579177856445,0.4699338912963867
0.4384168624877929,0.4652744293212890
0.4384168624877929,0.4652744293212890
0.4468946456909180,0.4680959701538085
0.4468946456909180,0.4680959701538085
0.4426752090454101,0.4717294692993164
0.4426752090454101,0.4717294692993164
0.4436079025268554,0.4670579910278320
0.4436079025268554,0.4670579910278320
0.4463745117187500,0.4739267349243164
0.4463745117187500,0.4739267349243164
0.4421030044555664,0.4693370819091797
0.4421030044555664,0.4693370819091797
0.4489992141723633,0.4720973968505859
0.4489992141723633,0.4720973968505859
0.4443065643310547,0.4756238937377930
0.4443065643310547,0.4756238937377930
0.4436445236206055,0.4711338043212890
0.4436445236206055,0.4711338043212890
0.4502323150634766,0.4784070968627929
0.4502323150634766,0.4784070968627929
0.4440931320190429,0.4738666534423828
0.4440931320190429,0.4738666534423828
0.4506511688232422,0.4765399932861328
0.4506511688232422,0.4765399932861328
0.4443752288818359,0.4799463272094726
0.4443752288818359,0.4799463272094726
0.4476013183593750,0.4758127212524414
0.4476013183593750,0.4758127212524414
0.4525045394897461,0.4827741622924804
0.4525045394897461,0.4827741622924804
0.4458629608154297,0.4779561996459961
0.4458629608154297,0.4779561996459961
0.4505619049072265,0.4802255630493164
0.4505619049072265,0.4802255630493164
0.4480705261230469,0.4838241577148437
0.4537954330444336,0.4838241577148437
0.4492492675781250,0.4792613983154297
0.4492492675781250,0.4792613983154297
0.4535997390747070,0.4857822418212890
0.4535997390747070,0.4857822418212890
0.4452970504760742,0.4806535720825195
0.4452970504760742,0.4806535720825195
0.4538526535034180,0.4833778381347656
0.4538526535034180,0.4833778381347656
0.4496412277221680,0.4865135192871093
0.4496412277221680,0.4865135192871093
0.4502952575683594,0.4817716598510742
0.4502952575683594,0.4817716598510742
0.4528146743774414,0.4882621765136719
0.4528146743774414,0.4882621765136719
0.4484819412231445,0.4833160400390625
0.4484819412231445,0.4833160400390625
0.4548763275146484,0.4856758117675781
0.4548763275146484,0.4856758117675781
0.4502117156982421,0.4884429931640625
0.4502117156982421,0.4884429931640625
0.4491302490234375,0.4833606719970703
0.4491302490234375,0.4833606719970703
0.4550926208496093,0.4890174865722656
0.4550926208496093,0.4890174865722656
0.4479909896850586,0.4808132171630859
0.4479909896850586,0.4808132171630859
0.4514585494995117,0.4767591476440429
0.4514585494995117,0.4767591476440429
0.4409088134765625,0.4696472167968750
0.4409088134765625,0.4696472167968750
0.4390937805175781,0.4543161392211914
0.4390937805175781,0.4543161392211914
0.4387086868286132,0.4511123657226562
0.4387086868286132,0.4511123657226562
0.4284748077392578,0.4385948181152344
0.4316448211669922,0.4416669845581054
0.4306280136108399,0.4359003067016601
0.4220941543579101,0.4359003067016601
0.4262420654296875,0.4359506607055664
0.4262420654296875,0.4359506607055664
0.4267026901245117,0.4293107986450195
0.4267026901245117,0.4293107986450195
0.4300443649291992,0.4346403121948242
0.4300443649291992,0.4346403121948242
0.4215402603149414,0.4285366058349609
0.4215402603149414,0.4285366058349609
0.4297033309936523,0.4306686401367187
0.4297033309936523,0.4306686401367187
0.4249986648559570,0.4332441329956054
0.4249986648559570,0.4332441329956054
0.4259016036987305,0.4284839630126953
0.4259016036987305,0.4284839630126953
0.4285623550415039,0.4350814819335938
0.4285623550415039,0.4350814819335938
