REDsignal,IRsignal
0.8569988250732422,0.9302581787109374
0.8481290817260742,0.9243083953857422
0.8481290817260742,0.9243083953857422
0.8560638427734375,0.9250305175781249
0.8560638427734375,0.9250305175781249
0.8510347366333008,0.9285186767578124
0.8510347366333008,0.9285186767578124
0.8505174636840820,0.9212287902832030
0.8505174636840820,0.9212287902832030
0.8556884765625000,0.9287498474121093
0.8556884765625000,0.9287498474121093
0.8470161437988281,0.9218461990356445
0.8470161437988281,0.9218461990356445
0.8546957015991211,0.9225082397460938
0.8546957015991211,0.9225082397460938
0.8503097534179688,0.9249927520751953
0.8503097534179688,0.9249927520751953
0.8496974945068360,0.9212173461914062
0.8496974945068360,0.9212173461914062
0.8553497314453125,0.9275899887084961
0.8553497314453125,0.9275899887084961
0.8465171813964844,0.9214199066162109
0.8465171813964844,0.9214199066162109
0.8550481796264648,0.9216608047485351
0.8550481796264648,0.9216608047485351
0.8512344360351562,0.9282371520996093
0.8512344360351562,0.9282371520996093
0.8507892608642578,0.9242168426513672
0.8507892608642578,0.9242168426513672
0.8566148757934570,0.9313276290893554
0.8566148757934570,0.9313276290893554
0.8484369277954101,0.9244016647338866
0.8604869842529297,0.9244016647338866
0.8568099975585938,0.9276283264160156
0.8568099975585938,0.9276283264160156
0.8530826568603516,0.9324571609497070
0.8530826568603516,0.9324571609497070
0.8522575378417968,0.9271041870117187
0.8522575378417968,0.9271041870117187
0.8583263397216797,0.9322002410888671
0.8583263397216797,0.9322002410888671
0.8496688842773438,0.9277124404907227
0.8496688842773438,0.9277124404907227
0.8574977874755859,0.9294456481933593
0.8574977874755859,0.9294456481933593
0.8536199569702149,0.9341651916503906
0.8536199569702149,0.9341651916503906
0.8529533386230469,0.9270160675048827
0.8529533386230469,0.9270160675048827
0.8590009689331054,0.9352340698242188
0.8590009689331054,0.9352340698242188
0.8504287719726562,0.9295578002929688
0.8504287719726562,0.9295578002929688
0.8582004547119141,0.9312658309936523
0.8582004547119141,0.9312658309936523
0.8547803878784179,0.9349554061889648
0.8547803878784179,0.9349554061889648
0.8538076400756835,0.9309064865112304
0.8538076400756835,0.9309064865112304
0.8600183486938476,0.9381763458251953
0.8600183486938476,0.9381763458251953
0.8512006759643554,0.9323936462402344
0.8512006759643554,0.9323936462402344
0.8593763351440430,0.9328022003173828
0.8593763351440430,0.9328022003173828
0.8562732696533203,0.9397521972656250
0.8562732696533203,0.9397521972656250
0.8551300048828124,0.9341835021972655
0.8551300048828124,0.9341835021972655
0.8611186981201172,0.9413137435913086
0.8611186981201172,0.9413137435913086
0.8525774002075195,0.9341560363769531
0.8525774002075195,0.9341560363769531
0.8606300354003906,0.9375709533691405
0.8606300354003906,0.9375709533691405
0.8578559875488281,0.9432861328125000
0.8578559875488281,0.9432861328125000
0.8562589645385742,0.9371137619018555
0.8562589645385742,0.9371137619018555
0.8626722335815430,0.9427848815917969
0.8626722335815430,0.9427848815917969
0.8537572860717774,0.9386615753173828
0.8537572860717774,0.9386615753173828
0.8618740081787110,0.9404005050659179
0.8618740081787110,0.9404005050659179
0.8590742111206054,0.9459428787231445
0.8590742111206054,0.9459428787231445
0.8575080871582031,0.9387416839599609
0.8575080871582031,0.9387416839599609
0.8640398025512696,0.9474620819091797
0.8640398025512696,0.9474620819091797
0.8551517486572265,0.9420724868774414
0.8551517486572265,0.9420724868774414
0.8630092620849609,0.9435190200805663
0.8545829772949218,0.9435190200805663
0.8609619140625000,0.9478866577148437
0.8609619140625000,0.9478866577148437
0.8590152740478515,0.9434761047363280
0.8590152740478515,0.9434761047363280
0.8654966354370117,0.9509782791137695
0.8654966354370117,0.9509782791137695
0.8563837051391602,0.9454708099365234
0.8563837051391602,0.9454708099365234
0.8645009994506836,0.9457414627075195
0.8645009994506836,0.9457414627075195
0.8625200271606445,0.9529546737670898
0.8625200271606445,0.9529546737670898
0.8606420516967773,0.9472846984863281
0.8606420516967773,0.9472846984863281
0.8669408798217774,0.9545064926147461
0.8669408798217774,0.9545064926147461
0.8579647064208984,0.9475370407104492
0.8579647064208984,0.9475370407104492
0.8660871505737304,0.9504220962524413
0.8660871505737304,0.9504220962524413
0.8642269134521484,0.9564834594726562
0.8642269134521484,0.9564834594726562
0.8618545532226562,0.9502824783325194
0.8618545532226562,0.9502824783325194
0.8684143066406250,0.9566654205322265
0.8684143066406250,0.9566654205322265
0.8594261169433594,0.9528253555297851
0.8594261169433594,0.9528253555297851
0.8678014755249023,0.9547101974487304
0.8678014755249023,0.9547101974487304
0.8659864425659179,0.9607194900512694
0.8659864425659179,0.9607194900512694
0.8637794494628906,0.9531446456909179
0.8637794494628906,0.9531446456909179
0.8702980041503906,0.9622323989868163
0.8702980041503906,0.9622323989868163
0.8612886428833008,0.9570047378540039
0.8612886428833008,0.9570047378540039
0.8693561553955078,0.9585485458374023
0.8693561553955078,0.9585485458374023
0.8678747177124023,0.9632726669311523
0.8655189514160156,0.9586269378662109
0.8721250534057617,0.9668569564819336
0.8721250534057617,0.9668569564819336
0.8630287170410156,0.9613809585571289
0.8630287170410156,0.9613809585571289
0.8713926315307617,0.9615646362304687
0.8713926315307617,0.9615646362304687
0.8702550888061523,0.9693975448608398
0.8702550888061523,0.9693975448608398
0.8674844741821289,0.9628664016723633
0.8674844741821289,0.9628664016723633
0.8738199234008789,0.9699245452880859
0.8738199234008789,0.9699245452880859
0.8636587142944335,0.9602960586547851
0.8636587142944335,0.9602960586547851
0.8696279525756836,0.9573869705200195
0.8696279525756836,0.9573869705200195
0.8652620315551758,0.9564525604248046
0.8652620315551758,0.9564525604248046
0.8588945388793945,0.9420541763305663
0.8588945388793945,0.9420541763305663
0.8627883911132812,0.9424707412719726
0.8627883911132812,0.9424707412719726
0.8516395568847656,0.9341663360595702
0.8516395568847656,0.9341663360595702
0.8579898834228515,0.9321498870849609
0.8579898834228515,0.9321498870849609
0.8559041976928711,0.9360866546630859
0.8576082229614258,0.9360866546630859
0.8520423889160156,0.9258956909179688
0.8520423889160156,0.9258956909179688
0.8582633972167969,0.9338521957397461
0.8582633972167969,0.9338521957397461
0.8486400604248047,0.9274847030639648
0.8486400604248047,0.9274847030639648
0.8558921813964844,0.9269886016845703
0.8558921813964844,0.9269886016845703
0.8544113159179687,0.9308046340942382
0.8544113159179687,0.9308046340942382
0.8505472183227539,0.9239044189453125
0.8505472183227539,0.9239044189453125
0.8569564819335938,0.9308109283447266
0.8569564819335938,0.9308109283447266
0.8474693298339844,0.9244417190551757
0.8474693298339844,0.9244417190551757
0.8547191619873047,0.9227931976318359
0.8547191619873047,0.9227931976318359
0.8533538818359375,0.9294147491455078
0.8533538818359375,0.9294147491455078
0.8493833541870117,0.9210737228393554
0.8493833541870117,0.9210737228393554
0.8558784484863281,0.9280128479003906
0.8558784484863281,0.9280128479003906
0.8464542388916015,0.9208271026611328
0.8550361633300781,0.9264507293701172
0.8539106369018554,0.9220642089843749
0.8462974548339843,0.9220642089843749
0.8527576446533203,0.9278732299804687
0.8527576446533203,0.9278732299804687
0.8487888336181640,0.9197565078735351
0.8487888336181640,0.9197565078735351
0.8557920455932617,0.9261926651000976
0.8557920455932617,0.9261926651000976
0.8468347549438476,0.9230861663818359
0.8468347549438476,0.9230861663818359
0.8548582077026367,0.9241802215576171
0.8548582077026367,0.9241802215576171
0.8539060592651367,0.9310140609741211
0.8539060592651367,0.9310140609741211
0.8504562377929688,0.9224962234497069
0.8504562377929688,0.9224962234497069
0.8577363967895507,0.9323032379150390
0.8577363967895507,0.9323032379150390
0.8488580703735351,0.9279035568237304
0.8488580703735351,0.9279035568237304
0.8564758300781250,0.9281066894531249
0.8564758300781250,0.9281066894531249
0.8554464340209961,0.9328027725219726
0.8554464340209961,0.9328027725219726
0.8514953613281250,0.9259220123291015
0.8514953613281250,0.9259220123291015
0.8583984375000000,0.9338996887207031
0.8583984375000000,0.9338996887207031
0.8494537353515624,0.9290536880493163
0.8494537353515624,0.9290536880493163
0.8570302963256836,0.9276334762573242
0.8570302963256836,0.9276334762573242
0.8560071945190429,0.9352952957153320
0.8560071945190429,0.9352952957153320
0.8521539688110351,0.9271190643310546
0.8521539688110351,0.9271190643310546
0.8592378616333007,0.9351219177246093
0.8592378616333007,0.9351219177246093
0.8503005981445312,0.9296218872070312
0.8503005981445312,0.9296218872070312
0.8578004837036133,0.9310798645019531
0.8578004837036133,0.9310798645019531
0.8571498870849609,0.9377775192260742
0.8571498870849609,0.9377775192260742
0.8529521942138671,0.9295349121093750
0.8574949264526367,0.9295349121093750
0.8603565216064453,0.9363847732543945
0.8603565216064453,0.9363847732543945
0.8514398574829102,0.9343219757080078
0.8514398574829102,0.9343219757080078
0.8591480255126953,0.9341577529907226
0.8591480255126953,0.9341577529907226
0.8584150314331055,0.9408708572387695
0.8584150314331055,0.9408708572387695
0.8544496536254883,0.9311702728271484
0.8544496536254883,0.9311702728271484
0.8617235183715820,0.9409812927246093
0.8617235183715820,0.9409812927246093
0.8529521942138671,0.9378387451171875
0.8529521942138671,0.9378387451171875
0.8604984283447266,0.9373861312866211
0.8604984283447266,0.9373861312866211
0.8598077774047851,0.9424930572509765
0.8598077774047851,0.9424930572509765
0.8557331085205078,0.9357433319091797
0.8557331085205078,0.9357433319091797
0.8630287170410156,0.9439561843872070
0.8630287170410156,0.9439561843872070
0.8540914535522460,0.9409086227416992
0.8540914535522460,0.9409086227416992
0.8617979049682617,0.9389940261840820
0.8617979049682617,0.9389940261840820
0.8611089706420898,0.9471216201782227
0.8611089706420898,0.9471216201782227
0.8570652008056641,0.9390426635742187
0.8570652008056641,0.9390426635742187
0.8644323348999023,0.9470209121704101
0.8644323348999023,0.9470209121704101
0.8555242538452148,0.9428936004638672
0.8555242538452148,0.9428936004638672
0.8631694793701171,0.9435625076293945
0.8631694793701171,0.9435625076293945
0.8626024246215820,0.9503540039062499
0.8626024246215820,0.9503540039062499
0.8582988739013672,0.9416095733642578
0.8582988739013672,0.9416095733642578
0.8658966064453125,0.9486368179321288
0.8658966064453125,0.9486368179321288
0.8568511962890625,0.9475444793701171
0.8568511962890625,0.9475444793701171
0.8645044326782226,0.9468629837036132
0.8645044326782226,0.9468629837036132
0.8640146255493164,0.9532957077026367
0.8650051116943359,0.9532957077026367
0.8596584320068359,0.9433782577514648
0.8596584320068359,0.9433782577514648
0.8674432754516601,0.9535623550415039
0.8674432754516601,0.9535623550415039
0.8586112976074218,0.9516180038452148
0.8586112976074218,0.9516180038452148
0.8660722732543945,0.9503311157226562
0.8660722732543945,0.9503311157226562
0.8657575607299804,0.9559398651123047
0.8657575607299804,0.9559398651123047
0.8613424301147461,0.9487718582153319
0.8613424301147461,0.9487718582153319
0.8692211151123047,0.9575941085815429
0.8692211151123047,0.9575941085815429
0.8601791381835937,0.9553722381591796
0.8601791381835937,0.9553722381591796
0.8679164886474610,0.9527647018432617
0.8679164886474610,0.9527647018432617
0.8674919128417968,0.9612201690673827
0.8674919128417968,0.9612201690673827
0.8631151199340820,0.9527938842773437
0.8631151199340820,0.9527938842773437
0.8709692001342774,0.9613489151000976
0.8709692001342774,0.9613489151000976
0.8620422363281249,0.9582252502441406
0.8620422363281249,0.9582252502441406
0.8694208145141601,0.9575786590576172
0.8694208145141601,0.9575786590576172
0.8687902450561523,0.9632377624511719
0.8687902450561523,0.9632377624511719
0.8625560760498047,0.9503213882446289
0.8625560760498047,0.9503213882446289
0.8681316375732422,0.9520122528076171
0.8681316375732422,0.9520122528076171
0.8563379287719727,0.9455343246459961
0.8563379287719727,0.9455343246459961
0.8610546112060546,0.9374176025390625
0.8610546112060546,0.9374176025390625
0.8585935592651367,0.9397470474243164
0.8585935592651367,0.9397470474243164
0.8522500991821289,0.9258401870727538
0.8522500991821289,0.9258401870727538
0.8588865280151367,0.9330808639526367
0.8588865280151367,0.9330808639526367
0.8490446090698242,0.9298547744750976
0.8490446090698242,0.9298547744750976
0.8555854797363281,0.9257143020629882
0.8555854797363281,0.9257143020629882
0.8549240112304687,0.9298444747924804
0.8549240112304687,0.9298444747924804
0.8494279861450195,0.9207584381103515
0.8494279861450195,0.9207584381103515
0.8567647933959961,0.9280591964721679
0.8567647933959961,0.9280591964721679
0.8473709106445312,0.9253086090087890
0.8473709106445312,0.9253086090087890
0.8541154861450195,0.9203384399414062
0.8473886489868164,0.9203384399414062
0.8534454345703125,0.9274589538574218
0.8534454345703125,0.9274589538574218
0.8478807449340821,0.9173595428466796
0.8478807449340821,0.9173595428466796
0.8554676055908202,0.9242666244506835
0.8554676055908202,0.9242666244506835
0.8459009170532227,0.9207921981811523
0.8459009170532227,0.9207921981811523
0.8526048660278320,0.9183208465576171
0.8526048660278320,0.9183208465576171
0.8523525238037110,0.9245807647705078
0.8523525238037110,0.9245807647705078
0.8466957092285156,0.9143674850463867
0.8466957092285156,0.9143674850463867
0.8544525146484375,0.9205335617065429
0.8544525146484375,0.9205335617065429
0.8450643539428710,0.9202875137329101
0.8450643539428710,0.9202875137329101
0.8520790100097656,0.9170305252075195
0.8520790100097656,0.9170305252075195
0.8518547058105469,0.9235507965087890
0.8518547058105469,0.9235507965087890
0.8466676712036133,0.9129581451416016
0.8466676712036133,0.9129581451416016
0.8547300338745117,0.9227857589721680
0.8547300338745117,0.9227857589721680
0.8461915969848632,0.9225122451782226
0.8461915969848632,0.9225122451782226
0.8532548904418945,0.9199682235717773
0.8532548904418945,0.9199682235717773
0.8538122177124023,0.9264318466186523
0.8538122177124023,0.9264318466186523
0.8485908508300781,0.9190601348876952
0.8485908508300781,0.9190601348876952
0.8567161560058594,0.9274744033813476
0.8567161560058594,0.9274744033813476
0.8479608535766602,0.9264736175537109
0.8479608535766602,0.9264736175537109
0.8545526504516602,0.9214977264404296
0.8545526504516602,0.9214977264404296
0.8548456192016601,0.9299560546875000
0.8548456192016601,0.9299560546875000
0.8493627548217774,0.9206480026245116
0.8493627548217774,0.9206480026245116
0.8573570251464844,0.9285964965820312
0.8573570251464844,0.9285964965820312
0.8486755371093749,0.9262847900390625
0.8486755371093749,0.9262847900390625
0.8551649093627930,0.9242952346801757
0.8551649093627930,0.9242952346801757
0.8557697296142578,0.9316274642944335
0.8557697296142578,0.9316274642944335
0.8501340866088867,0.9224561691284179
0.8501340866088867,0.9224561691284179
0.8582508087158203,0.9292631149291992
0.8582508087158203,0.9292631149291992
0.8497060775756836,0.9299840927124023
0.8497060775756836,0.9299840927124023
0.8561050415039062,0.9267889022827148
0.8561050415039062,0.9267889022827148
0.8568683624267578,0.9341812133789062
0.8568683624267578,0.9341812133789062
0.8512990951538085,0.9240097045898437
0.8512990951538085,0.9240097045898437
0.8593454360961914,0.9335432052612305
0.8593454360961914,0.9335432052612305
0.8510667800903320,0.9332044601440429
0.8628942489624023,0.9332044601440429
0.8572374343872070,0.9297592163085937
0.8572374343872070,0.9297592163085937
0.8582359313964844,0.9360059738159179
0.8582359313964844,0.9360059738159179
0.8527479171752930,0.9289781570434570
0.8527479171752930,0.9289781570434570
0.8609853744506836,0.9370416641235351
0.8609853744506836,0.9370416641235351
0.8528560638427735,0.9367509841918945
0.8528560638427735,0.9367509841918945
0.8587406158447265,0.9317247390747070
0.8587406158447265,0.9317247390747070
0.8597517013549805,0.9407815933227539
0.8597517013549805,0.9407815933227539
0.8543083190917968,0.9324743270874023
0.8543083190917968,0.9324743270874023
0.8622253417968749,0.9403444290161133
0.8622253417968749,0.9403444290161133
0.8544834136962890,0.9385585784912109
0.8544834136962890,0.9385585784912109
0.8600366592407226,0.9364963531494140
0.8600366592407226,0.9364963531494140
0.8612697601318359,0.9441764831542968
0.8612697601318359,0.9441764831542968
0.8555797576904297,0.9355104446411132
0.8555797576904297,0.9355104446411132
0.8635906219482422,0.9421783447265625
0.8635906219482422,0.9421783447265625
0.8560632705688477,0.9432746887207031
0.8560632705688477,0.9432746887207031
0.8613378524780273,0.9397001266479492
0.8613378524780273,0.9397001266479492
0.8626344680786132,0.9471296310424804
0.8626344680786132,0.9471296310424804
0.8569250106811523,0.9371194839477539
0.8569250106811523,0.9371194839477539
0.8649358749389648,0.9464698791503906
0.8649358749389648,0.9464698791503906
0.8573083877563477,0.9462558746337890
0.8573083877563477,0.9462558746337890
0.8623615264892578,0.9424449920654296
0.8623615264892578,0.9424449920654296
0.8640701293945312,0.9489744186401367
0.8640701293945312,0.9489744186401367
0.8584253311157226,0.9419483184814452
0.8584253311157226,0.9419483184814452
0.8664396286010742,0.9501199722290039
0.8664396286010742,0.9501199722290039
0.8591268539428710,0.9498281478881836
0.8591268539428710,0.9498281478881836
0.8640432357788086,0.9449077606201172
0.8640432357788086,0.9449077606201172
0.8659137725830078,0.9544395446777343
0.8659137725830078,0.9544395446777343
0.8603771209716796,0.9460407257080078
0.8603771209716796,0.9460407257080078
0.8681716918945312,0.9542009353637695
0.8681716918945312,0.9542009353637695
0.8612503051757813,0.9527544021606444
0.8612503051757813,0.9527544021606444
0.8658571243286133,0.9504232406616211
0.8658571243286133,0.9504232406616211
0.8679307937622071,0.9588054656982421
0.8679307937622071,0.9588054656982421
0.8622550964355469,0.9500484466552734
0.8622550964355469,0.9500484466552734
0.8700611114501953,0.9566213607788085
0.8700611114501953,0.9566213607788085
0.8628118515014648,0.9573978424072265
0.8628118515014648,0.9573978424072265
0.8663938522338867,0.9514698028564452
0.8663938522338867,0.9514698028564452
0.8670261383056640,0.9552858352661132
0.8670261383056640,0.9552858352661132
0.8590181350708007,0.9395879745483398
0.8590181350708007,0.9395879745483398
0.8640157699584960,0.9427625656127929
0.8640157699584960,0.9427625656127929
0.8609064102172851,0.9372493743896484
0.8609064102172851,0.9359304428100585
0.8609064102172851,0.9378170013427733
0.8502204895019531,0.9283967971801758
0.8623907089233398,0.9283967971801758
0.8569026947021484,0.9271121978759765
0.8569026947021484,0.9271121978759765
0.8533361434936523,0.9312681198120116
0.8533361434936523,0.9312681198120116
0.8509860992431640,0.9228841781616210
0.8509860992431640,0.9228841781616210
0.8566108703613281,0.9286119461059570
0.8566108703613281,0.9286119461059570
0.8470344543457031,0.9214776992797851
0.8470344543457031,0.9214776992797851
0.8546155929565430,0.9226078033447265
0.8546155929565430,0.9226078033447265
0.8517402648925781,0.9261995315551758
0.8517402648925781,0.9261995315551758
0.8493358612060546,0.9187408447265625
0.8493358612060546,0.9187408447265625
0.8551637649536132,0.9246368408203125
0.8551637649536132,0.9246368408203125
0.8454963684082031,0.9184467315673828
0.8454963684082031,0.9184467315673828
0.8530529022216796,0.9180032730102539
0.8530529022216796,0.9180032730102539
0.8501146316528320,0.9225608825683593
0.8501146316528320,0.9225608825683593
0.8477354049682617,0.9151548385620116
0.8477354049682617,0.9151548385620116
0.8537498474121094,0.9221551895141601
0.8537498474121094,0.9221551895141601
0.8442043304443360,0.9148561477661132
0.8442043304443360,0.9148561477661132
0.8518272399902344,0.9154666900634765
0.8518272399902344,0.9154666900634765
0.8495904922485351,0.9202743530273437
0.8495904922485351,0.9202743530273437
0.8469995498657227,0.9140207290649414
0.8469995498657227,0.9140207290649414
0.8532119750976562,0.9203424453735352
0.8532119750976562,0.9203424453735352
0.8437265396118164,0.9142541885375977
0.8437265396118164,0.9142541885375977
0.8517333984375000,0.9156394958496094
0.8517333984375000,0.9156394958496094
0.8501672744750977,0.9225563049316405
0.8501672744750977,0.9225563049316405
0.8478635787963867,0.9159198760986328
0.8478635787963867,0.9159198760986328
0.8547151565551757,0.9239284515380859
0.8547151565551757,0.9239284515380859
0.8454614639282226,0.9183631896972656
0.8454614639282226,0.9183631896972656
0.8537612915039062,0.9207361221313476
0.8537612915039062,0.9207361221313476
0.8522552490234375,0.9260347366333007
0.8553165435791016,0.9260347366333007
0.8492546081542969,0.9192266464233398
0.8492546081542969,0.9192266464233398
0.8559116363525391,0.9263946533203125
0.8559116363525391,0.9263946533203125
0.8464010238647460,0.9211246490478515
0.8464010238647460,0.9211246490478515
0.8544719696044921,0.9211263656616211
0.8544719696044921,0.9211263656616211
0.8526786804199219,0.9269479751586913
0.8526786804199219,0.9269479751586913
0.8497896194458008,0.9196941375732421
0.8497896194458008,0.9196941375732421
0.8562417984008789,0.9281850814819336
0.8562417984008789,0.9281850814819336
0.8470945358276367,0.9217872619628906
0.8470945358276367,0.9217872619628906
0.8549045562744141,0.9229940414428710
0.8549045562744141,0.9229940414428710
0.8537326812744140,0.9289449691772460
0.8537326812744140,0.9289449691772460
0.8507389068603516,0.9229156494140625
0.8507389068603516,0.9229156494140625
0.8574800491333008,0.9301586151123047
0.8574800491333008,0.9301586151123047
0.8482183456420899,0.9248256683349609
0.8482183456420899,0.9248256683349609
0.8562395095825195,0.9256021499633789
0.8562395095825195,0.9256021499633789
0.8551156997680663,0.9326877593994141
0.8551156997680663,0.9326877593994141
0.8518976211547852,0.9252656936645507
0.8518976211547852,0.9252656936645507
0.8586444854736328,0.9331506729125976
0.8586444854736328,0.9331506729125976
0.8494565963745117,0.9277050018310546
0.8494565963745117,0.9277050018310546
0.8574445724487304,0.9293952941894531
0.8574445724487304,0.9293952941894531
0.8562561035156250,0.9351442337036132
0.8562561035156250,0.9351442337036132
0.8530883789062500,0.9280300140380859
0.8530883789062500,0.9280300140380859
0.8599428176879883,0.9358097076416015
0.8599428176879883,0.9358097076416015
0.8508321762084960,0.9315788269042968
0.8508321762084960,0.9315788269042968
0.8588973999023437,0.9318557739257812
0.8588973999023437,0.9318557739257812
0.8577787399291992,0.9382421493530273
0.8577787399291992,0.9382421493530273
0.8544708251953125,0.9309625625610352
0.8544708251953125,0.9309625625610352
0.8614093780517578,0.9397533416748046
0.8614093780517578,0.9397533416748046
0.8522832870483398,0.9343357086181641
0.8522832870483398,0.9343357086181641
0.8601385116577148,0.9350807189941406
0.8601385116577148,0.9350807189941406
0.8591325759887695,0.9414464950561523
0.8591325759887695,0.9414464950561523
0.8557949066162109,0.9349834442138671
0.8557949066162109,0.9349834442138671
0.8627552032470703,0.9425554275512695
0.8627552032470703,0.9425554275512695
0.8536685943603516,0.9375629425048828
0.8536685943603516,0.9375629425048828
0.8615175247192383,0.9381511688232421
0.8615175247192383,0.9381511688232421
0.8606552124023438,0.9453174591064453
0.8606552124023438,0.9453174591064453
0.8570417404174805,0.9373277664184569
0.8570417404174805,0.9373277664184569
0.8641880035400390,0.9454736709594727
0.8641880035400390,0.9454736709594727
0.8551054000854492,0.9405950546264648
0.8551054000854492,0.9405950546264648
0.8628387451171875,0.9422149658203125
0.8628387451171875,0.9422149658203125
0.8618780136108398,0.9481475830078124
0.8618780136108398,0.9481475830078124
0.8582891464233399,0.9404245376586914
0.8582891464233399,0.9404245376586914
0.8655223846435547,0.9488113403320312
0.8655223846435547,0.9488113403320312
0.8567316055297851,0.9454467773437499
0.8567316055297851,0.9454467773437499
0.8644643783569336,0.9450691223144531
0.8644643783569336,0.9450691223144531
0.8635940551757812,0.9517890930175781
0.8635940551757812,0.9517890930175781
0.8599514007568360,0.9438234329223633
0.8599514007568360,0.9438234329223633
0.8671571731567382,0.9533849716186523
0.8671571731567382,0.9533849716186523
0.8583881378173828,0.9486860275268554
0.8583881378173828,0.9486860275268554
0.8662273406982421,0.9490499496459961
0.8662273406982421,0.9490499496459961
0.8653930664062500,0.9557544708251953
0.8653930664062500,0.9557544708251953
0.8616485595703125,0.9485372543334960
0.8616485595703125,0.9485372543334960
0.8688623428344726,0.9559610366821288
0.8688623428344726,0.9559610366821288
0.8597373962402344,0.9509428024291992
0.8597373962402344,0.9509428024291992
0.8662794113159179,0.9482517242431641
0.8662794113159179,0.9482517242431641
0.8636363983154297,0.9508970260620117
0.8636363983154297,0.9508970260620117
0.8571945190429687,0.9363676071166992
0.8571945190429687,0.9363676071166992
0.8617326736450195,0.9388166427612304
0.8617326736450195,0.9388166427612304
0.8507268905639648,0.9301088333129882
0.8507268905639648,0.9301088333129882
0.8565839767456055,0.9270858764648438
0.8565839767456055,0.9270858764648438
0.8545989990234375,0.9301048278808594
0.8545989990234375,0.9301048278808594
0.8495344161987305,0.9196998596191406
0.8495344161987305,0.9196998596191406
0.8559797286987304,0.9259305953979492
0.8559797286987304,0.9259305953979492
0.8466035842895507,0.9217803955078124
0.8466035842895507,0.9217803955078124
0.8535472869873046,0.9194709777832031
0.8535472869873046,0.9194709777832031
0.8521705627441406,0.9246442794799804
0.8521705627441406,0.9246442794799804
0.8474939346313476,0.9149282455444335
0.8474939346313476,0.9149282455444335
0.8543031692504882,0.9226455688476562
0.8543031692504882,0.9226455688476562
0.8449476242065429,0.9174201965332031
0.8449476242065429,0.9174201965332031
0.8519611358642578,0.9154598236083984
0.8519611358642578,0.9154598236083984
0.8506113052368164,0.9205678939819335
0.8506113052368164,0.9205678939819335
0.8459461212158202,0.9117485046386719
0.8459461212158202,0.9117485046386719
0.8527462005615234,0.9181560516357421
0.8527462005615234,0.9181560516357421
0.8433712005615234,0.9140607833862304
0.8433712005615234,0.9140607833862304
0.8504888534545898,0.9121719360351562
0.8504888534545898,0.9121719360351562
0.8495447158813476,0.9185073852539062
0.8495447158813476,0.9185073852539062
0.8449556350708007,0.9084291458129883
0.8449556350708007,0.9084291458129883
0.8520223617553710,0.9161527633666992
0.8520223617553710,0.9161527633666992
0.8428796768188477,0.9126537322998046
0.8428796768188477,0.9126537322998046
0.8501907348632812,0.9122240066528320
0.8501907348632812,0.9122240066528320
0.8496345520019531,0.9182075500488280
0.8496345520019531,0.9182075500488280
0.8452966690063476,0.9101331710815429
0.8452966690063476,0.9101331710815429
0.8531301498413085,0.9187345504760742
0.8531301498413085,0.9187345504760742
0.8443639755249023,0.9174831390380859
0.8443639755249023,0.9174831390380859
0.8520423889160156,0.9158952713012695
0.8520423889160156,0.9158952713012695
0.8516721725463867,0.9226140975952148
0.8516721725463867,0.9226140975952148
0.8470802307128906,0.9137134552001953
0.8470802307128906,0.9137134552001953
0.8547494888305663,0.9225992202758788
0.8547494888305663,0.9225992202758788
0.8455942153930663,0.9193794250488281
0.8455942153930663,0.9193794250488281
0.8527902603149414,0.9175031661987304
0.8527902603149414,0.9175031661987304
0.8521968841552734,0.9236761093139648
0.8521968841552734,0.9236761093139648
0.8476037979125977,0.9154981613159179
0.8476037979125977,0.9154981613159179
0.8552335739135742,0.9230169296264648
0.8552335739135742,0.9230169296264648
0.8460136413574219,0.9206525802612304
0.8460136413574219,0.9206525802612304
0.8534711837768555,0.9186944961547852
0.8534711837768555,0.9186944961547852
0.8529973983764648,0.9261720657348632
0.8529973983764648,0.9261720657348632
0.8482767105102539,0.9167547225952148
0.8482767105102539,0.9167547225952148
0.8561365127563476,0.9250671386718750
0.8561365127563476,0.9250671386718750
0.8471529006958007,0.9233819961547851
0.8471529006958007,0.9233819961547851
0.8545938491821289,0.9222066879272460
0.8545938491821289,0.9222066879272460
0.8542991638183594,0.9284214019775390
0.8542991638183594,0.9284214019775390
0.8496814727783203,0.9197616577148438
0.8496814727783203,0.9197616577148438
0.8574062347412109,0.9279567718505859
0.8481565475463867,0.9279567718505859
0.8484518051147460,0.9273227691650390
0.8484518051147460,0.9273227691650390
0.8558166503906249,0.9247575759887695
0.8558166503906249,0.9247575759887695
0.8556838989257812,0.9315628051757812
0.8556838989257812,0.9315628051757812
0.8509202957153320,0.9227502822875976
0.8509202957153320,0.9227502822875976
0.8588058471679687,0.9317161560058593
0.8588058471679687,0.9317161560058593
0.8498468399047852,0.9298667907714844
0.8498468399047852,0.9298667907714844
0.8571390151977539,0.9276884078979492
0.8506994247436523,0.9276884078979492
0.8570177078247070,0.9343729019165039
0.8570177078247070,0.9343729019165039
0.8521064758300781,0.9263523101806640
0.8521064758300781,0.9263523101806640
0.8599943161010742,0.9342510223388671
0.8599943161010742,0.9342510223388671
0.8511365890502930,0.9331203460693359
0.8511365890502930,0.9331203460693359
0.8583400726318359,0.9306180953979492
0.8583400726318359,0.9306180953979492
0.8585060119628906,0.9384326934814453
0.8585060119628906,0.9384326934814453
0.8533933639526367,0.9290370941162109
0.8533933639526367,0.9290370941162109
0.8614522933959960,0.9375177383422851
0.8614522933959960,0.9375177383422851
0.8526924133300781,0.9361536026000976
0.8526924133300781,0.9361536026000976
0.8597780227661133,0.9346349716186523
0.8597780227661133,0.9346349716186523
0.8598758697509765,0.9408765792846679
0.8598758697509765,0.9408765792846679
0.8545595169067383,0.9319026947021484
0.8545595169067383,0.9319026947021484
0.8575601577758789,0.9352500915527343
0.8575601577758789,0.9352500915527343
0.8634212493896484,0.9429130554199219
0.8634212493896484,0.9429130554199219
0.8562904357910156,0.9368911743164062
0.8562904357910156,0.9368911743164062
0.8637874603271484,0.9382015228271484
0.8637874603271484,0.9382015228271484
0.8579561233520507,0.9438817977905273
0.8579561233520507,0.9438817977905273
0.8588642120361328,0.9388790130615234
0.8588642120361328,0.9388790130615234
0.8647979736328125,0.9463296890258789
0.8647979736328125,0.9463296890258789
0.8575344085693359,0.9391868591308593
0.8575344085693359,0.9391868591308593
0.8653301239013672,0.9430904388427734
0.8653301239013672,0.9430904388427734
0.8596870422363281,0.9477001190185547
0.8596870422363281,0.9477001190185547
0.8605064392089844,0.9423683166503906
0.8605064392089844,0.9423683166503906
0.8663269042968750,0.9483827590942382
0.8663269042968750,0.9483827590942382
0.8590456008911133,0.9443584442138672
0.8590456008911133,0.9443584442138672
0.8668493270874024,0.9468704223632812
0.8668493270874024,0.9468704223632812
0.8615243911743163,0.9516786575317382
0.8615243911743163,0.9516786575317382
0.8621435165405273,0.9450307846069336
0.8621435165405273,0.9450307846069336
0.8680927276611328,0.9535783767700194
0.8680927276611328,0.9535783767700194
0.8605716705322265,0.9480365753173827
0.8605716705322265,0.9480365753173827
0.8678958892822265,0.9485692977905273
0.8678958892822265,0.9485692977905273
0.8612056732177734,0.9486671447753906
0.8612056732177734,0.9486671447753906
0.8595840454101562,0.9394884109497070
0.8595840454101562,0.9394884109497070
0.8629371643066406,0.9406991958618164
0.8629371643066406,0.9406991958618164
0.8527370452880859,0.9292963027954101
0.8527370452880859,0.9292963027954101
0.8581895828247070,0.9256731033325195
0.8581895828247070,0.9256731033325195
0.8515542984008789,0.9282674789428711
0.8515542984008789,0.9282674789428711
0.8506130218505860,0.9204540252685547
0.8506130218505860,0.9204540252685547
0.8558647155761718,0.9249790191650390
0.8558647155761718,0.9249790191650390
0.8471855163574219,0.9165023803710937
0.8471855163574219,0.9165023803710937
0.8542247772216797,0.9185194015502929
0.8542247772216797,0.9185194015502929
0.8487676620483399,0.9220138549804687
0.8487676620483399,0.9220138549804687
0.8484237670898437,0.9151039123535156
0.8475231170654297,0.9151039123535156
0.8539592742919921,0.9194944381713867
0.8539592742919921,0.9194944381713867
0.8453166961669921,0.9139039993286132
0.8453166961669921,0.9139039993286132
0.8524784088134766,0.9150318145751952
0.8524784088134766,0.9150318145751952
0.8473657608032227,0.9183626174926758
0.8473657608032227,0.9183626174926758
0.8468748092651367,0.9101720809936523
0.8468748092651367,0.9101720809936523
0.8524600982666015,0.9173692703247069
0.8524600982666015,0.9173692703247069
0.8437900543212891,0.9106092453002930
0.8437900543212891,0.9106092453002930
0.8511966705322266,0.9116088867187500
0.8511966705322266,0.9116088867187500
0.8460891723632812,0.9143108367919921
0.8460891723632812,0.9143108367919921
0.8456571578979492,0.9091672897338867
0.8456571578979492,0.9091672897338867
0.8515102386474609,0.9154266357421874
0.8515102386474609,0.9154266357421874
0.8430456161499024,0.9090185165405273
0.8430456161499024,0.9090185165405273
0.8506319046020507,0.9093309402465820
0.8506319046020507,0.9093309402465820
0.8462064743041992,0.9156412124633788
0.8462064743041992,0.9156412124633788
0.8460170745849609,0.9103094100952148
0.8460170745849609,0.9103094100952148
0.8524068832397461,0.9177961349487305
0.8524068832397461,0.9177961349487305
0.8440916061401367,0.9112770080566406
0.8562131881713867,0.9112770080566406
0.8522363662719726,0.9149225234985351
0.8522363662719726,0.9149225234985351
0.8482337951660156,0.9203596115112305
0.8482337951660156,0.9203596115112305
0.8477313995361327,0.9141775131225586
0.8477313995361327,0.9141775131225586
0.8537132263183593,0.9194795608520507
0.8537132263183593,0.9194795608520507
0.8451570510864258,0.9147731781005859
0.8451570510864258,0.9147731781005859
0.8529132843017578,0.9162969589233398
0.8529132843017578,0.9162969589233398
0.8488935470581055,0.9210634231567383
0.8488935470581055,0.9210634231567383
0.8479568481445312,0.9134759902954102
0.8479568481445312,0.9134759902954102
0.8540010452270508,0.9216367721557617
0.8540010452270508,0.9216367721557617
0.8454700469970703,0.9160285949707031
0.8454700469970703,0.9160285949707031
0.8533744812011719,0.9175798416137695
0.8533744812011719,0.9175798416137695
0.8496133804321289,0.9212448120117187
0.8496133804321289,0.9212448120117187
0.8488603591918945,0.9167512893676757
0.8488603591918945,0.9167512893676757
0.8550138473510742,0.9239192962646484
0.8550138473510742,0.9239192962646484
0.8464542388916015,0.9183591842651366
0.8464542388916015,0.9183591842651366
0.8543334960937500,0.9188335418701171
0.8543334960937500,0.9188335418701171
0.8509546279907226,0.9256605148315429
0.8509546279907226,0.9256605148315429
0.8499086380004882,0.9200918197631835
0.8499086380004882,0.9200918197631835
0.8563808441162110,0.9270944595336914
0.8563808441162110,0.9270944595336914
0.8473863601684570,0.9201015472412108
0.8473863601684570,0.9201015472412108
0.8554252624511719,0.9232526779174804
0.8554252624511719,0.9232526779174804
0.8523256301879882,0.9286937713623047
0.8523256301879882,0.9286937713623047
0.8511663436889648,0.9226598739624023
0.8511663436889648,0.9226598739624023
0.8573884963989258,0.9283493041992187
0.8573884963989258,0.9283493041992187
0.8484809875488281,0.9240056991577148
0.8484809875488281,0.9240056991577148
0.8565032958984374,0.9259941101074218
0.8565032958984374,0.9259941101074218
0.8535181045532226,0.9312314987182617
0.8535181045532226,0.9312314987182617
0.8520498275756836,0.9239004135131835
0.8520498275756836,0.9239004135131835
0.8583847045898437,0.9325349807739257
0.8583847045898437,0.9325349807739257
0.8495292663574219,0.9269851684570312
0.8495292663574219,0.9269851684570312
0.8576751708984375,0.9287258148193359
0.8576751708984375,0.9287258148193359
0.8548330307006836,0.9329841613769531
0.8548330307006836,0.9329841613769531
0.8533235549926758,0.9284740447998047
0.8533235549926758,0.9284740447998047
0.8597511291503906,0.9358222961425781
0.8597511291503906,0.9358222961425781
0.8508264541625976,0.9300710678100585
0.8508264541625976,0.9300710678100585
0.8588298797607422,0.9301557540893555
0.8500082015991210,0.9301557540893555
0.8560300827026367,0.9370697021484374
0.8560300827026367,0.9370697021484374
0.8543272018432617,0.9310060501098633
0.8543272018432617,0.9310060501098633
0.8608772277832031,0.9383228302001952
0.8608772277832031,0.9383228302001952
0.8517185211181640,0.9311834335327148
0.8517185211181640,0.9311834335327148
0.8598117828369141,0.9343883514404296
0.8598117828369141,0.9343883514404296
0.8575819015502929,0.9406328201293945
0.8575819015502929,0.9406328201293945
0.8558000564575196,0.9343906402587890
0.8558000564575196,0.9343906402587890
0.8623014450073242,0.9406368255615234
0.8623014450073242,0.9406368255615234
0.8532611846923828,0.9365415573120117
0.8532611846923828,0.9365415573120117
0.8617143630981445,0.9387645721435547
0.8617143630981445,0.9387645721435547
0.8598295211791992,0.9446914672851562
0.8598295211791992,0.9446914672851562
0.8576505661010742,0.9373844146728515
0.8576505661010742,0.9373844146728515
0.8644020080566406,0.9465225219726562
0.8644020080566406,0.9465225219726562
0.8553211212158203,0.9414133071899413
0.8553211212158203,0.9414133071899413
0.8637125015258789,0.9429697036743163
0.8637125015258789,0.9429697036743163
0.8617218017578124,0.9477155685424804
0.8617218017578124,0.9477155685424804
0.8593065261840820,0.9423151016235352
0.8593065261840820,0.9423151016235352
0.8653930664062500,0.9483695983886719
0.8653930664062500,0.9483695983886719
0.8550247192382813,0.9394884109497070
0.8550247192382813,0.9394884109497070
0.8610013961791992,0.9346132278442383
0.8610013961791992,0.9346132278442383
0.8566915512084960,0.9361444473266601
0.8566915512084960,0.9361444473266601
0.8519062042236328,0.9246934890747069
0.8519062042236328,0.9246934890747069
0.8566120147705077,0.9278903961181640
0.8566120147705077,0.9278903961181640
0.8456863403320313,0.9175998687744140
0.8456863403320313,0.9175998687744140
0.8525997161865234,0.9174242019653320
0.8525997161865234,0.9174242019653320
0.8501901626586914,0.9216110229492187
0.8501901626586914,0.9216110229492187
0.8468255996704102,0.9132230758666992
0.8468255996704102,0.9132230758666992
0.8527593612670898,0.9181257247924804
0.8527593612670898,0.9181257247924804
0.8427703857421874,0.9123888015747070
0.8427703857421874,0.9123888015747070
0.8503349304199218,0.9123950958251953
0.8503349304199218,0.9123950958251953
0.8483556747436524,0.9169389724731445
0.8483556747436524,0.9169389724731445
0.8448503494262695,0.9075662612915039
0.8448503494262695,0.9075662612915039
0.8509494781494140,0.9154169082641601
0.8509494781494140,0.9154169082641601
0.8409708023071288,0.9086179733276367
0.8409708023071288,0.9086179733276367
0.8486881256103516,0.9083862304687500
0.8486881256103516,0.9083862304687500
0.8468078613281250,0.9120901107788085
0.8468078613281250,0.9120901107788085
0.8433614730834961,0.9054399490356445
0.8433614730834961,0.9054399490356445
0.8497077941894531,0.9125427246093749
0.8497077941894531,0.9125427246093749
0.8399951934814452,0.9059549331665039
0.8399951934814452,0.9059549331665039
0.8475620269775390,0.9047510147094726
0.8475620269775390,0.9047510147094726
0.8460605621337890,0.9117073059082030
0.8460605621337890,0.9117073059082030
0.8427148818969726,0.9041147232055664
0.8427148818969726,0.9041147232055664
0.8496105194091796,0.9117570877075195
0.8496105194091796,0.9117570877075195
0.8400632858276367,0.9051538467407226
0.8400632858276367,0.9051538467407226
0.8483430862426757,0.9078346252441406
0.8483430862426757,0.9078346252441406
0.8473320007324219,0.9149946212768554
0.8473320007324219,0.9149946212768554
0.8445087432861328,0.9080017089843749
0.8445087432861328,0.9080017089843749
0.8514736175537109,0.9153917312622070
0.8514736175537109,0.9153917312622070
0.8423692703247070,0.9114847183227539
0.8423692703247070,0.9114847183227539
0.8503618240356445,0.9123252868652343
0.8503618240356445,0.9123252868652343
0.8493988037109375,0.9184999465942383
0.8493988037109375,0.9184999465942383
0.8456960678100586,0.9093692779541015
0.8456960678100586,0.9093692779541015
0.8525934219360352,0.9184335708618163
0.8525934219360352,0.9184335708618163
0.8430788040161132,0.9131801605224609
0.8430788040161132,0.9131801605224609
0.8509826660156250,0.9133958816528320
0.8509826660156250,0.9133958816528320
0.8498199462890624,0.9182996749877930
0.8498199462890624,0.9182996749877930
0.8462568283081054,0.9119676589965819
0.8462568283081054,0.9119676589965819
0.8533058166503906,0.9200735092163086
0.8533058166503906,0.9200735092163086
0.8440475463867188,0.9149528503417969
0.8440475463867188,0.9149528503417969
0.8519119262695313,0.9142942428588867
0.8519119262695313,0.9142942428588867
0.8508424758911133,0.9220321655273437
0.8508424758911133,0.9220321655273437
0.8471649169921874,0.9145626068115233
0.8471649169921874,0.9145626068115233
0.8544496536254883,0.9227926254272460
0.8544496536254883,0.9227926254272460
0.8451581954956054,0.9164646148681640
0.8451581954956054,0.9164646148681640
0.8531118392944336,0.9185377120971679
0.8531118392944336,0.9185377120971679
0.8549880981445312,0.9225391387939452
0.8449665069580078,0.9225391387939452
0.8489576339721679,0.9236143112182617
0.8570480346679688,0.9236143112182617
0.8510084152221680,0.9181777954101562
0.8510084152221680,0.9181777954101562
0.8555168151855469,0.9275671005249023
0.8555168151855469,0.9275671005249023
0.8495584487915039,0.9189634323120117
0.8495584487915039,0.9189634323120117
0.8563350677490235,0.9252319335937500
0.8563350677490235,0.9252319335937500
0.8504510879516601,0.9265171051025390
0.8504510879516601,0.9265171051025390
0.8523313522338867,0.9219783782958983
0.8523313522338867,0.9219783782958983
0.8568912506103515,0.9298387527465820
0.8568912506103515,0.9298387527465820
0.8509111404418945,0.9221597671508789
0.8509111404418945,0.9221597671508789
0.8576030731201172,0.9280643463134766
0.8576030731201172,0.9280643463134766
0.8517826080322265,0.9303062438964843
0.8517826080322265,0.9303062438964843
0.8535427093505860,0.9242609024047851
0.8535427093505860,0.9242609024047851
0.8582817077636719,0.9327810287475585
0.8582817077636719,0.9327810287475585
0.8522277832031250,0.9248622894287108
0.8522277832031250,0.9248622894287108
0.8588865280151367,0.9319101333618164
0.8588865280151367,0.9319101333618164
0.8530174255371094,0.9327409744262695
0.8530174255371094,0.9327409744262695
0.8548215866088867,0.9274148941040039
0.8548215866088867,0.9274148941040039
0.8596166610717774,0.9358886718749999
0.8596166610717774,0.9358886718749999
0.8537378311157227,0.9291343688964844
0.8537378311157227,0.9291343688964844
0.8604005813598633,0.9342573165893554
0.8604005813598633,0.9342573165893554
0.8545984268188477,0.9361627578735351
0.8545984268188477,0.9361627578735351
0.8562372207641601,0.9304475784301758
0.8562372207641601,0.9304475784301758
0.8611873626708985,0.9399518966674805
0.8611873626708985,0.9399518966674805
0.8552747726440429,0.9322185516357422
0.8552747726440429,0.9322185516357422
0.8619232177734375,0.9377815246582031
0.8619232177734375,0.9377815246582031
0.8560518264770508,0.9396566390991210
0.8560518264770508,0.9396566390991210
0.8579589843750000,0.9351293563842773
0.8579589843750000,0.9351293563842773
0.8628055572509765,0.9429811477661132
0.8628055572509765,0.9429811477661132
0.8568838119506835,0.9359127044677734
0.8568838119506835,0.9359127044677734
0.8635751724243164,0.9409126281738280
0.8635751724243164,0.9409126281738280
0.8575727462768554,0.9441335678100585
0.8575727462768554,0.9441335678100585
0.8593786239624023,0.9381826400756835
0.8593786239624023,0.9381826400756835
0.8644145965576172,0.9466192245483398
0.8644145965576172,0.9466192245483398
0.8583160400390625,0.9393991470336913
0.8583160400390625,0.9393991470336913
0.8650835037231445,0.9453191757202148
0.8650835037231445,0.9453191757202148
0.8591171264648437,0.9466569900512695
0.8603010177612305,0.9399410247802734
0.8643625259399413,0.9451400756835937
0.8643625259399413,0.9451400756835937
0.8563333511352539,0.9342384338378906
0.8563333511352539,0.9342384338378906
0.8604829788208007,0.9325304031372070
0.8604829788208007,0.9325304031372070
0.8516750335693359,0.9292934417724609
0.8516750335693359,0.9292934417724609
0.8511234283447265,0.9190681457519531
0.8511234283447265,0.9190681457519531
0.8547323226928710,0.9243553161621093
0.8547323226928710,0.9243553161621093
0.8472278594970702,0.9140476226806640
0.8472278594970702,0.9140476226806640
0.8529207229614257,0.9160869598388671
0.8529207229614257,0.9160869598388671
0.8462253570556640,0.9167530059814453
0.8462253570556640,0.9167530059814453
0.8470333099365234,0.9106201171874999
0.8470333099365234,0.9106201171874999
0.8514598846435547,0.9166769027709960
0.8514598846435547,0.9166769027709960
0.8446306228637696,0.9084686279296874
0.8446306228637696,0.9084686279296874
0.8510547637939453,0.9112810134887694
0.8510547637939453,0.9112810134887694
0.8442375183105468,0.9134325027465819
0.8442375183105468,0.9134325027465819
0.8452920913696289,0.9059732437133788
0.8452920913696289,0.9059732437133788
0.8499647140502929,0.9126651763916015
0.8499647140502929,0.9126651763916015
0.8429391860961913,0.9043888092041015
0.8429391860961913,0.9043888092041015
0.8494691848754883,0.9080549240112304
0.8494691848754883,0.9080549240112304
0.8428899765014648,0.9091438293457030
0.8428899765014648,0.9091438293457030
0.8436229705810546,0.9025869369506836
0.8436229705810546,0.9025869369506836
0.8485885620117187,0.9096015930175780
0.8485885620117187,0.9096015930175780
0.8418491363525390,0.9027614593505859
0.8418491363525390,0.9027614593505859
0.8485359191894531,0.9051778793334960
0.8485359191894531,0.9051778793334960
0.8420328140258789,0.9076040267944335
0.8420328140258789,0.9076040267944335
0.8432270050048828,0.9013509750366211
0.8432270050048828,0.9013509750366211
0.8485055923461914,0.9099975585937500
0.8485055923461914,0.9099975585937500
0.8419281005859375,0.9028610229492187
0.8419281005859375,0.9028610229492187
0.8490509033203125,0.9065689086914062
0.8490509033203125,0.9065689086914062
0.8431131362915039,0.9104049682617187
0.8431131362915039,0.9104049682617187
0.8447742462158203,0.9060441970825195
0.8447742462158203,0.9060441970825195
0.8504379272460937,0.9136791229248047
0.8504379272460937,0.9136791229248047
0.8439989089965820,0.9074684143066406
0.8439989089965820,0.9074684143066406
0.8511125564575195,0.9104713439941405
0.8511125564575195,0.9104713439941405
0.8448326110839843,0.9146684646606444
0.8448326110839843,0.9146684646606444
0.8461915969848632,0.9082946777343750
0.8461915969848632,0.9082946777343750
0.8512859344482422,0.9157785415649413
0.8512859344482422,0.9157785415649413
0.8445579528808593,0.9089727401733398
0.8445579528808593,0.9089727401733398
0.8516778945922852,0.9124523162841797
0.8516778945922852,0.9124523162841797
0.8454786300659179,0.9153333663940429
0.8454786300659179,0.9153333663940429
0.8466773986816406,0.9096559524536132
0.8466773986816406,0.9096559524536132
0.8521900177001953,0.9170534133911132
0.8521900177001953,0.9170534133911132
0.8455192565917968,0.9115791320800781
0.8455192565917968,0.9115791320800781
0.8526483535766601,0.9141094207763671
0.8526483535766601,0.9141094207763671
0.8466276168823242,0.9179821014404297
0.8466276168823242,0.9179821014404297
0.8477869033813477,0.9125164031982421
0.8477869033813477,0.9125164031982421
0.8535541534423828,0.9210760116577148
0.8535541534423828,0.9210760116577148
0.8467237472534179,0.9143829345703125
0.8467237472534179,0.9143829345703125
0.8541200637817382,0.9172628402709960
0.8541200637817382,0.9172628402709960
0.8479745864868163,0.9213174819946288
0.8479745864868163,0.9213174819946288
0.8492786407470703,0.9168285369873046
0.8473337173461913,0.9168285369873046
0.8549669265747070,0.9238254547119140
0.8549669265747070,0.9238254547119140
0.8480546951293945,0.9179306030273438
0.8480546951293945,0.9179306030273438
0.8555940628051758,0.9203722000122070
0.8555940628051758,0.9203722000122070
0.8496597290039062,0.9253892898559570
0.8496597290039062,0.9253892898559570
0.8506021499633789,0.9196065902709960
0.8506021499633789,0.9196065902709960
0.8564855575561523,0.9272277832031249
0.8564855575561523,0.9272277832031249
0.8494600296020508,0.9211526870727539
0.8494600296020508,0.9211526870727539
0.8570737838745117,0.9245796203613281
0.8463861465454101,0.9245796203613281
0.8512516021728516,0.9283613204956054
0.8512516021728516,0.9283613204956054
0.8519857406616210,0.9229694366455078
0.8519857406616210,0.9229694366455078
0.8579017639160156,0.9305603027343750
0.8579017639160156,0.9305603027343750
0.8509477615356446,0.9254888534545898
0.8509477615356446,0.9254888534545898
0.8583909988403320,0.9273897171020508
0.8583909988403320,0.9273897171020508
0.8528171539306640,0.9320388793945312
0.8528171539306640,0.9320388793945312
0.8535850524902343,0.9264106750488281
0.8535850524902343,0.9264106750488281
0.8595989227294921,0.9348180770874023
0.8595989227294921,0.9348180770874023
0.8522964477539062,0.9282548904418945
0.8522964477539062,0.9282548904418945
0.8598049163818359,0.9308887481689453
0.8598049163818359,0.9308887481689453
0.8542882919311523,0.9354509353637694
0.8542882919311523,0.9354509353637694
0.8549903869628906,0.9307880401611328
0.8549903869628906,0.9307880401611328
0.8611438751220702,0.9374839782714843
0.8611438751220702,0.9374839782714843
0.8535919189453125,0.9318294525146484
0.8535919189453125,0.9318294525146484
0.8614597320556641,0.9338973999023437
0.8614597320556641,0.9338973999023437
0.8558504104614257,0.9395748138427734
0.8558504104614257,0.9395748138427734
0.8566154479980469,0.9336124420166015
0.8566154479980469,0.9336124420166015
0.8626401901245117,0.9410825729370117
0.8626401901245117,0.9410825729370117
0.8550310134887695,0.9353771209716797
0.8550310134887695,0.9353771209716797
0.8629846572875977,0.9385391235351562
0.8629846572875977,0.9385391235351562
0.8575561523437499,0.9427946090698242
0.8575561523437499,0.9427946090698242
0.8582056045532226,0.9374353408813476
0.8582056045532226,0.9374353408813476
0.8643630981445313,0.9444465637207031
0.8643630981445313,0.9444465637207031
0.8567230224609375,0.9398277282714843
0.8567230224609375,0.9398277282714843
0.8644535064697265,0.9417863845825195
0.8644535064697265,0.9417863845825195
0.8593397140502930,0.9468332290649414
0.8593397140502930,0.9468332290649414
0.8600223541259765,0.9417320251464844
0.8600223541259765,0.9417320251464844
0.8662633895874023,0.9495477676391602
0.8662633895874023,0.9495477676391602
0.8584859848022460,0.9435894012451171
0.8584859848022460,0.9435894012451171
0.8665397644042968,0.9457706451416015
0.8665397644042968,0.9457706451416015
0.8610855102539062,0.9498350143432617
0.8610855102539062,0.9498350143432617
0.8607416152954102,0.9431962966918945
0.8607416152954102,0.9431962966918945
0.8651544570922851,0.9454015731811523
0.8651544570922851,0.9454015731811523
0.8545623779296875,0.9340066909790039
0.8545623779296875,0.9340066909790039
0.8596767425537110,0.9298284530639648
0.8596767425537110,0.9298284530639648
0.8522008895874024,0.9297700881958008
0.8522008895874024,0.9297700881958008
0.8504304885864258,0.9194257736206054
0.8504304885864258,0.9194257736206054
0.8550395965576172,0.9230815887451171
0.8550395965576172,0.9230815887451171
0.8458333969116211,0.9147354125976562
0.8458333969116211,0.9147354125976562
0.8528371810913086,0.9159090042114257
0.8528371810913086,0.9159090042114257
0.8474224090576171,0.9185794830322265
0.8474224090576171,0.9185794830322265
0.8468559265136718,0.9116357803344726
0.8468559265136718,0.9116357803344726
0.8524394989013672,0.9172960281372070
0.8524394989013672,0.9172960281372070
0.8436281204223632,0.9111293792724608
0.8436281204223632,0.9111293792724608
0.8511411666870117,0.9112941741943359
0.8412282943725585,0.9112941741943359
0.8459541320800781,0.9149539947509765
0.8459541320800781,0.9149539947509765
0.8454116821289063,0.9078901290893554
0.8454116821289063,0.9078901290893554
0.8510335922241211,0.9143606185913086
0.8510335922241211,0.9143606185913086
0.8422496795654296,0.9068670272827148
0.8422496795654296,0.9068670272827148
0.8495315551757813,0.9078248977661132
0.8495315551757813,0.9078248977661132
0.8446758270263671,0.9117250442504883
0.8446758270263671,0.9117250442504883
0.8441305160522461,0.9057415008544921
0.8441305160522461,0.9057415008544921
0.8497987747192383,0.9112953186035155
0.8497987747192383,0.9112953186035155
0.8410846710205078,0.9048002243041992
0.8410846710205078,0.9048002243041992
0.8487751007080078,0.9017738342285155
0.8487751007080078,0.9017738342285155
0.8494468688964844,0.9093612670898437
0.8494468688964844,0.9093612670898437
0.8418107986450195,0.9086671829223633
0.8418107986450195,0.9086671829223633
0.8468147277832031,0.9035808563232421
0.8468147277832031,0.9035808563232421
0.8484094619750976,0.9130594253540039
0.8484094619750976,0.9130594253540039
0.8428585052490234,0.9051876068115234
0.8428585052490234,0.9051876068115234
0.8512636184692383,0.9132631301879882
0.8512636184692383,0.9132631301879882
0.8437082290649414,0.9120574951171875
0.8437082290649414,0.9120574951171875
0.8488677978515625,0.9094974517822265
0.8488677978515625,0.9094974517822265
0.8501901626586914,0.9172742843627929
0.8501901626586914,0.9172742843627929
0.8447353363037109,0.9083335876464843
0.8447353363037109,0.9083335876464843
0.8524011611938477,0.9147462844848633
0.8524011611938477,0.9147462844848633
0.8448932647705077,0.9152915954589843
0.8448932647705077,0.9152915954589843
0.8494846343994140,0.9113376617431640
0.8494846343994140,0.9113376617431640
0.8513620376586913,0.9185171127319336
0.8513620376586913,0.9185171127319336
0.8452823638916015,0.9082597732543944
0.8452823638916015,0.9082597732543944
0.8529836654663085,0.9175323486328124
0.8529836654663085,0.9175323486328124
0.8457790374755859,0.9171083450317382
0.8457790374755859,0.9171083450317382
0.8504407882690429,0.9131401062011718
0.8504407882690429,0.9131401062011718
0.8521333694458008,0.9195110321044921
0.8521333694458008,0.9195110321044921
0.8463747024536132,0.9122852325439452
0.8463747024536132,0.9122852325439452
0.8542476654052734,0.9205049514770507
0.8542476654052734,0.9205049514770507
0.8472312927246094,0.9201313018798828
0.8472312927246094,0.9201313018798828
0.8514398574829102,0.9148132324218750
0.8514398574829102,0.9148132324218750
0.8535346984863281,0.9241516113281250
0.8535346984863281,0.9241516113281250
0.8479831695556640,0.9157333374023438
0.8479831695556640,0.9157333374023438
0.8559099197387695,0.9238306045532226
0.8559099197387695,0.9238306045532226
0.8486309051513672,0.9223136901855469
0.8486309051513672,0.9223136901855469
0.8526638031005859,0.9195213317871094
0.8526638031005859,0.9195213317871094
0.8549903869628906,0.9278903961181640
0.8549903869628906,0.9278903961181640
0.8496259689331055,0.9190361022949218
0.8496259689331055,0.9190361022949218
0.8569044113159180,0.9256124496459961
0.8569044113159180,0.9256124496459961
0.8500757217407227,0.9269142150878906
0.8500757217407227,0.9269142150878906
0.8539094924926758,0.9227262496948242
0.8539094924926758,0.9227262496948242
0.8567630767822265,0.9307491302490234
0.8567630767822265,0.9307491302490234
0.8509626388549805,0.9209300994873046
0.8509626388549805,0.9209300994873046
0.8586032867431640,0.9304412841796874
0.8586032867431640,0.9304412841796874
0.8518678665161132,0.9305974960327148
0.8518678665161132,0.9305974960327148
0.8556535720825195,0.9262367248535156
0.8556535720825195,0.9262367248535156
0.8582090377807617,0.9330705642700194
0.8582090377807617,0.9330705642700194
0.8524669647216797,0.9258132934570312
0.8524669647216797,0.9258132934570312
0.8601797103881835,0.9337474822998046
0.8601797103881835,0.9337474822998046
0.8535736083984374,0.9337823867797851
0.8535736083984374,0.9337823867797851
0.8568283081054687,0.9282102584838867
0.8568283081054687,0.9282102584838867
0.8596372604370117,0.9378782272338867
0.8596372604370117,0.9378782272338867
0.8541051864624023,0.9296499252319336
0.8541051864624023,0.9296499252319336
0.8618122100830078,0.9372470855712890
0.8618122100830078,0.9372470855712890
0.8549726486206054,0.9360134124755859
0.8549726486206054,0.9360134124755859
0.8582611083984375,0.9330945968627929
0.8582611083984375,0.9330945968627929
0.8612691879272460,0.9415328979492187
0.8612691879272460,0.9415328979492187
0.8558172225952149,0.9329767227172852
0.8558172225952149,0.9329767227172852
0.8632083892822265,0.9395736694335937
0.8632083892822265,0.9395736694335937
0.8566509246826172,0.9410476684570312
0.8566509246826172,0.9410476684570312
0.8599153518676758,0.9370943069458008
0.8599153518676758,0.9370943069458008
0.8632169723510742,0.9452402114868164
0.8632169723510742,0.9452402114868164
0.8574462890625000,0.9354784011840820
0.8574462890625000,0.9354784011840820
0.8648008346557617,0.9447137832641601
0.8648008346557617,0.9447137832641601
0.8585649490356445,0.9451543807983398
0.8585649490356445,0.9451543807983398
0.8617160797119140,0.9407695770263671
0.8617160797119140,0.9407695770263671
0.8646921157836914,0.9476926803588867
0.8646921157836914,0.9476926803588867
0.8591932296752930,0.9406145095825195
0.8591932296752930,0.9406145095825195
0.8666719436645508,0.9488348007202148
0.8666719436645508,0.9488348007202148
0.8605115890502929,0.9492931365966797
0.8605115890502929,0.9492931365966797
0.8631935119628906,0.9436689376831054
0.8631935119628906,0.9436689376831054
0.8667303085327148,0.9536996841430664
0.8667303085327148,0.9536996841430664
0.8615043640136718,0.9453186035156249
0.8615043640136718,0.9453186035156249
0.8689905166625976,0.9532636642456054
0.8689905166625976,0.9532636642456054
0.8622762680053710,0.9518840789794921
0.8622762680053710,0.9518840789794921
0.8644374847412110,0.9472085952758789
0.8644374847412110,0.9472085952758789
0.8667022705078125,0.9521404266357422
0.8667022705078125,0.9521404266357422
0.8587629318237304,0.9373020172119140
0.8587629318237304,0.9373020172119140
0.8625577926635742,0.9364660263061523
0.8506078720092773,0.9364660263061523
0.8531238555908203,0.9315959930419921
0.8531238555908203,0.9315959930419921
0.8533315658569336,0.9220178604125976
0.8533315658569336,0.9220178604125976
0.8553451538085938,0.9266418457031249
0.8553451538085938,0.9266418457031249
0.8483013153076172,0.9140670776367187
0.8483013153076172,0.9140670776367187
0.8544610977172852,0.9207143783569336
0.8544610977172852,0.9207143783569336
0.8475442886352539,0.9196008682250976
0.8475442886352539,0.9196008682250976
0.8494709014892577,0.9132682800292968
0.8494709014892577,0.9132682800292968
0.8525161743164062,0.9190223693847656
0.8525161743164062,0.9190223693847656
0.8463541030883789,0.9107769012451171
0.8463541030883789,0.9107769012451171
0.8531478881835938,0.9170087814331054
0.8531478881835938,0.9170087814331054
0.8465515136718750,0.9163221359252929
0.8465515136718750,0.9163221359252929
0.8480197906494140,0.9089521408081054
0.8480197906494140,0.9089521408081054
0.8513299942016601,0.9174339294433593
0.8513299942016601,0.9174339294433593
0.8454185485839844,0.9079610824584960
0.8454185485839844,0.9079610824584960
0.8520566940307617,0.9140064239501953
0.8520566940307617,0.9140064239501953
0.8451015472412109,0.9122446060180663
0.8451015472412109,0.9122446060180663
0.8468914031982422,0.9076251983642578
0.8468914031982422,0.9076251983642578
0.8504138946533203,0.9150707244873046
0.8504138946533203,0.9150707244873046
0.8447633743286133,0.9058261871337890
0.8447633743286133,0.9058261871337890
0.8510730743408202,0.9110469818115234
0.8510730743408202,0.9110469818115234
0.8445676803588867,0.9124477386474609
0.8528932571411133,0.9124477386474609
0.8466705322265625,0.9072372436523437
0.8466705322265625,0.9072372436523437
0.8508974075317383,0.9154838562011718
0.8508974075317383,0.9154838562011718
0.8451993942260742,0.9059572219848633
0.8451993942260742,0.9059572219848633
0.8521511077880859,0.9151456832885742
0.8521511077880859,0.9151456832885742
0.8463014602661133,0.9164588928222656
0.8463014602661133,0.9164588928222656
0.8487173080444336,0.9116151809692382
0.8487173080444336,0.9116151809692382
0.8527410507202148,0.9187826156616210
0.8527410507202148,0.9187826156616210
0.8470647811889648,0.9117467880249023
0.8470647811889648,0.9117467880249023
0.8538356781005859,0.9186864852905273
0.8538356781005859,0.9186864852905273
0.8478612899780273,0.9190195083618163
0.8478612899780273,0.9190195083618163
0.8493352890014648,0.9121221542358398
0.8493352890014648,0.9121221542358398
0.8535032272338867,0.9214279174804687
0.8535032272338867,0.9214279174804687
0.8477010726928711,0.9130989074707031
0.8477010726928711,0.9130989074707031
0.8546264648437499,0.9196346282958984
0.8546264648437499,0.9196346282958984
0.8482091903686523,0.9190069198608398
0.8482091903686523,0.9190069198608398
0.8501340866088867,0.9150861740112304
0.8501340866088867,0.9150861740112304
0.8544284820556640,0.9235198974609374
0.8544284820556640,0.9235198974609374
0.8488323211669921,0.9152881622314453
0.8488323211669921,0.9152881622314453
0.8553325653076171,0.9205965042114257
0.8553325653076171,0.9205965042114257
0.8492774963378906,0.9230197906494140
0.8492774963378906,0.9230197906494140
0.8512327194213867,0.9180713653564453
0.8512327194213867,0.9180713653564453
0.8559831619262696,0.9264003753662109
0.8559831619262696,0.9264003753662109
0.8500534057617187,0.9170946121215819
0.8500534057617187,0.9170946121215819
0.8567350387573242,0.9251649856567382
0.8567350387573242,0.9251649856567382
0.8507640838623046,0.9266996383666992
0.8507640838623046,0.9266996383666992
0.8529441833496093,0.9213352203369141
0.8529441833496093,0.9213352203369141
0.8571767807006836,0.9283264160156249
0.8571767807006836,0.9283264160156249
0.8514198303222656,0.9219057083129882
0.8514198303222656,0.9219057083129882
0.8581443786621094,0.9283590316772461
0.8581443786621094,0.9283590316772461
0.8522460937499999,0.9295635223388672
0.8522460937499999,0.9295635223388672
0.8539855957031249,0.9229207992553711
0.8539855957031249,0.9229207992553711
0.8585163116455078,0.9328845977783202
0.8585163116455078,0.9328845977783202
0.8529041290283202,0.9254808425903320
0.8529041290283202,0.9254808425903320
0.8598346710205078,0.9315536499023437
0.8598346710205078,0.9315536499023437
0.8536056518554688,0.9315959930419921
0.8536056518554688,0.9315959930419921
0.8555219650268554,0.9277353286743164
0.8555219650268554,0.9277353286743164
0.8601104736328125,0.9361570358276367
0.8601104736328125,0.9361570358276367
0.8546516418457031,0.9287281036376953
0.8546516418457031,0.9287281036376953
0.8609601974487304,0.9334951400756836
0.8609601974487304,0.9334951400756836
0.8551420211791992,0.9364042282104492
0.8551420211791992,0.9364042282104492
0.8568603515625000,0.9315118789672852
0.8568603515625000,0.9315118789672852
0.8619060516357422,0.9395874023437499
0.8619060516357422,0.9395874023437499
0.8559865951538086,0.9310083389282227
0.8559865951538086,0.9310083389282227
0.8625417709350586,0.9382936477661132
0.8625417709350586,0.9382936477661132
0.8566463470458984,0.9398952484130859
0.8566463470458984,0.9398952484130859
0.8587017059326172,0.9346750259399413
0.8587017059326172,0.9346750259399413
0.8630928039550781,0.9414945602416992
0.8630928039550781,0.9414945602416992
0.8573575973510742,0.9358234405517578
0.8573575973510742,0.9358234405517578
0.8642103195190429,0.9418727874755859
0.8642103195190429,0.9418727874755859
0.8584184646606445,0.9435899734497070
0.8657032012939453,0.9435899734497070
0.8599451065063476,0.9370250701904297
0.8599451065063476,0.9370250701904297
0.8648820877075195,0.9468257904052734
0.8648820877075195,0.9468257904052734
0.8590867996215820,0.9398214340209960
0.8590867996215820,0.9398214340209960
0.8662227630615235,0.9453878402709961
0.8662227630615235,0.9453878402709961
0.8599536895751952,0.9461299896240234
0.8599536895751952,0.9461299896240234
0.8617630004882812,0.9423339843749999
0.8617630004882812,0.9423339843749999
0.8666679382324218,0.9509393692016601
0.8652740478515625,0.9454828262329101
0.8677225112915039,0.9523406982421875
0.8677225112915039,0.9454879760742188
0.8607290267944335,0.9440460205078125
0.8607290267944335,0.9440460205078125
0.8682443618774414,0.9534542083740234
0.8682443618774414,0.9534542083740234
0.8595022201538086,0.9498853683471680
0.8595022201538086,0.9498853683471680
0.8671817779541016,0.9495912551879883
0.8671817779541016,0.9495912551879883
0.8663606643676758,0.9557458877563476
0.8663606643676758,0.9557458877563476
0.8616531372070312,0.9461957931518554
0.8616531372070312,0.9461957931518554
0.8673053741455078,0.9496810913085937
0.8673053741455078,0.9496810913085937
0.8557325363159179,0.9401498794555664
0.8557325363159179,0.9401498794555664
0.8603410720825195,0.9327455520629883
0.8603410720825195,0.9327455520629883
0.8569061279296875,0.9342573165893554
0.8569061279296875,0.9342573165893554
0.8506084442138672,0.9206600189208984
0.8506084442138672,0.9206600189208984
0.8564174652099609,0.9256931304931640
0.8564174652099609,0.9256931304931640
0.8464147567749023,0.9200014114379882
0.8464147567749023,0.9200014114379882
0.8531490325927734,0.9182413101196288
0.8531490325927734,0.9182413101196288
0.8518301010131836,0.9227817535400390
0.8518301010131836,0.9227817535400390
0.8472141265869141,0.9130165100097656
0.8472141265869141,0.9130165100097656
0.8540456771850585,0.9198692321777343
0.8540456771850585,0.9198692321777343
0.8447267532348632,0.9167804718017578
0.8447267532348632,0.9167804718017578
0.8517093658447266,0.9141597747802734
0.8517093658447266,0.9141597747802734
0.8506439208984374,0.9197113037109375
0.8517225265502929,0.9197113037109375
0.8459037780761719,0.9099363327026366
0.8459037780761719,0.9099363327026366
0.8528280258178711,0.9177886962890625
0.8528280258178711,0.9177886962890625
0.8434804916381836,0.9134845733642578
0.8434804916381836,0.9134845733642578
0.8507160186767578,0.9114749908447265
0.8507160186767578,0.9114749908447265
0.8495452880859374,0.9167552947998047
0.8495452880859374,0.9167552947998047
0.8448326110839843,0.9081985473632812
0.8448326110839843,0.9081985473632812
0.8518964767456054,0.9150318145751952
0.8518964767456054,0.9150318145751952
0.8425752639770507,0.9116701126098632
0.8425752639770507,0.9116701126098632
0.8498399734497070,0.9099145889282226
0.8498399734497070,0.9099145889282226
0.8491178512573242,0.9165882110595702
0.8491178512573242,0.9165882110595702
0.8446729660034179,0.9071067810058593
0.8446729660034179,0.9071067810058593
0.8522661209106445,0.9155113220214843
0.8522661209106445,0.9155113220214843
0.8432641983032226,0.9132190704345703
0.8432641983032226,0.9132190704345703
0.8511131286621093,0.9132276535034179
0.8511131286621093,0.9132276535034179
0.8506782531738281,0.9200019836425781
0.8506782531738281,0.9200019836425781
0.8463678359985352,0.9116506576538086
0.8463678359985352,0.9116506576538086
0.8541280746459960,0.9203767776489258
0.8541280746459960,0.9203767776489258
0.8453166961669921,0.9186504364013671
0.8453166961669921,0.9186504364013671
0.8528491973876953,0.9165407180786133
0.8528491973876953,0.9165407180786133
0.8522615432739258,0.9229602813720703
0.8522615432739258,0.9229602813720703
0.8475454330444335,0.9135469436645507
0.8475454330444335,0.9135469436645507
0.8550905227661133,0.9224143981933594
0.8550905227661133,0.9224143981933594
0.8461521148681640,0.9197748184204101
0.8461521148681640,0.9197748184204101
0.8534803390502930,0.9178905487060547
0.8534803390502930,0.9178905487060547
0.8529561996459961,0.9245779037475585
0.8529561996459961,0.9245779037475585
0.8482709884643554,0.9162139892578125
0.8482709884643554,0.9162139892578125
0.8559528350830078,0.9239988327026367
0.8559528350830078,0.9239988327026367
0.8471014022827148,0.9222021102905273
0.8471014022827148,0.9222021102905273
0.8543992996215820,0.9201496124267577
0.8543992996215820,0.9201496124267577
0.8541034698486328,0.9278709411621093
0.8541034698486328,0.9278709411621093
0.8494056701660156,0.9184232711791992
0.8494056701660156,0.9184232711791992
0.8573976516723633,0.9269742965698242
0.8573976516723633,0.9269742965698242
0.8483030319213867,0.9255306243896484
0.8483030319213867,0.9255306243896484
0.8558876037597656,0.9243278503417969
0.8558876037597656,0.9243278503417969
0.8556896209716797,0.9308200836181640
0.8556896209716797,0.9308200836181640
0.8510965347290039,0.9219606399536132
0.8510965347290039,0.9219606399536132
0.8588556289672852,0.9303079605102539
0.8588556289672852,0.9303079605102539
0.8500425338745117,0.9297918319702148
0.8500425338745117,0.9297918319702148
0.8574119567871094,0.9272638320922851
0.8574119567871094,0.9272638320922851
0.8572036743164062,0.9342573165893554
0.8572036743164062,0.9342573165893554
0.8524560928344727,0.9251604080200195
0.8524560928344727,0.9251604080200195
0.8603748321533203,0.9345903396606445
0.8603748321533203,0.9345903396606445
0.8514152526855469,0.9326213836669921
0.8514152526855469,0.9326213836669921
0.8588018417358398,0.9305351257324218
0.8588018417358398,0.9305351257324218
0.8587383270263672,0.9371583938598632
0.8587383270263672,0.9371583938598632
0.8539352416992188,0.9293827056884765
0.8539352416992188,0.9293827056884765
0.8618436813354492,0.9372528076171874
0.8618436813354492,0.9372528076171874
0.8528829574584961,0.9361324310302734
0.8528829574584961,0.9361324310302734
0.8603811264038086,0.9339677810668945
0.8603811264038086,0.9339677810668945
0.8603536605834960,0.9416387557983398
0.8603536605834960,0.9416387557983398
0.8555196762084961,0.9323364257812500
0.8555196762084961,0.9323364257812500
0.8634510040283203,0.9409229278564453
0.8634510040283203,0.9409229278564453
0.8545503616333008,0.9395679473876952
0.8545503616333008,0.9395679473876952
0.8618322372436523,0.9383388519287109
0.8618322372436523,0.9383388519287109
0.8620038986206054,0.9449094772338866
0.8620038986206054,0.9449094772338866
0.8569816589355469,0.9360157012939453
0.8569816589355469,0.9360157012939453
0.8650348663330077,0.9446451187133789
0.8650348663330077,0.9446451187133789
0.8562280654907226,0.9443178176879883
0.8562280654907226,0.9443178176879883
0.8636289596557617,0.9412708282470703
0.8636289596557617,0.9412708282470703
0.8636037826538085,0.9485858917236327
0.8636037826538085,0.9485858917236327
0.8586433410644531,0.9393516540527344
0.8586433410644531,0.9393516540527344
0.8668195724487304,0.9490493774414062
0.8668195724487304,0.9490493774414062
0.8580259323120117,0.9477916717529297
0.8580259323120117,0.9477916717529297
0.8652500152587891,0.9453306198120117
0.8652500152587891,0.9453306198120117
0.8654548645019531,0.9527206420898438
0.8654548645019531,0.9527206420898438
0.8606122970581055,0.9445959091186523
0.8606122970581055,0.9445959091186523
0.8685676574707031,0.9527257919311523
0.8685676574707031,0.9527257919311523
0.8599491119384766,0.9519968032836914
0.8599491119384766,0.9519968032836914
0.8671319961547851,0.9492599487304687
0.8671319961547851,0.9492599487304687
0.8675188064575196,0.9577800750732421
0.8675188064575196,0.9577800750732421
0.8626625061035156,0.9485898971557617
0.8626625061035156,0.9485898971557617
0.8707466125488281,0.9574848175048828
0.8707466125488281,0.9574848175048828
0.8620862960815430,0.9568925857543945
0.8620862960815430,0.9568925857543945
0.8694150924682617,0.9549705505371093
0.8694150924682617,0.9549705505371093
0.8695615768432617,0.9614198684692382
0.8695615768432617,0.9614198684692382
0.8640306472778320,0.9510807037353515
0.8640306472778320,0.9510807037353515
0.8705091476440430,0.9553785324096680
0.8705091476440430,0.9553785324096680
0.8591691970825195,0.9491065979003905
0.8591691970825195,0.9491065979003905
0.8627626419067382,0.9381614685058594
0.8627626419067382,0.9381614685058594
0.8596338272094727,0.9384160995483398
0.8596338272094727,0.9384160995483398
0.8519737243652343,0.9238992691040039
0.8519737243652343,0.9238992691040039
0.8582422256469726,0.9290262222290039
0.8582422256469726,0.9290262222290039
0.8481210708618164,0.9250717163085938
0.8481210708618164,0.9250717163085938
0.8542980194091797,0.9197919845581054
0.8542980194091797,0.9197919845581054
0.8538522720336914,0.9252977371215820
0.8538522720336914,0.9252977371215820
0.8480792999267578,0.9160497665405273
0.8480792999267578,0.9160497665405273
0.8556066513061523,0.9227090835571289
0.8556066513061523,0.9227090835571289
0.8463518142700195,0.9208345413208008
0.8463518142700195,0.9208345413208008
0.8529315948486328,0.9166276931762695
0.8529315948486328,0.9166276931762695
0.8527622222900391,0.9234214782714844
0.8527622222900391,0.9234214782714844
0.8469669342041015,0.9127996444702148
0.8469669342041015,0.9127996444702148
0.8545091629028320,0.9197845458984375
0.8545091629028320,0.9197845458984375
0.8453693389892578,0.9178327560424804
0.8453693389892578,0.9178327560424804
0.8517940521240234,0.9144910812377929
0.8517940521240234,0.9144910812377929
0.8516773223876953,0.9201433181762695
0.8516773223876953,0.9201433181762695
0.8458545684814452,0.9103483200073241
0.8458545684814452,0.9103483200073241
0.8535976409912109,0.9175638198852538
0.8535976409912109,0.9175638198852538
0.8446672439575195,0.9168519973754883
0.8446672439575195,0.9168519973754883
0.8511789321899413,0.9125604629516602
0.8511789321899413,0.9125604629516602
0.8513723373413086,0.9193090438842773
0.8513723373413086,0.9193090438842773
0.8457012176513672,0.9098733901977538
0.8457012176513672,0.9098733901977538
0.8538488388061524,0.9186000823974609
0.8538488388061524,0.9186000823974609
0.8452554702758789,0.9176622390747070
0.8452554702758789,0.9176622390747070
0.8520286560058593,0.9148710250854492
0.8520286560058593,0.9148710250854492
0.8527610778808593,0.9228916168212891
0.8527610778808593,0.9228916168212891
0.8475637435913086,0.9151491165161132
0.8475637435913086,0.9151491165161132
0.8558509826660156,0.9232126235961914
0.8558509826660156,0.9232126235961914
0.8474842071533203,0.9227193832397460
0.8474842071533203,0.9227193832397460
0.8539621353149414,0.9189983367919922
0.8539621353149414,0.9189983367919922
0.8545005798339843,0.9269359588623046
0.8545005798339843,0.9269359588623046
0.8488477706909180,0.9173784255981445
0.8488477706909180,0.9173784255981445
0.8568723678588867,0.9252588272094726
0.8568723678588867,0.9252588272094726
0.8484060287475585,0.9242889404296875
0.8484060287475585,0.9242889404296875
0.8547437667846679,0.9213272094726562
0.8547437667846679,0.9213272094726562
0.8551631927490234,0.9280717849731445
0.8551631927490234,0.9280717849731445
0.8496774673461914,0.9192180633544922
0.8496774673461914,0.9192180633544922
0.8576608657836914,0.9269565582275390
0.8576608657836914,0.9269565582275390
0.8494565963745117,0.9271814346313476
0.8494565963745117,0.9271814346313476
0.8507017135620117,0.9277233123779296
0.8507017135620117,0.9241785049438476
0.8620204925537109,0.9322860717773437
0.8481004714965820,0.9215841293334961
0.8508207321166992,0.9215841293334961
0.8577032089233398,0.9221174240112304
0.8508871078491210,0.9298467636108398
0.8601133346557617,0.9298467636108398
0.8601133346557617,0.9329612731933593
0.8517059326171875,0.9263168334960937
0.8517059326171875,0.9263168334960937
0.8595577239990234,0.9299337387084960
0.8595577239990234,0.9299337387084960
0.8548959732055664,0.9348066329956054
0.8548959732055664,0.9348066329956054
0.8554533004760742,0.9294279098510742
0.8554533004760742,0.9294279098510742
0.8612886428833008,0.9352209091186523
0.8545509338378906,0.9300218582153320
0.8583692550659180,0.9300218582153320
0.8586450576782226,0.9381860733032226
0.8611593246459961,0.9381860733032226
0.8538127899169922,0.9291246414184570
0.8538127899169922,0.9291246414184570
0.8620307922363281,0.9372613906860351
0.8620307922363281,0.9372613906860351
0.8540571212768554,0.9365781784057616
0.8540571212768554,0.9365781784057616
0.8598312377929688,0.9340896606445312
0.8598312377929688,0.9340896606445312
0.8610282897949219,0.9411827087402344
0.8610282897949219,0.9411827087402344
0.8553365707397461,0.9327369689941406
0.8553365707397461,0.9327369689941406
0.8634790420532227,0.9407936096191406
0.8634790420532227,0.9407936096191406
0.8558132171630859,0.9411294937133788
0.8558132171630859,0.9411294937133788
0.8614637374877929,0.9371749877929687
0.8614637374877929,0.9371749877929687
0.8627220153808594,0.9448162078857422
0.8627220153808594,0.9448162078857422
0.8569702148437500,0.9362142562866210
0.8569702148437500,0.9362142562866210
0.8651956558227539,0.9452470779418944
0.8651956558227539,0.9452470779418944
0.8574296951293945,0.9442502975463867
0.8574296951293945,0.9442502975463867
0.8629732131958008,0.9408765792846679
0.8629732131958008,0.9408765792846679
0.8643035888671875,0.9486236572265625
0.8643035888671875,0.9486236572265625
0.8587554931640625,0.9409069061279296
0.8587554931640625,0.9409069061279296
0.8669683456420898,0.9485738754272460
0.8669683456420898,0.9485738754272460
0.8592475891113281,0.9483203887939453
0.8592475891113281,0.9483203887939453
0.8647293090820313,0.9445014953613281
0.8647293090820313,0.9445014953613281
0.8662336349487304,0.9532791137695312
0.8662336349487304,0.9532791137695312
0.8605739593505859,0.9443166732788085
0.8605739593505859,0.9443166732788085
0.8686288833618164,0.9525678634643554
0.8686288833618164,0.9525678634643554
0.8610912322998047,0.9523956298828125
0.8610912322998047,0.9523956298828125
0.8665500640869140,0.9495134353637695
0.8665500640869140,0.9495134353637695
0.8681241989135742,0.9569366455078124
0.8681241989135742,0.9569366455078124
0.8625040054321289,0.9486968994140624
0.8625040054321289,0.9486968994140624
0.8707328796386719,0.9567037582397461
0.8707328796386719,0.9567037582397461
0.8633239746093749,0.9574510574340820
0.8633239746093749,0.9574510574340820
0.8684984207153320,0.9533008575439452
0.8684984207153320,0.9533008575439452
0.8701234817504883,0.9614833831787108
0.8701234817504883,0.9614833831787108
0.8643899917602539,0.9530273437500000
0.8643899917602539,0.9530273437500000
0.8728134155273437,0.9621425628662109
0.8728134155273437,0.9621425628662109
0.8654611587524413,0.9618135452270508
0.8654611587524413,0.9618135452270508
0.8706836700439453,0.9583477020263671
0.8706836700439453,0.9583477020263671
0.8724843978881835,0.9662693023681640
0.8724843978881835,0.9662693023681640
0.8669631958007812,0.9589393615722656
0.8669631958007812,0.9589393615722656
0.8750501632690429,0.9664094924926757
0.8750501632690429,0.9664094924926757
0.8673110961914062,0.9653051376342773
0.8673110961914062,0.9653051376342773
0.8710630416870117,0.9585622787475585
0.8710630416870117,0.9585622787475585
0.8706321716308594,0.9611721038818359
0.8706321716308594,0.9611721038818359
0.8612817764282227,0.9438102722167968
0.8612817764282227,0.9438102722167968
0.8656047821044922,0.9436603546142578
0.8656047821044922,0.9436603546142578
0.8548788070678711,0.9363327026367188
0.8548788070678711,0.9363327026367188
0.8573684692382812,0.9287012100219726
0.8573684692382812,0.9287012100219726
0.8576951980590820,0.9328033447265625
0.8576951980590820,0.9328033447265625
0.8508762359619141,0.9219560623168945
0.8508762359619141,0.9219560623168945
0.8580076217651367,0.9281066894531249
0.8580076217651367,0.9281066894531249
0.8500059127807617,0.9270246505737304
0.8602758407592773,0.9270246505737304
0.8542161941528320,0.9213592529296875
0.8542161941528320,0.9213592529296875
0.8558481216430663,0.9281381607055663
0.8558481216430663,0.9281381607055663
0.8493347167968750,0.9183826446533203
0.8493347167968750,0.9183826446533203
0.8570228576660156,0.9258087158203124
0.8570228576660156,0.9258087158203124
0.8491825103759766,0.9240022659301758
0.8491825103759766,0.9240022659301758
0.8531827926635742,0.9189336776733398
0.8531827926635742,0.9189336776733398
0.8547712326049804,0.9257560729980469
0.8547712326049804,0.9257560729980469
0.8486846923828125,0.9166849136352538
0.8486846923828125,0.9166849136352538
0.8559974670410156,0.9230684280395507
0.8559974670410156,0.9230684280395507
0.8485828399658203,0.9217855453491210
0.8485828399658203,0.9217855453491210
0.8522741317749023,0.9166717529296875
0.8522741317749023,0.9166717529296875
0.8541503906250000,0.9247083663940430
0.8541503906250000,0.9247083663940430
0.8480392456054687,0.9147926330566406
0.8480392456054687,0.9147926330566406
0.8557159423828125,0.9221282958984375
0.8557159423828125,0.9221282958984375
0.8484397888183594,0.9215818405151367
0.8484397888183594,0.9215818405151367
0.8524486541748046,0.9179363250732422
0.8524486541748046,0.9179363250732422
0.8547981262207031,0.9256662368774413
0.8547981262207031,0.9256662368774413
0.8492254257202149,0.9174270629882812
0.8492254257202149,0.9174270629882812
0.8570920944213867,0.9256393432617187
0.8570920944213867,0.9256393432617187
0.8502931594848633,0.9268306732177733
0.8502931594848633,0.9268306732177733
0.8545017242431641,0.9222393035888672
0.8545017242431641,0.9222393035888672
0.8568386077880860,0.9304561614990234
0.8568386077880860,0.9304561614990234
0.8510152816772460,0.9214977264404296
0.8510152816772460,0.9214977264404296
0.8588413238525391,0.9298501968383789
0.8588413238525391,0.9298501968383789
0.8516212463378906,0.9289014816284179
0.8516212463378906,0.9289014816284179
0.8554464340209961,0.9243244171142577
0.8554464340209961,0.9243244171142577
0.8577501296997070,0.9319627761840820
0.8577501296997070,0.9319627761840820
0.8519159317016601,0.9236824035644531
0.8519159317016601,0.9236824035644531
0.8594718933105469,0.9309831619262695
0.8594718933105469,0.9309831619262695
0.8525608062744140,0.9308120727539062
0.8525608062744140,0.9308120727539062
0.8561496734619141,0.9264123916625976
0.8561496734619141,0.9264123916625976
0.8588367462158203,0.9353027343750000
0.8588367462158203,0.9353027343750000
0.8530311584472656,0.9258911132812500
0.8530311584472656,0.9258911132812500
0.8608234405517577,0.9339345932006835
0.8608234405517577,0.9339345932006835
0.8539318084716797,0.9336587905883789
0.8539318084716797,0.9336587905883789
0.8574640274047851,0.9302169799804687
0.8574640274047851,0.9302169799804687
0.8602031707763672,0.9380653381347656
0.8602031707763672,0.9380653381347656
0.8545045852661133,0.9293764114379882
0.8545045852661133,0.9293764114379882
0.8622270584106445,0.9372076034545898
0.8622270584106445,0.9372076034545898
0.8553834915161133,0.9380464553833008
0.8553834915161133,0.9380464553833008
0.8588602066040039,0.9332193374633788
0.8588602066040039,0.9332193374633788
0.8618419647216796,0.9417079925537108
0.8618419647216796,0.9417079925537108
0.8559247970581054,0.9326803207397460
0.8559247970581054,0.9326803207397460
0.8637725830078125,0.9414808273315429
0.8637725830078125,0.9414808273315429
0.8569604873657226,0.9410671234130858
0.8569604873657226,0.9410671234130858
0.8602958679199219,0.9368213653564452
0.8602958679199219,0.9368213653564452
0.8634361267089844,0.9451503753662109
0.8634361267089844,0.9451503753662109
0.8576963424682617,0.9371126174926757
0.8576963424682617,0.9371126174926757
0.8653833389282226,0.9444316864013671
0.8653833389282226,0.9444316864013671
0.8587137222290039,0.9446508407592773
0.8587137222290039,0.9446508407592773
0.8618076324462890,0.9401590347290039
0.8618076324462890,0.9401590347290039
0.8649398803710937,0.9495100021362304
0.8649398803710937,0.9495100021362304
0.8593317031860351,0.9401922225952148
0.8669225692749023,0.9481761932373046
0.8669225692749023,0.9481761932373046
0.8602197647094726,0.9483335494995117
0.8602197647094726,0.9483335494995117
0.8633800506591797,0.9445890426635741
0.8633800506591797,0.9445890426635741
0.8665941238403320,0.9527538299560546
0.8665941238403320,0.9527538299560546
0.8611072540283203,0.9439750671386719
0.8611072540283203,0.9439750671386719
0.8685024261474609,0.9516483306884765
0.8685024261474609,0.9516483306884765
0.8618127822875976,0.9528779983520508
0.8618127822875976,0.9528779983520508
0.8650234222412109,0.9478574752807617
0.8650234222412109,0.9478574752807617
0.8683181762695312,0.9565275192260742
0.8683181762695312,0.9565275192260742
0.8626224517822265,0.9477201461791992
0.8626224517822265,0.9477201461791992
0.8704050064086913,0.9563581466674804
0.8704050064086913,0.9563581466674804
0.8637628555297852,0.9561298370361327
0.8637628555297852,0.9561298370361327
0.8667766571044921,0.9518806457519531
0.8667766571044921,0.9518806457519531
0.8701595306396485,0.9601512908935547
0.8701595306396485,0.9601512908935547
0.8644306182861328,0.9525375366210938
0.8644306182861328,0.9525375366210938
0.8722000122070312,0.9601524353027343
0.8722000122070312,0.9601524353027343
0.8656333923339844,0.9607389450073242
0.8656333923339844,0.9607389450073242
0.8683862686157227,0.9563129425048827
0.8683862686157227,0.9563129425048827
0.8720272064208984,0.9656175613403319
0.8720272064208984,0.9656175613403319
0.8664630889892578,0.9566780090332031
0.8664630889892578,0.9566780090332031
0.8742216110229492,0.9646980285644531
0.8742216110229492,0.9646980285644531
0.8675765991210938,0.9650648117065429
0.8675765991210938,0.9650648117065429
0.8705326080322265,0.9619279861450195
0.8705326080322265,0.9619279861450195
0.8743165969848633,0.9706529617309569
0.8743165969848633,0.9706529617309569
0.8690019607543945,0.9624984741210937
0.8690019607543945,0.9624984741210937
0.8765453338623047,0.9706850051879883
0.8765453338623047,0.9706850051879883
0.8702173233032227,0.9718574523925780
0.8702173233032227,0.9718574523925780
0.8727212905883789,0.9658710479736328
0.8727212905883789,0.9658710479736328
0.8754381179809571,0.9719558715820312
0.8754381179809571,0.9719558715820312
0.8673809051513671,0.9571300506591797
0.8673809051513671,0.9571300506591797
0.8711769104003906,0.9571912765502929
0.8711769104003906,0.9571912765502929
0.8603302001953125,0.9477916717529297
0.8603302001953125,0.9477916717529297
0.8592166900634766,0.9352037429809570
0.8592166900634766,0.9352037429809570
0.8600412368774414,0.9382656097412109
0.8600412368774414,0.9382656097412109
0.8524881362915039,0.9263179779052734
0.8524881362915039,0.9263179779052734
0.8585231781005859,0.9307422637939453
0.8585231781005859,0.9307422637939453
0.8511823654174805,0.9289524078369140
0.8511823654174805,0.9289524078369140
0.8527261734008789,0.9220727920532226
0.8527261734008789,0.9220727920532226
0.8557399749755860,0.9300670623779297
0.8557399749755860,0.9300670623779297
0.8495492935180664,0.9194772720336913
0.8495492935180664,0.9194772720336913
0.8562543869018554,0.9260547637939452
0.8562543869018554,0.9260547637939452
0.8492815017700195,0.9253246307373046
0.8492815017700195,0.9253246307373046
0.8512166976928711,0.9199613571166991
0.8512166976928711,0.9199613571166991
0.8545663833618163,0.9267019271850585
0.8545663833618163,0.9267019271850585
0.8484003067016601,0.9168537139892577
0.8484003067016601,0.9168537139892577
0.8550544738769531,0.9230163574218749
0.8550544738769531,0.9230163574218749
0.8482950210571288,0.9232967376708984
0.8482950210571288,0.9232967376708984
0.8454591751098632,0.9224864959716796
0.8454591751098632,0.9224864959716796
0.8454591751098632,0.9183145523071289
0.8527227401733398,0.9174104690551758
0.8445201873779297,0.9174104690551758
0.8510564804077149,0.9240428924560546
0.8510564804077149,0.9240428924560546
0.8478750228881836,0.9167633056640625
0.8478750228881836,0.9167633056640625
0.8549005508422851,0.9240692138671874
0.8549005508422851,0.9240692138671874
0.8447874069213867,0.9168806076049805
0.8447874069213867,0.9168806076049805
0.8530174255371094,0.9193313598632812
0.8530174255371094,0.9193313598632812
0.8519754409790039,0.9260536193847656
0.8519754409790039,0.9260536193847656
0.8495344161987305,0.9194423675537109
0.8495344161987305,0.9194423675537109
0.8558223724365234,0.9262762069702148
0.8558223724365234,0.9262762069702148
0.8465148925781250,0.9221214294433593
0.8465148925781250,0.9221214294433593
0.8546911239624023,0.9233030319213866
0.8546911239624023,0.9233030319213866
0.8536605834960938,0.9289014816284179
0.8536605834960938,0.9289014816284179
0.8499732971191406,0.9201902389526366
0.8499732971191406,0.9201902389526366
0.8565341949462890,0.9287395477294922
0.8565341949462890,0.9287395477294922
0.8469989776611327,0.9229442596435546
0.8469989776611327,0.9229442596435546
0.8553440093994140,0.9235559463500976
0.8553440093994140,0.9235559463500976
0.8535673141479492,0.9281370162963867
0.8535673141479492,0.9281370162963867
0.8502147674560546,0.9222759246826171
0.8502147674560546,0.9222759246826171
0.8569238662719726,0.9301797866821289
0.8569238662719726,0.9301797866821289
0.8480541229248046,0.9243427276611328
0.8480541229248046,0.9243427276611328
0.8555482864379883,0.9241189956665039
0.8555482864379883,0.9241189956665039
0.8544668197631836,0.9314689636230469
0.8544668197631836,0.9314689636230469
0.8512149810791015,0.9247089385986328
0.8512149810791015,0.9247089385986328
0.8585941314697265,0.9325904846191406
0.8585941314697265,0.9325904846191406
0.8487287521362304,0.9260570526123046
0.8487287521362304,0.9260570526123046
0.8567813873291016,0.9282651901245117
0.8567813873291016,0.9282651901245117
0.8558355331420898,0.9350452423095703
0.8558355331420898,0.9350452423095703
0.8529109954833984,0.9276449203491210
0.8529109954833984,0.9276449203491210
0.8594324111938476,0.9345062255859374
0.8594324111938476,0.9345062255859374
0.8500963211059570,0.9304584503173827
0.8500963211059570,0.9304584503173827
0.8580133438110351,0.9315061569213867
0.8580133438110351,0.9315061569213867
0.8576002120971680,0.9378444671630859
0.8576002120971680,0.9378444671630859
0.8537578582763672,0.9293981552124023
0.8537578582763672,0.9293981552124023
0.8607948303222656,0.9389207839965820
0.8607948303222656,0.9389207839965820
0.8515760421752929,0.9340450286865234
0.8515760421752929,0.9340450286865234
0.8600463867187500,0.9347585678100585
0.8600463867187500,0.9347585678100585
0.8584047317504883,0.9399261474609375
0.8584047317504883,0.9399261474609375
0.8550956726074218,0.9339340209960937
0.8550956726074218,0.9339340209960937
0.8621515274047852,0.9422201156616210
0.8621515274047852,0.9422201156616210
0.8533945083618164,0.9370851516723633
0.8533945083618164,0.9370851516723633
0.8607398986816406,0.9366937637329101
0.8607398986816406,0.9366937637329101
0.8598340988159180,0.9444391250610351
0.8598340988159180,0.9444391250610351
0.8564901351928711,0.9374324798583984
0.8564901351928711,0.9374324798583984
0.8639036178588867,0.9452848434448242
0.8639036178588867,0.9452848434448242
0.8541320800781250,0.9389636993408202
0.8673379898071288,0.9389636993408202
0.8621440887451172,0.9412736892700195
0.8621440887451172,0.9412736892700195
0.8612382888793945,0.9477590560913085
0.8612382888793945,0.9477590560913085
0.8582788467407226,0.9404256820678710
0.8582788467407226,0.9404256820678710
0.8648511886596679,0.9474363327026367
0.8648511886596679,0.9474363327026367
0.8557880401611327,0.9437633514404297
0.8557880401611327,0.9437633514404297
0.8638092041015625,0.9450639724731444
0.8638092041015625,0.9450639724731444
0.8633199691772461,0.9514486312866210
0.8633199691772461,0.9514486312866210
0.8593717575073242,0.9425004959106444
0.8593717575073242,0.9425004959106444
0.8663337707519531,0.9521816253662109
0.8575006484985351,0.9521816253662109
0.8572111129760742,0.9472475051879883
0.8572111129760742,0.9472475051879883
0.8654869079589843,0.9476892471313476
0.8654869079589843,0.9476892471313476
0.8641365051269531,0.9528619766235351
0.8641365051269531,0.9528619766235351
0.8605390548706054,0.9467994689941406
0.8605390548706054,0.9467994689941406
0.8676715850830078,0.9553104400634765
0.8676715850830078,0.9553104400634765
0.8589895248413085,0.9503425598144530
0.8589895248413085,0.9503425598144530
0.8664619445800781,0.9495952606201171
0.8664619445800781,0.9495952606201171
0.8654434204101562,0.9574241638183594
0.8654434204101562,0.9574241638183594
0.8618814468383789,0.9495637893676757
0.8618814468383789,0.9495637893676757
0.8690689086914062,0.9564783096313476
0.8690689086914062,0.9564783096313476
0.8582908630371093,0.9475112915039062
0.8582908630371093,0.9475112915039062
0.8639614105224609,0.9442588806152343
0.8639614105224609,0.9442588806152343
0.8602300643920898,0.9448511123657226
0.8602300643920898,0.9448511123657226
0.8543712615966796,0.9310083389282227
0.8543712615966796,0.9310083389282227
0.8587034225463867,0.9329326629638671
0.8587034225463867,0.9329326629638671
0.8479219436645508,0.9260581970214843
0.8479219436645508,0.9260581970214843
0.8543706893920898,0.9239604949951171
0.8543706893920898,0.9239604949951171
0.8531856536865234,0.9284030914306640
0.8531856536865234,0.9284030914306640
0.8483236312866210,0.9178195953369140
0.8483236312866210,0.9178195953369140
0.8548879623413086,0.9259695053100585
0.8548879623413086,0.9259695053100585
0.8454517364501953,0.9204425811767578
0.8454517364501953,0.9204425811767578
0.8531799316406250,0.9196283340454101
0.8531799316406250,0.9196283340454101
0.8512985229492187,0.9236560821533203
0.8512985229492187,0.9236560821533203
0.8472061157226562,0.9161212921142577
0.8472061157226562,0.9161212921142577
0.8539489746093750,0.9232967376708984
0.8539489746093750,0.9232967376708984
0.8448760986328124,0.9175872802734375
0.8448760986328124,0.9175872802734375
0.8518827438354492,0.9155845642089844
0.8518827438354492,0.9155845642089844
0.8505975723266601,0.9227205276489258
0.8505975723266601,0.9227205276489258
0.8464937210083008,0.9141746520996094
0.8464937210083008,0.9141746520996094
0.8537841796875000,0.9212802886962890
0.8537841796875000,0.9212802886962890
0.8437562942504883,0.9146118164062500
0.8437562942504883,0.9146118164062500
0.8512470245361328,0.9152235031127929
0.8512470245361328,0.9152235031127929
0.8498657226562499,0.9210153579711914
0.8498657226562499,0.9210153579711914
0.8461950302124023,0.9121210098266601
0.8461950302124023,0.9121210098266601
0.8525465011596679,0.9185995101928710
0.8525465011596679,0.9185995101928710
0.8432338714599609,0.9151622772216796
0.8432338714599609,0.9151622772216796
0.8511383056640625,0.9156360626220703
0.8511383056640625,0.9156360626220703
0.8506553649902343,0.9223365783691406
0.8506553649902343,0.9223365783691406
0.8465148925781250,0.9134943008422851
0.8465148925781250,0.9134943008422851
0.8541481018066406,0.9236446380615234
0.8541481018066406,0.9236446380615234
0.8454076766967773,0.9199110031127929
0.8454076766967773,0.9199110031127929
0.8538934707641601,0.9203653335571289
0.8538934707641601,0.9203653335571289
0.8524206161499023,0.9256416320800781
0.8524206161499023,0.9256416320800781
0.8486703872680664,0.9188632965087891
0.8486703872680664,0.9188632965087891
0.8557771682739258,0.9271390914916992
0.8557771682739258,0.9271390914916992
0.8471597671508789,0.9225757598876952
0.8471597671508789,0.9225757598876952
0.8543106079101562,0.9210433959960938
0.8543106079101562,0.9210433959960938
0.8533046722412109,0.9286130905151366
0.8533046722412109,0.9286130905151366
0.8493129730224609,0.9202142715454101
0.8493129730224609,0.9202142715454101
0.8570377349853515,0.9284145355224609
0.8474973678588867,0.9284145355224609
0.8474853515624999,0.9229780197143554
0.8474853515624999,0.9229780197143554
0.8551528930664062,0.9243066787719726
0.8551528930664062,0.9243066787719726
0.8543809890747071,0.9310781478881835
0.8543809890747071,0.9310781478881835
0.8508831024169922,0.9228807449340820
0.8508831024169922,0.9228807449340820
0.8577375411987305,0.9297883987426757
0.8577375411987305,0.9297883987426757
0.8487699508666992,0.9272621154785156
0.8487699508666992,0.9272621154785156
0.8564512252807617,0.9274663925170898
0.8564512252807617,0.9274663925170898
0.8562543869018554,0.9341966629028320
0.8562543869018554,0.9341966629028320
0.8517471313476562,0.9248874664306640
0.8517471313476562,0.9248874664306640
0.8591234207153320,0.9345668792724608
0.8591234207153320,0.9345668792724608
0.8500425338745117,0.9310981750488281
0.8500425338745117,0.9310981750488281
0.8584276199340820,0.9309219360351562
0.8584276199340820,0.9309219360351562
0.8570240020751952,0.9362417221069336
0.8570240020751952,0.9362417221069336
0.8531072616577148,0.9296276092529296
0.8531072616577148,0.9296276092529296
0.8606426239013671,0.9379972457885741
0.8606426239013671,0.9379972457885741
0.8522163391113281,0.9344015121459961
0.8522163391113281,0.9344015121459961
0.8593236923217773,0.9330465316772460
0.8593236923217773,0.9330465316772460
0.8587091445922851,0.9412330627441405
0.8587091445922851,0.9412330627441405
0.8548038482666015,0.9334785461425781
0.8548038482666015,0.9334785461425781
0.8626310348510742,0.9416410446166992
0.8626310348510742,0.9416410446166992
0.8532056808471680,0.9370307922363281
0.8532056808471680,0.9370307922363281
0.8609006881713867,0.9379886627197265
0.8609006881713867,0.9379886627197265
0.8603639602661133,0.9448757171630859
0.8603639602661133,0.9448757171630859
0.8568557739257813,0.9368408203124999
0.8568557739257813,0.9368408203124999
0.8636466979980468,0.9438199996948242
0.8636466979980468,0.9438199996948242
0.8547248840332031,0.9418035507202148
0.8547248840332031,0.9418035507202148
0.8623809814453125,0.9418218612670898
0.8623809814453125,0.9418218612670898
0.8622711181640624,0.9483449935913085
0.8622711181640624,0.9483449935913085
0.8577489852905273,0.9388893127441406
0.8577489852905273,0.9388893127441406
0.8652019500732422,0.9487163543701171
0.8652019500732422,0.9487163543701171
0.8562137603759765,0.9456001281738281
0.8562137603759765,0.9456001281738281
0.8645685195922851,0.9453575134277343
0.8645685195922851,0.9453575134277343
0.8634670257568359,0.9509634017944335
0.8634670257568359,0.9509634017944335
0.8594707489013672,0.9441421508789062
0.8594707489013672,0.9441421508789062
0.8669288635253906,0.9527755737304687
0.8669288635253906,0.9527755737304687
0.8586181640625000,0.9496084213256836
0.8586181640625000,0.9496084213256836
0.8657638549804687,0.9480354309082031
0.8657638549804687,0.9480354309082031
0.8652145385742187,0.9563175201416015
0.8652145385742187,0.9563175201416015
0.8611553192138671,0.9482316970825195
0.8611553192138671,0.9482316970825195
0.8693590164184570,0.9568851470947265
0.8693590164184570,0.9568851470947265
0.8598255157470703,0.9525318145751953
0.8598255157470703,0.9525318145751953
0.8674884796142578,0.9535120010375976
0.8674884796142578,0.9535120010375976
0.8668722152709961,0.9602245330810546
0.8668722152709961,0.9602245330810546
0.8627489089965820,0.9502166748046874
0.8627489089965820,0.9502166748046874
0.8684480667114257,0.9537963867187500
0.8684480667114257,0.9537963867187500
0.8647356033325195,0.9479667663574218
0.8647356033325195,0.9481401443481445
0.8554332733154296,0.9335969924926757
0.8554332733154296,0.9335969924926757
0.8593185424804687,0.9326803207397460
0.8593185424804687,0.9326803207397460
0.8514335632324218,0.9305345535278320
0.8514335632324218,0.9305345535278320
0.8516149520874023,0.9225620269775390
0.8516149520874023,0.9225620269775390
0.8556644439697265,0.9280054092407226
0.8556644439697265,0.9280054092407226
0.8487716674804687,0.9193851470947265
0.8487716674804687,0.9193851470947265
0.8549188613891602,0.9224481582641602
0.8440961837768555,0.9224481582641602
0.8484558105468750,0.9246557235717773
0.8484558105468750,0.9246557235717773
0.8496631622314453,0.9174276351928711
0.8496631622314453,0.9174276351928711
0.8543157577514648,0.9246631622314453
0.8543157577514648,0.9246631622314453
0.8475997924804687,0.9164743423461914
0.8475997924804687,0.9164743423461914
0.8540216445922851,0.9208431243896484
0.8540216445922851,0.9208431243896484
0.8476444244384765,0.9217432022094726
0.8476444244384765,0.9217432022094726
0.8487573623657226,0.9150953292846680
0.8487573623657226,0.9150953292846680
0.8534420013427734,0.9219308853149414
0.8534420013427734,0.9219308853149414
0.8468484878540039,0.9147960662841796
0.8468484878540039,0.9147960662841796
0.8531501770019531,0.9180433273315429
0.8531501770019531,0.9180433273315429
0.8468667984008789,0.9196695327758788
0.8468667984008789,0.9196695327758788
0.8481531143188477,0.9133615493774414
0.8481531143188477,0.9133615493774414
0.8529132843017578,0.9216178894042968
0.8529132843017578,0.9216178894042968
0.8465932846069336,0.9136585235595702
0.8465932846069336,0.9136585235595702
0.8531501770019531,0.9175998687744140
0.8531501770019531,0.9175998687744140
0.8470619201660156,0.9197696685791015
0.8470619201660156,0.9197696685791015
0.8487241744995117,0.9152664184570312
0.8487241744995117,0.9152664184570312
0.8538791656494140,0.9231239318847656
0.8538791656494140,0.9231239318847656
0.8478761672973633,0.9169441223144531
0.8478761672973633,0.9169441223144531
0.8548593521118164,0.9216459274291992
0.8548593521118164,0.9216459274291992
0.8489421844482422,0.9251152038574219
0.8489421844482422,0.9251152038574219
0.8505317687988281,0.9188575744628906
0.8505317687988281,0.9188575744628906
0.8557153701782226,0.9267974853515625
0.8557153701782226,0.9267974853515625
0.8492574691772461,0.9194040298461914
0.8492574691772461,0.9194040298461914
0.8559488296508789,0.9243249893188477
0.8559488296508789,0.9243249893188477
0.8497318267822266,0.9260061264038085
0.8497318267822266,0.9260061264038085
0.8509328842163085,0.9200826644897461
0.8509328842163085,0.9200826644897461
0.8561307907104492,0.9279018402099609
0.8561307907104492,0.9279018402099609
0.8497621536254882,0.9215023040771484
0.8497621536254882,0.9215023040771484
0.8566171646118164,0.9250448226928710
0.8566171646118164,0.9250448226928710
0.8506284713745117,0.9277725219726562
0.8506284713745117,0.9277725219726562
0.8518100738525390,0.9218044281005859
0.8518100738525390,0.9218044281005859
0.8570274353027344,0.9307966232299805
0.8570274353027344,0.9307966232299805
0.8507932662963867,0.9235965728759765
0.8507932662963867,0.9235965728759765
0.8577524185180664,0.9278097152709961
0.8577524185180664,0.9278097152709961
0.8516962051391601,0.9306770324707031
0.8516962051391601,0.9306770324707031
0.8532857894897461,0.9256776809692382
0.8532857894897461,0.9256776809692382
0.8585277557373047,0.9334699630737304
0.8585277557373047,0.9334699630737304
0.8523113250732421,0.9268524169921875
0.8523113250732421,0.9268524169921875
0.8591634750366210,0.9307502746582030
0.8591634750366210,0.9307502746582030
0.8531724929809570,0.9345777511596679
0.8531724929809570,0.9345777511596679
0.8547472000122071,0.9285558700561523
0.8547472000122071,0.9285558700561523
0.8598421096801757,0.9366823196411133
0.8598421096801757,0.9366823196411133
0.8535673141479492,0.9299617767333984
0.8535673141479492,0.9299617767333984
0.8604663848876953,0.9347671508789062
0.8604663848876953,0.9347671508789062
0.8546390533447266,0.9373254776000977
0.8546390533447266,0.9373254776000977
0.8561153411865234,0.9316240310668945
0.8561153411865234,0.9316240310668945
0.8612657546997070,0.9393865585327148
0.8612657546997070,0.9393865585327148
0.8549217224121094,0.9338716506958007
0.8549217224121094,0.9338716506958007
0.8619157791137695,0.9372671127319335
0.8619157791137695,0.9372671127319335
0.8559522628784180,0.9402654647827148
0.8559522628784180,0.9402654647827148
0.8573083877563477,0.9347499847412108
0.8573083877563477,0.9347499847412108
0.8626155853271484,0.9435007095336914
0.8626155853271484,0.9435007095336914
0.8563098907470703,0.9363922119140624
0.8563098907470703,0.9363922119140624
0.8631820678710938,0.9403329849243164
0.8631820678710938,0.9403329849243164
0.8571361541748047,0.9429599761962890
0.8571361541748047,0.9429599761962890
0.8585151672363281,0.9383045196533203
0.8585151672363281,0.9383045196533203
0.8639207839965820,0.9457105636596679
0.8639207839965820,0.9457105636596679
0.8573862075805664,0.9392555236816406
0.8573862075805664,0.9392555236816406
0.8644598007202148,0.9430932998657227
0.8644598007202148,0.9430932998657227
0.8583600997924804,0.9469070434570312
0.8583600997924804,0.9469070434570312
0.8599216461181640,0.9409664154052734
0.8599216461181640,0.9409664154052734
0.8652345657348632,0.9490024566650390
0.8652345657348632,0.9490024566650390
0.8589208602905273,0.9423339843749999
0.8589208602905273,0.9423339843749999
0.8659904479980468,0.9471473693847656
0.8659904479980468,0.9471473693847656
0.8600343704223633,0.9499397277832031
0.8600343704223633,0.9499397277832031
0.8614459991455078,0.9446393966674804
0.8614459991455078,0.9446393966674804
0.8669271469116211,0.9528940200805663
0.8669271469116211,0.9528940200805663
0.8605888366699218,0.9472326278686523
0.8605888366699218,0.9472326278686523
0.8676527023315429,0.9506040573120117
0.8676527023315429,0.9506040573120117
0.8618974685668945,0.9539537429809570
0.8618974685668945,0.9539537429809570
0.8632175445556640,0.9481561660766601
0.8632175445556640,0.9481561660766601
0.8685499191284179,0.9565761566162109
0.8685499191284179,0.9565761566162109
0.8615461349487304,0.9478431701660156
0.8615461349487304,0.9478431701660156
0.8669849395751953,0.9475490570068359
0.8669849395751953,0.9475490570068359
0.8584882736206054,0.9449998855590820
0.8584882736206054,0.9449998855590820
0.8570589065551758,0.9335912704467773
0.8570589065551758,0.9335912704467773
0.8595582962036132,0.9354011535644531
0.8595582962036132,0.9354011535644531
0.8511537551879883,0.9246025085449219
0.8511537551879883,0.9246025085449219
0.8565753936767578,0.9245584487915038
0.8565753936767578,0.9245584487915038
0.8495687484741211,0.9260982513427733
0.8495687484741211,0.9260982513427733
0.8500465393066406,0.9183340072631836
0.8500465393066406,0.9183340072631836
0.8548330307006836,0.9247976303100586
0.8548330307006836,0.9247976303100586
0.8477485656738281,0.9171009063720703
0.8477485656738281,0.9171009063720703
0.8543266296386719,0.9201009750366210
0.8543266296386719,0.9201009750366210
0.8478818893432617,0.9217512130737304
0.8478818893432617,0.9217512130737304
0.8487705230712891,0.9151823043823242
0.8487705230712891,0.9151823043823242
0.8535696029663086,0.9214960098266601
0.8535696029663086,0.9214960098266601
0.8465440750122070,0.9146844863891601
0.8465440750122070,0.9146844863891601
0.8532857894897461,0.9165069580078125
0.8532857894897461,0.9165069580078125
0.8467220306396485,0.9187911987304687
0.8467220306396485,0.9187911987304687
0.8475809097290039,0.9122909545898437
0.8475809097290039,0.9122909545898437
0.8525064468383788,0.9196838378906249
0.8525064468383788,0.9196838378906249
0.8455329895019531,0.9116603851318359
0.8455329895019531,0.9116603851318359
0.8523078918457031,0.9143526077270507
0.8523078918457031,0.9143526077270507
0.8459386825561523,0.9167238235473633
0.8459386825561523,0.9167238235473633
0.8468301773071288,0.9114681243896484
0.8468301773071288,0.9114681243896484
0.8520812988281250,0.9182687759399414
0.8520812988281250,0.9182687759399414
0.8453355789184570,0.9116798400878906
0.8453355789184570,0.9116798400878906
0.8525562286376953,0.9149848937988281
0.8525562286376953,0.9149848937988281
0.8465148925781250,0.9194446563720703
0.8465148925781250,0.9194446563720703
0.8481027603149414,0.9139446258544921
0.8465835571289062,0.9139446258544921
0.8538265228271484,0.9223079681396484
0.8538265228271484,0.9223079681396484
0.8472604751586914,0.9158357620239257
0.8472604751586914,0.9158357620239257
0.8544393539428711,0.9200666427612304
0.8544393539428711,0.9200666427612304
0.8484529495239258,0.9229110717773437
0.8484529495239258,0.9229110717773437
0.8495979309082031,0.9170482635498046
0.8495979309082031,0.9170482635498046
0.8549171447753906,0.9244897842407226
0.8549171447753906,0.9244897842407226
0.8481416702270508,0.9183620452880858
0.8481416702270508,0.9183620452880858
0.8552061080932617,0.9206846237182617
0.8552061080932617,0.9206846237182617
0.8491481781005860,0.9239622116088867
0.8491481781005860,0.9239622116088867
0.8501003265380859,0.9177972793579101
0.8501003265380859,0.9177972793579101
0.8556358337402343,0.9263219833374023
0.8556358337402343,0.9263219833374023
0.8487630844116211,0.9191625595092773
0.8487630844116211,0.9191625595092773
0.8558858871459961,0.9224109649658203
0.8558858871459961,0.9224109649658203
0.8498891830444336,0.9259340286254882
0.8498891830444336,0.9259340286254882
0.8509901046752929,0.9211206436157227
0.8509901046752929,0.9211206436157227
0.8565027236938476,0.9282297134399413
0.8565027236938476,0.9282297134399413
0.8499944686889648,0.9220413208007812
0.8499944686889648,0.9220413208007812
0.8571355819702148,0.9247232437133789
0.8571355819702148,0.9247232437133789
0.8511343002319336,0.9294210433959961
0.8511343002319336,0.9294210433959961
0.8523296356201172,0.9233402252197265
0.8523296356201172,0.9233402252197265
0.8577558517456054,0.9313076019287109
0.8577558517456054,0.9313076019287109
0.8511463165283203,0.9249452590942382
0.8511463165283203,0.9249452590942382
0.8584178924560547,0.9286766052246094
0.8584178924560547,0.9286766052246094
0.8522964477539062,0.9319181442260742
0.8522964477539062,0.9319181442260742
0.8535999298095703,0.9263969421386719
0.8535999298095703,0.9263969421386719
0.8589717864990234,0.9338579177856445
0.8589717864990234,0.9338579177856445
0.8523147583007812,0.9283252716064453
0.8523147583007812,0.9283252716064453
0.8595926284790039,0.9309642791748046
0.8595926284790039,0.9309642791748046
0.8536233901977539,0.9347105026245117
0.8536233901977539,0.9347105026245117
0.8546905517578125,0.9292459487915039
0.8546905517578125,0.9292459487915039
0.8604131698608398,0.9377380371093750
0.8604131698608398,0.9377380371093750
0.8536891937255859,0.9309831619262695
0.8536891937255859,0.9309831619262695
0.8608818054199219,0.9341228485107421
0.8608818054199219,0.9341228485107421
0.8548748016357421,0.9376310348510741
0.8548748016357421,0.9376310348510741
0.8562274932861328,0.9331392288208007
0.8562274932861328,0.9331392288208007
0.8617795944213867,0.9405080795288085
0.8617795944213867,0.9405080795288085
0.8550956726074218,0.9340902328491211
0.8550956726074218,0.9340902328491211
0.8623300552368164,0.9370874404907226
0.8623300552368164,0.9370874404907226
0.8562801361083984,0.9414945602416992
0.8562801361083984,0.9414945602416992
0.8541933059692383,0.9394128799438476
0.8661003112792969,0.9394128799438476
0.8608537673950195,0.9359796524047851
0.8545377731323242,0.9359796524047851
0.8609127044677735,0.9443075180053710
0.8609127044677735,0.9443075180053710
0.8559534072875976,0.9354658126831055
0.8559534072875976,0.9354658126831055
0.8647933959960937,0.9441810607910156
0.8647933959960937,0.9441810607910156
0.8550327301025390,0.9418779373168945
0.8550327301025390,0.9418779373168945
0.8623872756958008,0.9408800125122070
0.8623872756958008,0.9408800125122070
0.8625331878662109,0.9481842041015625
0.8625331878662109,0.9481842041015625
0.8582141876220702,0.9389894485473632
0.8582141876220702,0.9389894485473632
0.8656631469726562,0.9464469909667969
0.8656631469726562,0.9464469909667969
0.8566864013671874,0.9467262268066405
0.8693447113037109,0.9467262268066405
0.8640752792358398,0.9447246551513672
0.8640752792358398,0.9447246551513672
0.8648563385009765,0.9518205642700195
0.8648563385009765,0.9518205642700195
0.8591766357421875,0.9416776657104492
0.8591766357421875,0.9416776657104492
0.8675817489624024,0.9517049789428711
0.8675817489624024,0.9517049789428711
0.8582656860351562,0.9506584167480469
0.8582656860351562,0.9506584167480469
0.8659927368164062,0.9468252182006835
0.8659927368164062,0.9468252182006835
0.8641490936279297,0.9495861053466796
0.8641490936279297,0.9495861053466796
0.8568849563598633,0.9364740371704101
0.8615833282470703,0.9364740371704101
0.8623672485351562,0.9388063430786132
0.8623672485351562,0.9388063430786132
0.8510793685913086,0.9315565109252929
0.8510793685913086,0.9315565109252929
0.8554973602294922,0.9230718612670898
0.8554973602294922,0.9230718612670898
0.8536897659301758,0.9278646469116211
0.8536897659301758,0.9278646469116211
0.8474864959716797,0.9161956787109374
0.8474864959716797,0.9161956787109374
0.8553262710571289,0.9226055145263672
0.8553262710571289,0.9226055145263672
0.8450448989868163,0.9189044952392578
0.8450448989868163,0.9189044952392578
0.8519954681396484,0.9165018081665038
0.8519954681396484,0.9165018081665038
0.8515027999877930,0.9224882125854492
0.8515027999877930,0.9224882125854492
0.8466865539550781,0.9124591827392577
0.8466865539550781,0.9124591827392577
0.8537120819091797,0.9187093734741211
0.8537120819091797,0.9187093734741211
0.8442770004272461,0.9177938461303711
0.8442770004272461,0.9177938461303711
0.8510433197021484,0.9145717620849609
0.8510433197021484,0.9145717620849609
0.8513305664062499,0.9200849533081055
0.8513305664062499,0.9200849533081055
0.8451278686523437,0.9086894989013672
0.8451278686523437,0.9086894989013672
0.8527433395385742,0.9174104690551758
0.8527433395385742,0.9174104690551758
0.8432790756225585,0.9153390884399414
0.8432790756225585,0.9153390884399414
0.8506399154663086,0.9117628097534179
0.8506399154663086,0.9117628097534179
0.8497112274169921,0.9164892196655273
0.8497112274169921,0.9164892196655273
0.8441333770751953,0.9079439163208007
0.8441333770751953,0.9079439163208007
0.8520469665527344,0.9160045623779296
0.8520469665527344,0.9160045623779296
0.8433643341064453,0.9143314361572266
0.8433643341064453,0.9143314361572266
0.8498891830444336,0.9102481842041015
0.8498891830444336,0.9102481842041015
0.8498456954956054,0.9185365676879882
0.8498456954956054,0.9185365676879882
0.8449642181396484,0.9098888397216797
0.8449642181396484,0.9098888397216797
0.8538511276245117,0.9188707351684570
0.8538511276245117,0.9188707351684570
0.8442913055419922,0.9169034957885742
0.8442913055419922,0.9169034957885742
0.8515954971313476,0.9157396316528320
0.8515954971313476,0.9157396316528320
0.8518615722656250,0.9228618621826171
0.8518615722656250,0.9228618621826171
0.8471357345581054,0.9133358001708984
0.8471357345581054,0.9133358001708984
0.8544897079467774,0.9202732086181640
0.8544897079467774,0.9202732086181640
0.8453836441040039,0.9201032638549804
0.8453836441040039,0.9201032638549804
0.8523313522338867,0.9170940399169921
0.8523313522338867,0.9170940399169921
0.8529853820800781,0.9238529205322266
0.8529853820800781,0.9238529205322266
0.8470590591430663,0.9131864547729491
0.8470590591430663,0.9131864547729491
0.8550687789916992,0.9228189468383788
0.8550687789916992,0.9228189468383788
0.8459781646728516,0.9218885421752929
0.8459781646728516,0.9218885421752929
0.8538110733032226,0.9187917709350586
0.8538110733032226,0.9187917709350586
0.8531759262084960,0.9245847702026366
0.8531759262084960,0.9245847702026366
0.8478429794311523,0.9166608810424804
0.8478429794311523,0.9166608810424804
0.8560672760009765,0.9252759933471679
0.8560672760009765,0.9252759933471679
0.8478967666625976,0.9243055343627929
0.8478967666625976,0.9243055343627929
0.8543603897094726,0.9203853607177734
0.8543603897094726,0.9203853607177734
0.8543804168701171,0.9288780212402343
0.8543804168701171,0.9288780212402343
0.8492729187011718,0.9199705123901367
0.8555007934570312,0.9199705123901367
0.8582359313964844,0.9283338546752929
0.8582359313964844,0.9283338546752929
0.8485771179199219,0.9263580322265624
0.8485771179199219,0.9263580322265624
0.8556535720825195,0.9248754501342773
0.8556535720825195,0.9248754501342773
0.8558761596679687,0.9319667816162109
0.8558761596679687,0.9319667816162109
0.8512310028076172,0.9228458404541016
0.8512310028076172,0.9228458404541016
0.8586381912231446,0.9300104141235351
0.8586381912231446,0.9300104141235351
0.8497467041015625,0.9303525924682616
0.8497467041015625,0.9303525924682616
0.8569084167480469,0.9278268814086914
0.8569084167480469,0.9278268814086914
0.8577386856079101,0.9347379684448242
0.8577386856079101,0.9347379684448242
0.8517597198486327,0.9244422912597656
0.8517597198486327,0.9244422912597656
0.8599039077758789,0.9340953826904297
0.8599039077758789,0.9340953826904297
0.8508985519409179,0.9334499359130859
0.8508985519409179,0.9334499359130859
0.8588773727416992,0.9304950714111327
0.8588773727416992,0.9304950714111327
0.8583629608154296,0.9365707397460937
0.8583629608154296,0.9365707397460937
0.8530139923095703,0.9288396835327148
0.8530139923095703,0.9288396835327148
0.8612434387207031,0.9373374938964844
0.8612434387207031,0.9373374938964844
0.8530488967895508,0.9365232467651367
0.8530488967895508,0.9365232467651367
0.8593391418457031,0.9323690414428710
0.8593391418457031,0.9323690414428710
0.8595588684082031,0.9406911849975585
0.8595588684082031,0.9406911849975585
0.8544651031494140,0.9317796707153320
0.8544651031494140,0.9317796707153320
0.8632638931274413,0.9402837753295898
0.8632638931274413,0.9402837753295898
0.8537109374999999,0.9383623123168945
0.8537109374999999,0.9383623123168945
0.8607404708862304,0.9369146347045898
0.8607404708862304,0.9369146347045898
0.8611095428466796,0.9444311141967773
0.8611095428466796,0.9444311141967773
0.8565782546997071,0.9351642608642577
0.8565782546997071,0.9351642608642577
0.8640432357788086,0.9424741744995117
0.8640432357788086,0.9424741744995117
0.8551912307739258,0.9429479598999023
0.8551912307739258,0.9429479598999023
0.8622922897338867,0.9402317047119140
0.8622922897338867,0.9402317047119140
0.8632684707641601,0.9474037170410156
0.8632684707641601,0.9474037170410156
0.8573781967163085,0.9373489379882812
0.8573781967163085,0.9373489379882812
0.8655550003051757,0.9472269058227538
0.8655550003051757,0.9472269058227538
0.8568952560424804,0.9468521118164062
0.8568952560424804,0.9468521118164062
0.8646263122558594,0.9438074111938476
0.8646263122558594,0.9438074111938476
0.8642086029052735,0.9498773574829101
0.8642086029052735,0.9498773574829101
0.8589477539062500,0.9419551849365234
0.8589477539062500,0.9419551849365234
0.8666633605957031,0.9493480682373047
0.8666633605957031,0.9493480682373047
0.8575086593627930,0.9456058502197265
0.8575086593627930,0.9456058502197265
0.8618122100830078,0.9366067886352538
0.8618122100830078,0.9366067886352538
0.8594232559204101,0.9390792846679688
0.8594232559204101,0.9390792846679688
0.8515090942382812,0.9245378494262695
0.8515090942382812,0.9245378494262695
0.8583045959472656,0.9282302856445312
0.8583045959472656,0.9282302856445312
0.8471139907836914,0.9225265502929687
0.8471139907836914,0.9225265502929687
0.8527290344238281,0.9181320190429687
0.8527290344238281,0.9181320190429687
0.8522489547729492,0.9235364913940429
0.8522489547729492,0.9235364913940429
0.8469703674316406,0.9129312515258788
0.8469703674316406,0.9129312515258788
0.8538013458251953,0.9186229705810547
0.8538013458251953,0.9186229705810547
0.8444252014160156,0.9178939819335937
0.8444252014160156,0.9178939819335937
0.8509632110595703,0.9139497756958007
0.8509632110595703,0.9139497756958007
0.8513099670410156,0.9195877075195312
0.8513099670410156,0.9195877075195312
0.8448680877685547,0.9081613540649414
0.8448680877685547,0.9081613540649414
0.8525590896606445,0.9165349960327148
0.8525590896606445,0.9165349960327148
0.8430902481079101,0.9146415710449218
0.8430902481079101,0.9146415710449218
0.8502382278442383,0.9104375839233398
0.8502382278442383,0.9104375839233398
0.8494033813476562,0.9151268005371094
0.8494033813476562,0.9151268005371094
0.8435617446899414,0.9062370300292968
0.8435617446899414,0.9062370300292968
0.8512413024902343,0.9136968612670898
0.8512413024902343,0.9136968612670898
0.8426708221435547,0.9119098663330077
0.8426708221435547,0.9119098663330077
0.8485364913940430,0.9066232681274413
0.8485364913940430,0.9066232681274413
0.8484226226806640,0.9144624710083007
0.8484226226806640,0.9144624710083007
0.8429134368896484,0.9048786163330078
0.8429134368896484,0.9048786163330078
0.8514570236206055,0.9127080917358398
0.8514570236206055,0.9127080917358398
0.8418954849243164,0.9105136871337890
0.8418954849243164,0.9105136871337890
0.8487367630004883,0.9089979171752929
0.8487367630004883,0.9089979171752929
0.8493146896362305,0.9168245315551757
0.8493146896362305,0.9168245315551757
0.8450174331665039,0.9081539154052733
0.8450174331665039,0.9081539154052733
0.8525470733642578,0.9156423568725586
0.8525470733642578,0.9156423568725586
0.8438632965087890,0.9165309906005858
0.8438632965087890,0.9165309906005858
0.8509569168090820,0.9136058807373046
0.8509569168090820,0.9136058807373046
0.8520235061645508,0.9206079483032226
0.8520235061645508,0.9206079483032226
0.8459175109863281,0.9102676391601562
0.8459175109863281,0.9102676391601562
0.8538785934448242,0.9193582534790039
0.8538785934448242,0.9193582534790039
0.8449762344360351,0.9186819076538085
0.8449762344360351,0.9186819076538085
0.8525281906127929,0.9149391174316406
0.8525281906127929,0.9149391174316406
0.8519594192504882,0.9207138061523437
0.8519594192504882,0.9207138061523437
0.8465652465820312,0.9128196716308593
