REDsignal,IRsignal
0.3921461105346680,0.3297220230102539
0.3921461105346680,0.3297220230102539
0.3926124572753906,0.3311199188232422
0.3926124572753906,0.3311199188232422
0.3934192657470703,0.3310014724731445
0.3934192657470703,0.3310014724731445
0.3949951171875000,0.3343116760253906
0.3952589035034180,0.3343116760253906
0.3951341629028320,0.3358903884887695
0.3951341629028320,0.3358903884887695
0.3977926254272461,0.3389362335205078
0.3977926254272461,0.3389362335205078
0.3995721817016601,0.3428873062133789
0.3995721817016601,0.3428873062133789
0.4018587112426757,0.3451103210449218
0.4018587112426757,0.3451103210449218
0.4046167373657226,0.3504552841186523
0.4046167373657226,0.3504552841186523
0.4055179595947265,0.3534725189208984
0.4055179595947265,0.3534725189208984
0.4084470748901367,0.3570041656494141
0.4084470748901367,0.3570041656494141
0.4099771499633789,0.3604001998901367
0.4099771499633789,0.3604001998901367
0.4115232467651367,0.3609518051147461
0.4115232467651367,0.3609518051147461
0.4127569198608398,0.3637161254882812
0.4127569198608398,0.3637161254882812
0.4118556976318359,0.3634243011474609
0.4118556976318359,0.3634243011474609
0.4127557754516601,0.3634260177612305
0.4127557754516601,0.3634260177612305
0.4121097564697265,0.3631679534912109
0.4121097564697265,0.3631679534912109
0.4117063522338867,0.3606874465942383
0.4117063522338867,0.3606874465942383
0.4115283966064453,0.3612081527709961
0.4115283966064453,0.3612081527709961
0.4095874786376953,0.3595378875732422
0.4095874786376953,0.3595378875732422
0.4101648330688477,0.3591379165649414
0.4101648330688477,0.3591379165649414
0.4098112106323242,0.3596551895141601
0.4098112106323242,0.3596551895141601
0.4098318099975586,0.3581537246704101
0.4098318099975586,0.3581537246704101
0.4106906890869140,0.3602748870849609
0.4106906890869140,0.3602748870849609
0.4098209381103515,0.3605581283569336
0.4098209381103515,0.3605581283569336
0.4113258361816406,0.3617082595825195
0.4113258361816406,0.3617082595825195
0.4118911743164063,0.3635673522949219
0.4118911743164063,0.3635673522949219
0.4126590728759765,0.3634386062622070
0.4126590728759765,0.3634386062622070
0.4140426635742188,0.3665456771850586
0.4140426635742188,0.3665456771850586
0.4132164001464844,0.3663751602172852
0.4132164001464844,0.3663751602172852
0.4134687423706054,0.3644382476806641
0.4134687423706054,0.3644382476806641
0.4101997375488281,0.3590251922607422
0.4101997375488281,0.3590251922607422
0.4052856445312500,0.3488016128540039
0.4052856445312500,0.3488016128540039
0.4007223129272461,0.3426635742187500
0.4007223129272461,0.3426635742187500
0.3955924987792969,0.3361936569213867
0.3955924987792969,0.3361936569213867
0.3939514160156250,0.3326574325561523
0.3939514160156250,0.3326574325561523
0.3921667098999023,0.3309608459472656
0.3921667098999023,0.3309608459472656
0.3913473129272461,0.3282268524169922
0.3913473129272461,0.3282268524169922
0.3917089462280273,0.3296607971191406
0.3917089462280273,0.3296607971191406
0.3907070159912109,0.3294233322143554
0.3907070159912109,0.3294233322143554
0.3921060562133789,0.3306541442871094
0.3921060562133789,0.3306541442871094
0.3930673599243164,0.3327838897705078
0.3930673599243164,0.3327838897705078
0.3943342208862304,0.3332084655761718
0.3943342208862304,0.3332084655761718
0.3963724136352539,0.3376321792602539
0.3963724136352539,0.3376321792602539
0.3970539093017578,0.3402088165283203
0.3970539093017578,0.3402088165283203
0.4002382278442383,0.3443458557128906
0.4002382278442383,0.3443458557128906
0.4024366378784179,0.3490413665771484
0.4024366378784179,0.3490413665771484
0.4050653457641601,0.3516586303710937
0.4050653457641601,0.3516586303710937
0.4079818725585938,0.3573143005371094
0.4079818725585938,0.3573143005371094
0.4088602066040039,0.3600322723388672
0.4088602066040039,0.3600322723388672
0.4115329742431640,0.3631067276000977
0.4115329742431640,0.3631067276000977
0.4125869750976562,0.3656805038452148
0.4125869750976562,0.3656805038452148
0.4133216857910156,0.3648799896240234
0.4133216857910156,0.3648799896240234
0.4140312194824219,0.3666893005371094
0.4135831832885742,0.3666893005371094
0.4125234603881836,0.3652753829956055
0.4125234603881836,0.3652753829956055
0.4127391815185547,0.3643896102905274
0.4127391815185547,0.3643896102905274
0.4118133544921875,0.3635782241821289
0.4118133544921875,0.3635782241821289
0.4109086990356445,0.3603034973144531
0.4109086990356445,0.3603034973144531
0.4107004165649414,0.3608476638793945
0.4107004165649414,0.3608476638793945
0.4087429046630859,0.3590297698974609
0.4087429046630859,0.3590297698974609
0.4093666076660156,0.3586624145507812
0.4093666076660156,0.3586624145507812
0.4090175628662109,0.3591110229492188
0.4090175628662109,0.3591110229492188
0.4091159820556641,0.3576559066772461
0.4091159820556641,0.3576559066772461
0.4099502563476562,0.3599109649658203
0.4099502563476562,0.3599109649658203
0.4091434478759766,0.3599292755126953
0.4091434478759766,0.3599292755126953
0.4106431961059570,0.3610754013061523
0.4106431961059570,0.3610754013061523
0.4110265731811523,0.3626598358154297
0.4110265731811523,0.3626598358154297
0.4115112304687500,0.3618581771850586
0.4115112304687500,0.3618581771850586
0.4123844146728515,0.3637041091918945
0.4117893218994140,0.3637041091918945
0.4100795745849609,0.3605575561523438
0.4092144012451172,0.3605575561523438
0.4049554824829101,0.3550844192504883
0.4046001434326172,0.3550844192504883
0.4033933639526367,0.3482053756713867
0.4033933639526367,0.3482053756713867
0.3988735198974609,0.3395055770874023
0.3988735198974609,0.3395055770874023
0.3962425231933593,0.3362085342407227
0.3962425231933593,0.3362085342407227
0.3924905776977539,0.3320703506469727
0.3924905776977539,0.3320703506469727
0.3922348022460938,0.3303302764892578
0.3922348022460938,0.3303302764892578
0.3912878036499023,0.3302209854125976
0.3912878036499023,0.3302209854125976
0.3911327362060547,0.3283561706542968
0.3911327362060547,0.3283561706542968
0.3923006057739258,0.3308853149414062
0.3923006057739258,0.3308853149414062
0.3914960861206054,0.3312429428100586
0.3914960861206054,0.3312429428100586
0.3937202453613281,0.3331117630004883
0.3937202453613281,0.3331117630004883
0.3946964263916016,0.3360912322998047
0.3946964263916016,0.3360912322998047
0.3962265014648437,0.3369832992553711
0.3962265014648437,0.3369832992553711
0.3990554809570312,0.3424238204956054
0.3990554809570312,0.3424238204956054
0.3997472763061523,0.3453266143798828
0.3997472763061523,0.3453266143798828
0.4032566070556641,0.3494453430175781
0.4032566070556641,0.3494453430175781
0.4054224014282227,0.3540166854858398
0.4054224014282227,0.3540166854858398
0.4075904846191406,0.3560474395751953
0.4075904846191406,0.3560474395751953
0.4105218887329101,0.3613901138305664
0.4105218887329101,0.3613901138305664
0.4106866836547852,0.3631175994873047
0.4106866836547852,0.3631175994873047
0.4128519058227539,0.3651460647583007
0.4128519058227539,0.3651460647583007
0.4132638931274414,0.3665971755981445
0.4132638931274414,0.3665971755981445
0.4133096694946289,0.3649646759033203
0.4133096694946289,0.3649646759033203
0.4140415191650391,0.3664604187011719
0.4140415191650391,0.3664604187011719
0.4119770050048828,0.3646762847900391
0.4119770050048828,0.3646762847900391
0.4126527786254883,0.3636177062988281
0.4126527786254883,0.3636177062988281
0.4115226745605469,0.3630935668945313
0.4115226745605469,0.3630935668945313
0.4104446411132812,0.3597850799560547
0.4104446411132812,0.3597850799560547
0.4107999801635742,0.3607990264892578
0.4107999801635742,0.3607990264892578
0.4086536407470703,0.3591939926147461
0.4086536407470703,0.3591939926147461
0.4096555709838867,0.3590188980102539
0.4096555709838867,0.3590188980102539
0.4093574523925781,0.3598646163940429
0.4093574523925781,0.3598646163940429
0.4091577529907227,0.3581056594848633
0.4091577529907227,0.3581056594848633
0.4106981277465820,0.3609489440917968
0.4106981277465820,0.3609489440917968
0.4094038009643555,0.3610158920288086
0.4094038009643555,0.3610158920288086
0.4116044998168945,0.3625402450561523
0.4116044998168945,0.3625402450561523
0.4122493743896484,0.3650087356567382
0.4130029678344727,0.3650087356567382
0.4127511978149414,0.3645875930786133
0.4127511978149414,0.3645875930786133
0.4146005630493164,0.3674343109130859
0.4146005630493164,0.3674343109130859
0.4119684219360352,0.3646837234497070
0.4119684219360352,0.3646837234497070
0.4113206863403320,0.3602308273315429
0.4113206863403320,0.3602308273315429
0.4072723388671875,0.3549356460571289
0.4072723388671875,0.3549356460571289
0.4026008605957031,0.3462415695190429
0.4026008605957031,0.3462415695190429
0.4008075714111328,0.3436477661132812
0.4008075714111328,0.3436477661132812
0.3963518142700195,0.3392366409301757
0.3963518142700195,0.3392366409301757
0.3967603683471679,0.3374576568603516
0.3967603683471679,0.3374576568603516
0.3959695816040039,0.3379892349243164
0.3959695816040039,0.3379892349243164
0.3951307296752929,0.3354681015014648
0.3951307296752929,0.3354681015014648
0.3972845077514648,0.3386987686157226
0.3972845077514648,0.3386987686157226
0.3955301284790039,0.3390478134155273
0.3955301284790039,0.3390478134155273
0.3984809875488281,0.3407638549804687
0.3984809875488281,0.3407638549804687
0.3996723175048828,0.3447069168090820
0.3996723175048828,0.3447069168090820
0.4005105972290039,0.3451023101806641
0.4005105972290039,0.3451023101806641
0.4046264648437500,0.3513004302978516
0.4046264648437500,0.3513004302978516
0.4042253494262695,0.3541540145874023
0.4042253494262695,0.3541540145874023
0.4087949752807617,0.3573188781738281
0.4087949752807617,0.3573188781738281
0.4112617492675781,0.3643638610839844
0.4112617492675781,0.3643638610839844
0.4106489181518554,0.3629894256591797
0.4106489181518554,0.3629894256591797
0.4166822433471680,0.3698146820068359
0.4166822433471680,0.3698146820068359
0.4130447387695312,0.3705499649047851
0.4130447387695312,0.3705499649047851
0.4170564651489257,0.3708240509033203
0.4170564651489257,0.3708240509033203
0.4172899246215820,0.3733543395996093
0.4172899246215820,0.3733543395996093
0.4158216476440429,0.3703107833862305
0.4158216476440429,0.3703107833862305
0.4173671722412109,0.3718368530273438
0.4173671722412109,0.3718368530273438
0.4140810012817382,0.3696756362915039
0.4140810012817382,0.3696756362915039
0.4152980804443359,0.3682651519775391
0.4152980804443359,0.3682651519775391
0.4143053054809570,0.3682920455932617
0.4143053054809570,0.3682920455932617
0.4127243041992187,0.3646104812622070
0.4127243041992187,0.3646104812622070
0.4140569686889649,0.3661302566528320
0.4140569686889649,0.3661302566528320
0.4112222671508789,0.3647541046142578
0.4112222671508789,0.3647541046142578
0.4130086898803711,0.3644502639770508
0.4130086898803711,0.3644502639770508
0.4127180099487305,0.3659105300903320
0.4127180099487305,0.3659105300903320
0.4123060226440430,0.3641750335693359
0.4123060226440430,0.3641750335693359
0.4144111633300781,0.3673736572265625
0.4144111633300781,0.3673736572265625
0.4127872467041016,0.3677427291870117
0.4127872467041016,0.3677427291870117
0.4154651641845703,0.3690868377685547
0.4154651641845703,0.3690868377685547
0.4159223556518555,0.3716039657592773
0.4159223556518555,0.3716039657592773
0.4154766082763672,0.3692773818969726
0.4154766082763672,0.3692773818969726
0.4162261962890625,0.3692825317382812
0.4162261962890625,0.3692825317382812
0.4108257293701172,0.3629104614257813
0.4108257293701172,0.3629104614257813
0.4084716796875000,0.3552852630615234
0.4084716796875000,0.3552852630615234
0.4044788360595703,0.3512861251831055
0.4044788360595703,0.3512861251831055
0.3983482360839843,0.3409738540649414
0.3983482360839843,0.3409738540649414
0.4007555007934570,0.3418132781982422
0.4007555007934570,0.3418132781982422
0.3937946319580078,0.3385248184204102
0.3937946319580078,0.3385248184204102
0.3968502044677734,0.3364402770996094
0.3968502044677734,0.3364402770996094
0.3969657897949219,0.3402036666870117
0.3969657897949219,0.3402036666870117
0.3947313308715820,0.3358692169189453
0.3947313308715820,0.3358692169189453
0.4000024795532227,0.3413921356201172
0.4000024795532227,0.3413921356201172
0.3955072402954101,0.3417074203491211
0.3955072402954101,0.3417074203491211
0.4006072998046875,0.3430057525634765
0.4006072998046875,0.3430057525634765
0.4022140502929688,0.3492908477783203
0.4022140502929688,0.3492908477783203
0.4016229629516602,0.3473447799682617
0.4016229629516602,0.3473447799682617
0.4081077575683594,0.3553150177001953
0.4081077575683594,0.3553150177001953
0.4044960021972656,0.3571306228637695
0.4044960021972656,0.3571306228637695
0.4103616714477539,0.3594589233398438
0.4103616714477539,0.3594589233398438
0.4119054794311524,0.3657291412353516
0.4119054794311524,0.3657291412353516
0.4111295700073242,0.3630163192749024
0.4113470077514648,0.3630163192749024
0.4165431976318359,0.3692235946655273
0.4165431976318359,0.3692235946655273
0.4114402770996093,0.3681936264038086
0.4114402770996093,0.3681936264038086
0.4155818939208984,0.3673570632934570
0.4155818939208984,0.3673570632934570
0.4149312973022461,0.3701087951660156
0.4149312973022461,0.3701087951660156
0.4123901367187500,0.3640399932861328
0.4123901367187500,0.3640399932861328
0.4156620025634766,0.3672620773315430
0.4156620025634766,0.3672620773315430
0.4096326828002930,0.3639043807983398
0.4096326828002930,0.3639043807983398
0.4128158569335937,0.3624887466430664
0.4096424102783203,0.3624887466430664
0.4112846374511719,0.3639736175537109
0.4112846374511719,0.3639736175537109
0.4094964981079102,0.3588895797729492
0.4094964981079102,0.3588895797729492
0.4126853942871094,0.3629785537719726
0.4126853942871094,0.3629785537719726
0.4077569961547852,0.3610679626464844
0.4077569961547852,0.3610679626464844
0.4117870330810547,0.3612602233886719
0.4117870330810547,0.3612602233886719
0.4113241195678711,0.3642814636230469
0.4113241195678711,0.3642814636230469
0.4102832794189453,0.3605627059936523
0.4102832794189453,0.3605627059936523
0.4140821456909179,0.3658824920654297
0.4140821456909179,0.3658824920654297
0.4097139358520508,0.3646791458129883
0.4097139358520508,0.3646791458129883
0.4143676757812500,0.3657457351684570
0.4143676757812500,0.3657457351684570
0.4137210845947266,0.3685701370239258
0.4137210845947266,0.3685701370239258
0.4119169235229492,0.3626775741577148
0.4119169235229492,0.3626775741577148
0.4131975173950195,0.3627439498901367
0.4131975173950195,0.3627439498901367
0.4045446395874023,0.3546501159667969
0.4045446395874023,0.3546501159667969
0.4047677993774414,0.3483758926391601
0.4047677993774414,0.3483758926391601
0.4008075714111328,0.3464504241943359
0.4008075714111328,0.3464504241943359
0.3970624923706055,0.3385986328125000
0.3970624923706055,0.3385986328125000
0.3995510101318359,0.3414390563964844
0.3995510101318359,0.3414390563964844
0.3937253952026367,0.3387948989868164
0.3937253952026367,0.3387948989868164
0.3980237960815430,0.3386884689331054
0.3980237960815430,0.3386884689331054
0.3975471496582031,0.3421760559082031
0.3975471496582031,0.3421760559082031
0.3969394683837891,0.3387617111206054
0.3969394683837891,0.3387617111206054
0.4017917633056641,0.3455211639404297
0.4017917633056641,0.3455211639404297
0.3978796005249023,0.3458845138549805
0.3978796005249023,0.3458845138549805
0.4041749954223633,0.3489641189575195
0.4041749954223633,0.3489641189575195
0.4052541732788086,0.3555261611938477
0.4052541732788086,0.3555261611938477
0.4061347961425781,0.3544670104980469
0.4061347961425781,0.3544670104980469
0.4126184463500976,0.3638357162475586
0.4126184463500976,0.3638357162475586
0.4092676162719727,0.3655019760131836
0.4092676162719727,0.3655019760131836
0.4160779953002929,0.3690261840820312
0.4160779953002929,0.3690261840820312
0.4169002532958984,0.3750051498413086
0.4169002532958984,0.3750051498413086
0.4167240142822266,0.3720565795898437
0.4167240142822266,0.3720565795898437
0.4218034744262695,0.3789413452148437
0.4205863952636719,0.3768671035766601
0.4210550308227539,0.3762147903442383
0.4210550308227539,0.3762147903442383
0.4191593170166015,0.3783330917358398
0.4191593170166015,0.3783330917358398
0.4163721084594726,0.3703617095947265
0.4163721084594726,0.3703617095947265
0.4191827774047852,0.3749238967895508
0.4191827774047852,0.3749238967895508
0.4109252929687500,0.3694776535034179
0.4109252929687500,0.3694776535034179
0.4161769866943359,0.3667894363403320
0.4161769866943359,0.3667894363403320
0.4138458251953125,0.3694999694824219
0.4138458251953125,0.3694999694824219
0.4104932785034179,0.3606290817260742
0.4104932785034179,0.3606290817260742
0.4160133361816406,0.3676105499267578
0.4160133361816406,0.3676105499267578
0.4074085235595703,0.3640153884887695
0.4146366119384766,0.3678743362426758
0.4140054702758789,0.3635541915893555
0.4140054702758789,0.3635541915893555
0.4129011154174805,0.3682600021362304
0.4129011154174805,0.3682600021362304
0.4107227325439453,0.3616825103759765
0.4107227325439453,0.3616825103759765
0.4171382904052734,0.3702541351318359
0.4171382904052734,0.3702541351318359
0.4094770431518555,0.3679183959960937
0.4094770431518555,0.3679183959960937
0.4164407730102539,0.3672752380371094
0.4164407730102539,0.3672752380371094
0.4139808654785156,0.3694393157958984
0.4139808654785156,0.3694393157958984
0.4087755203247070,0.3567117691040039
0.4069335937500000,0.3567117691040039
0.4109539031982422,0.3581857681274414
0.4109539031982422,0.3581857681274414
0.3983968734741211,0.3485790252685547
0.3983968734741211,0.3485790252685547
0.4026266098022461,0.3434160232543945
0.4026266098022461,0.3434160232543945
0.3988071441650390,0.3450794219970703
0.3988071441650390,0.3450794219970703
0.3948257446289062,0.3350109100341797
0.3948257446289062,0.3350109100341797
0.4007549285888672,0.3429250717163086
0.4007549285888672,0.3429250717163086
0.3918680191040039,0.3391702651977539
0.3918680191040039,0.3391702651977539
0.3997146606445313,0.3394592285156250
0.3997146606445313,0.3394592285156250
0.3987241744995117,0.3455280303955078
0.3987241744995117,0.3455280303955078
0.3969400405883789,0.3390340805053711
0.3969400405883789,0.3390340805053711
0.4047975540161133,0.3500827789306640
0.4047975540161133,0.3500827789306640
0.3975889205932617,0.3493183135986328
0.3975889205932617,0.3493183135986328
0.4069284439086914,0.3521278381347656
0.4069284439086914,0.3521278381347656
0.4076087951660156,0.3609586715698242
0.4076087951660156,0.3609586715698242
0.4064552307128906,0.3553236007690430
0.4064552307128906,0.3553236007690430
0.4152986526489258,0.3673376083374023
0.4152986526489258,0.3673376083374023
0.4073787689208984,0.3657669067382812
0.4073787689208984,0.3657669067382812
0.4160350799560547,0.3664798736572266
0.4160350799560547,0.3664798736572266
0.4149187088012695,0.3723461151123047
0.4149187088012695,0.3723461151123047
0.4113796234130859,0.3626770019531250
0.4113796234130859,0.3626770019531250
0.4180463790893554,0.3708337783813476
0.4180463790893554,0.3708337783813476
0.4069467544555664,0.3646013259887695
0.4069467544555664,0.3646013259887695
0.4139837265014648,0.3616802215576172
0.4139837265014648,0.3616802215576172
0.4110231399536133,0.3658081054687500
0.4110231399536133,0.3658081054687500
0.4062429428100586,0.3537139892578125
0.4062429428100586,0.3537139892578125
0.4134876251220703,0.3627891540527344
0.4134876251220703,0.3627891540527344
0.4017597198486328,0.3570465087890625
0.4017597198486328,0.3570465087890625
0.4107725143432617,0.3557893753051758
0.4107725143432617,0.3557893753051758
0.4085906982421875,0.3621831893920898
0.4085906982421875,0.3621831893920898
0.4048702239990234,0.3514554977416992
0.4048702239990234,0.3514554977416992
0.4136260986328125,0.3633047103881836
0.4136260986328125,0.3633047103881836
0.4025333404541016,0.3587596893310547
0.4131225585937500,0.3587596893310547
0.4131334304809570,0.3599109649658203
0.4131334304809570,0.3599109649658203
0.4115581512451172,0.3681055068969726
0.4115581512451172,0.3681055068969726
0.4088087081909180,0.3585691452026367
0.4088087081909180,0.3585691452026367
0.4188657760620117,0.3723695755004883
0.4188657760620117,0.3723695755004883
0.4069198608398437,0.3666263580322265
0.4069198608398437,0.3666263580322265
0.4164653778076172,0.3637710571289062
0.4164653778076172,0.3637710571289062
0.4112079620361328,0.3654258728027344
0.4112079620361328,0.3654258728027344
0.4030225753784180,0.3466209411621093
0.4030225753784180,0.3466209411621093
0.4079755783081054,0.3521982192993164
0.4079755783081054,0.3521982192993164
0.3918331146240234,0.3404874801635742
0.3918331146240234,0.3404874801635742
0.4004442214965820,0.3372344970703125
0.4004442214965820,0.3372344970703125
0.3963678359985351,0.3421846389770508
0.3963678359985351,0.3421846389770508
0.3916860580444336,0.3295417785644531
0.3916860580444336,0.3295417785644531
0.4005689620971680,0.3417028427124023
0.4005689620971680,0.3417028427124023
0.3888559341430664,0.3360511779785156
0.3888559341430664,0.3360511779785156
0.3997770309448242,0.3374153137207031
0.3997770309448242,0.3374153137207031
0.3982034683227539,0.3456230163574219
0.3982034683227539,0.3456230163574219
0.3961441040039063,0.3372585296630859
0.3961441040039063,0.3372585296630859
0.4059270858764648,0.3514394760131836
0.4059270858764648,0.3514394760131836
0.3968164443969727,0.3483798980712891
0.3968164443969727,0.3483798980712891
0.4081438064575195,0.3521810531616211
0.4081438064575195,0.3521810531616211
0.4072597503662109,0.3607721328735352
0.4072597503662109,0.3607721328735352
0.4057971954345703,0.3533248901367188
0.4057971954345703,0.3533248901367188
0.4145181655883789,0.3657880783081054
0.4145181655883789,0.3657880783081054
0.4046602249145508,0.3607818603515625
0.4046602249145508,0.3607818603515625
0.4141096115112304,0.3615045547485352
0.4141096115112304,0.3615045547485352
0.4114809036254883,0.3666280746459961
0.4114809036254883,0.3666280746459961
0.4077524185180664,0.3559473037719726
0.4077524185180664,0.3559473037719726
0.4141513824462891,0.3646053314208984
0.4141513824462891,0.3646053314208984
0.4028709411621094,0.3566499710083008
0.4028709411621094,0.3566499710083008
0.4106855392456055,0.3551359176635742
0.4106855392456055,0.3551359176635742
0.4069335937500000,0.3588140487670898
0.4069335937500000,0.3588140487670898
0.4029081344604492,0.3476875305175781
0.4029081344604492,0.3476875305175781
0.4091629028320312,0.3566619873046875
0.4091629028320312,0.3566619873046875
0.3984947204589844,0.3497131347656250
0.3984947204589844,0.3497131347656250
0.4074417114257812,0.3502561569213867
0.4074417114257812,0.3502561569213867
0.4049200057983398,0.3557327270507812
0.4049200057983398,0.3557327270507812
0.4022277832031250,0.3468000411987305
0.4022277832031250,0.3468000411987305
0.4093746185302734,0.3577131271362304
0.4093746185302734,0.3577131271362304
0.3997816085815429,0.3519166946411132
0.3997816085815429,0.3519166946411132
0.4094295501708984,0.3540933609008789
0.4094295501708984,0.3540933609008789
0.4070503234863281,0.3599687576293945
0.4070503234863281,0.3599687576293945
0.4045211791992188,0.3500741958618164
0.4045211791992188,0.3500741958618164
0.4104812622070312,0.3582916259765625
0.4104812622070312,0.3582916259765625
0.3967386245727539,0.3464733123779297
0.3967386245727539,0.3464733123779297
0.4032085418701172,0.3414327621459961
0.4032085418701172,0.3414327621459961
0.3971300125122070,0.3430824279785156
0.3971300125122070,0.3430824279785156
0.3904855728149414,0.3268724441528320
0.3904855728149414,0.3268724441528320
0.3992855072021484,0.3386621475219727
0.3992855072021484,0.3386621475219727
0.3819522857666016,0.3274904251098633
0.3819522857666016,0.3274904251098633
0.3971431732177734,0.3274480819702149
0.3971431732177734,0.3274480819702149
0.3908374786376953,0.3379137039184570
0.3908374786376953,0.3379137039184570
0.3866855621337891,0.3203464508056640
0.3842113494873047,0.3203464508056640
0.4007829666137695,0.3416238784790039
0.4007829666137695,0.3416238784790039
0.3815889358520508,0.3290285110473632
0.3815889358520508,0.3290285110473632
0.4016824722290039,0.3343236923217773
0.4016824722290039,0.3343236923217773
0.3963123321533203,0.3471879959106445
0.3963123321533203,0.3471879959106445
0.3937986373901367,0.3319169998168945
0.3937986373901367,0.3319169998168945
0.4094501495361328,0.3551731109619141
0.4094501495361328,0.3551731109619141
0.3896369934082031,0.3427036285400391
0.3896369934082031,0.3427036285400391
0.4109161376953125,0.3481155395507812
0.4109161376953125,0.3481155395507812
0.4045829772949219,0.3612184524536133
0.4045829772949219,0.3612184524536133
0.4007354736328125,0.3425062179565430
0.4007354736328125,0.3425062179565430
0.4159812927246094,0.3672294616699219
0.4159812927246094,0.3672294616699219
0.3909896850585937,0.3477178573608398
0.3909896850585937,0.3477178573608398
0.4161306381225586,0.3533929824829101
0.4161306381225586,0.3533929824829101
0.4039443969726562,0.3609987258911133
0.4039443969726562,0.3609987258911133
0.4001111984252930,0.3403209686279297
0.4001111984252930,0.3403209686279297
0.4122556686401367,0.3588712692260742
0.4122556686401367,0.3588712692260742
0.3894161224365234,0.3410528182983398
0.3894161224365234,0.3410528182983398
0.4082445144653320,0.3431407928466797
0.4082445144653320,0.3431407928466797
0.4001546859741211,0.3514846801757812
0.4001546859741211,0.3514846801757812
0.3962642669677734,0.3326379776000977
0.3962642669677734,0.3326379776000977
0.4076740264892578,0.3532745361328125
0.4076740264892578,0.3532745361328125
0.3853471755981445,0.3356660842895507
0.3853471755981445,0.3356660842895507
0.4068643569946289,0.3400234222412109
0.4068643569946289,0.3400234222412109
0.3983058929443359,0.3499431610107422
0.3983058929443359,0.3499431610107422
0.3954540252685547,0.3322757720947265
0.3954540252685547,0.3322757720947265
0.4088012695312500,0.3539108276367187
0.4088012695312500,0.3539108276367187
0.3861413955688476,0.3368482589721680
0.3861413955688476,0.3368482589721680
0.4082662582397461,0.3423597335815430
0.4082662582397461,0.3423597335815430
0.3987321853637695,0.3507516860961914
0.3987321853637695,0.3507516860961914
0.3951616287231445,0.3310598373413086
0.3951616287231445,0.3310598373413086
0.4056461334228516,0.3487798690795899
0.4056461334228516,0.3487798690795899
0.3807043075561523,0.3272563934326172
0.3807043075561523,0.3272563934326172
0.4002902984619141,0.3287893295288086
0.4002902984619141,0.3287893295288086
0.3887037277221679,0.3333606719970703
0.3975448608398438,0.3333606719970703
0.3860366821289062,0.3177949905395508
0.3860366821289062,0.3177949905395508
0.3948354721069336,0.3331495285034179
0.3948354721069336,0.3331495285034179
0.3771171569824219,0.3182922363281250
0.3771171569824219,0.3182922363281250
0.3940996170043945,0.3233087539672851
0.3940996170043945,0.3233087539672851
0.3870162963867188,0.3305568695068359
0.3870162963867188,0.3305568695068359
0.3861253738403320,0.3184267044067383
0.3861253738403320,0.3184267044067383
0.3965978622436523,0.3360660552978516
0.3965978622436523,0.3360660552978516
0.3807861328125000,0.3239101409912109
0.3807861328125000,0.3239101409912109
0.3991653442382813,0.3309917449951172
0.3991653442382813,0.3309917449951172
0.3927177429199218,0.3397361755371094
0.3927177429199218,0.3397361755371094
0.3931411743164062,0.3294250488281250
0.3931411743164062,0.3294250488281250
0.4035753250122070,0.3467342376708984
0.4035753250122070,0.3467342376708984
0.3875083923339844,0.3339448928833008
0.3875083923339844,0.3339448928833008
0.4050767898559570,0.3398122787475586
0.4050767898559570,0.3398122787475586
0.3967494964599609,0.3461322784423828
0.3967494964599609,0.3461322784423828
0.3958316802978515,0.3333515167236328
0.3958316802978515,0.3333515167236328
0.4048353195190429,0.3487174987792969
0.4048353195190429,0.3487174987792969
0.3850759506225586,0.3330699920654297
0.3850759506225586,0.3330699920654297
0.4064180374145508,0.3383686065673828
0.4064180374145508,0.3383686065673828
0.3954545974731445,0.3463542938232422
0.3954545974731445,0.3463542938232422
0.3934473037719726,0.3290256500244140
0.3934473037719726,0.3290256500244140
0.4055831909179687,0.3484851837158203
0.4055831909179687,0.3484851837158203
0.4013093948364257,0.3476268768310547
0.4013093948364257,0.3471559524536132
0.4013093948364257,0.3471559524536132
0.3885160446166992,0.3240869522094726
0.3958963394165039,0.3240869522094726
0.4071023941040039,0.3430040359497070
0.4071023941040039,0.3430040359497070
0.3853311538696289,0.3383686065673828
0.3853311538696289,0.3383686065673828
0.3986068725585937,0.3302227020263672
0.3986068725585937,0.3302227020263672
0.4011869430541992,0.3467760086059570
0.4011869430541992,0.3467760086059570
0.3879913330078125,0.3237379074096680
0.3879913330078125,0.3237379074096680
0.4068220138549805,0.3426378250122070
0.4068220138549805,0.3426378250122070
0.3849123001098633,0.3382547378540039
0.3849123001098633,0.3382547378540039
0.3982927322387695,0.3298622131347656
0.3982927322387695,0.3298622131347656
0.3999452590942383,0.3451400756835937
0.3999452590942383,0.3451400756835937
0.3858066558837890,0.3192981719970703
0.3858066558837890,0.3192981719970703
0.4021219253540039,0.3349279403686523
0.4021219253540039,0.3349279403686523
0.3767658233642578,0.3252799987792969
0.3767658233642578,0.3252799987792969
0.3885074615478515,0.3134302139282226
0.3885074615478515,0.3134302139282226
0.3878568649291992,0.3262710571289062
0.3878568649291992,0.3262710571289062
0.3732393264770508,0.3000526428222656
0.3732393264770508,0.3000526428222656
0.3907052993774414,0.3178092956542969
0.3907052993774414,0.3178092956542969
0.3671928405761719,0.3113039016723633
0.3671928405761719,0.3113039016723633
0.3818069458007812,0.3030321121215820
0.3818069458007812,0.3030321121215820
0.3831876754760742,0.3198389053344726
0.3831876754760742,0.3198389053344726
0.3709585189819336,0.2972150802612304
0.3709585189819336,0.2972150802612304
0.3908929824829102,0.3188055038452148
0.3908929824829102,0.3188055038452148
0.3689306259155273,0.3152893066406250
0.3689306259155273,0.3152893066406250
0.3857831954956055,0.3100175857543945
0.3857831954956055,0.3100175857543945
0.3889646530151367,0.3298107147216797
0.3889646530151367,0.3298107147216797
0.3786014556884765,0.3100793838500976
0.3786014556884765,0.3100793838500976
0.3999664306640625,0.3339832305908203
0.3999664306640625,0.3339832305908203
0.3794197082519531,0.3321464538574219
0.3794197082519531,0.3321464538574219
0.3972862243652344,0.3283224105834961
0.3972862243652344,0.3283224105834961
0.3999778747558594,0.3474077224731445
0.3999778747558594,0.3474077224731445
0.3892135620117188,0.3265296936035156
0.3892135620117188,0.3265296936035156
0.4091274261474609,0.3481733322143555
0.4091274261474609,0.3481733322143555
0.3864583969116211,0.3428094863891601
0.3864583969116211,0.3428094863891601
0.4027267456054687,0.3359630584716797
0.4027267456054687,0.3359630584716797
0.4025075912475586,0.3510538101196289
0.4025075912475586,0.3510538101196289
0.3903608322143555,0.3271905899047852
0.3903608322143555,0.3271905899047852
0.4080991744995117,0.3465539932250977
0.4080991744995117,0.3465539932250977
0.3839138031005859,0.3387205123901367
0.3839138031005859,0.3387205123901367
0.4002651214599609,0.3314786911010742
0.4002651214599609,0.3314786911010742
0.3990005493164062,0.3458341598510742
0.3990005493164062,0.3458341598510742
0.3872732162475586,0.3221952438354492
0.3872732162475586,0.3221952438354492
0.4054744720458984,0.3426103591918945
0.4054744720458984,0.3426103591918945
0.3816101074218750,0.3354028701782226
0.3816101074218750,0.3354028701782226
0.3988740921020508,0.3292585372924804
0.3988740921020508,0.3292585372924804
0.3981370925903320,0.3447904586791992
0.3981370925903320,0.3447904586791992
0.3871318817138672,0.3221174240112304
0.3871318817138672,0.3221174240112304
0.4060277938842773,0.3436569213867187
0.4060277938842773,0.3436569213867187
0.3823190689086914,0.3367795944213867
0.3823190689086914,0.3367795944213867
0.3999979019165039,0.3304258346557617
0.3999979019165039,0.3304258346557617
0.3976524353027344,0.3432226181030273
0.3976524353027344,0.3432226181030273
0.3836368560791015,0.3152120590209961
0.3836368560791015,0.3152120590209961
0.3991767883300781,0.3314071655273437
0.3991767883300781,0.3314071655273437
0.3714626312255859,0.3191207885742187
0.3714626312255859,0.3191207885742187
0.3874940872192383,0.3099346160888672
0.3874940872192383,0.3099346160888672
0.3839178085327148,0.3224418640136719
0.3839178085327148,0.3224418640136719
0.3718070983886719,0.2969633102416992
0.3718070983886719,0.2969633102416992
0.3901428222656250,0.3182579040527344
0.3901428222656250,0.3182579040527344
0.3648118972778320,0.3096765518188476
0.3648118972778320,0.3096765518188476
0.3841266632080078,0.3046354293823242
0.3841266632080078,0.3046354293823242
0.3823207855224609,0.3201519012451172
0.3823207855224609,0.3201519012451172
0.3720617294311523,0.2973627090454101
0.3720617294311523,0.2973627090454101
0.3915390014648437,0.3206840515136719
0.3915390014648437,0.3206840515136719
0.3674343109130859,0.3138736724853515
0.3674343109130859,0.3138736724853515
0.3876279830932617,0.3100370407104492
0.3876279830932617,0.3100370407104492
0.3865219116210937,0.3268255233764648
0.3865219116210937,0.3268255233764648
0.3767795562744141,0.3046840667724609
0.3767795562744141,0.3046840667724609
0.3964759826660156,0.3284156799316406
0.3964759826660156,0.3284156799316406
0.3723392486572266,0.3214977264404297
0.3723392486572266,0.3214977264404297
0.3924156188964844,0.3177572250366211
0.3924156188964844,0.3177572250366211
0.3905153274536133,0.3334430694580078
0.3905153274536133,0.3334430694580078
0.3803804397583008,0.3100965499877930
0.3803804397583008,0.3100965499877930
0.3990285873413086,0.3325819015502929
0.3990285873413086,0.3325819015502929
0.3740861892700195,0.3240766525268555
0.3740861892700195,0.3240766525268555
0.3933729171752929,0.3191671371459961
0.3933729171752929,0.3191671371459961
0.3905845642089844,0.3334774017333984
0.3905845642089844,0.3334774017333984
0.3799776077270507,0.3093595504760742
0.3799776077270507,0.3093595504760742
0.3983940124511718,0.3317951202392578
0.3983940124511718,0.3317951202392578
0.3732072830200195,0.3226472854614258
0.3732072830200195,0.3226472854614258
0.3929752349853515,0.3183586120605469
0.3929752349853515,0.3183586120605469
0.3899179458618164,0.3330287933349609
0.3899179458618164,0.3330287933349609
0.3799249649047852,0.3090791702270508
0.3799249649047852,0.3090791702270508
0.3987911224365234,0.3325275421142578
0.3987911224365234,0.3325275421142578
0.3736764907836914,0.3236732482910156
0.3736764907836914,0.3236732482910156
0.3942420959472656,0.3201032638549804
0.3942420959472656,0.3201032638549804
0.3911275863647461,0.3351127624511719
0.3911275863647461,0.3351127624511719
0.3818166732788086,0.3117078781127929
0.3818166732788086,0.3117078781127929
0.4003074645996094,0.3349868774414063
0.4003074645996094,0.3349868774414063
0.3748992919921875,0.3238145828247070
0.3748992919921875,0.3238145828247070
0.3927698135375977,0.3169773101806641
0.3927698135375977,0.3169773101806641
0.3858180999755859,0.3257394790649414
0.3858180999755859,0.3257394790649414
0.3733114242553711,0.2972946166992188
0.3733114242553711,0.2972946166992188
0.3881790161132813,0.3159450531005859
0.3881790161132813,0.3159450531005859
0.3618227005004883,0.3028930664062500
0.3618227005004883,0.3028930664062500
0.3800245285034179,0.2978302001953125
0.3800245285034179,0.2978302001953125
0.3752077102661133,0.3098934173583984
0.3752077102661133,0.3098934173583984
0.3655775070190430,0.2859003067016602
0.3655775070190430,0.2859003067016602
0.3827293395996094,0.3082489013671875
0.3827293395996094,0.3082489013671875
0.3586990356445313,0.2979864120483398
0.3586990356445313,0.2979864120483398
0.3788595199584961,0.2959596633911133
0.3788595199584961,0.2959596633911133
0.3747848510742187,0.3097040176391602
0.3747848510742187,0.3097040176391602
0.3669164657592773,0.2879081726074219
0.3669164657592773,0.2879081726074219
0.3849266052246094,0.3118103027343750
0.3849266052246094,0.3118103027343750
0.3616230010986328,0.3022087097167969
0.3616230010986328,0.3022087097167969
0.3825542449951172,0.3017126083374023
0.3825542449951172,0.3017126083374023
0.3788566589355469,0.3162265777587890
0.3788566589355469,0.3162265777587890
0.3716663360595703,0.2952192306518555
0.3716663360595703,0.2952192306518555
0.3895854949951172,0.3193290710449219
0.3895854949951172,0.3193290710449219
0.3663282394409180,0.3092834472656250
0.3663282394409180,0.3092834472656250
0.3869705200195312,0.3084960937500000
0.3869705200195312,0.3084960937500000
0.3825130462646484,0.3219800949096679
0.3825130462646484,0.3219800949096679
0.3747642517089844,0.2993722915649414
0.3747642517089844,0.2993722915649414
0.3915836334228516,0.3223989486694336
0.3915836334228516,0.3223989486694336
0.3675659179687500,0.3104267120361328
0.3675659179687500,0.3104267120361328
0.3876417160034180,0.3090419769287109
0.3876417160034180,0.3090419769287109
0.3823156356811523,0.3214456558227539
0.3823156356811523,0.3214456558227539
0.3743825912475586,0.2989076614379882
0.3743825912475586,0.2989076614379882
0.3909009933471679,0.3217163085937500
0.3909009933471679,0.3217163085937500
0.3674669265747070,0.3098081588745117
0.3674669265747070,0.3098081588745117
0.3877647399902344,0.3094310760498047
0.3877647399902344,0.3094310760498047
0.3825908660888672,0.3221677780151367
0.3825908660888672,0.3221677780151367
0.3755973815917968,0.3008880615234375
0.3755973815917968,0.3008880615234375
0.3923652648925781,0.3240119934082031
0.3801378250122070,0.3240119934082031
0.3694770812988281,0.3118108749389648
0.3694770812988281,0.3118108749389648
0.3895614624023437,0.3118698120117188
0.3895614624023437,0.3118698120117188
0.3839372634887695,0.3241144180297851
0.3839372634887695,0.3241144180297851
0.3764780044555664,0.3020605087280273
0.3764780044555664,0.3020605087280273
0.3914257049560547,0.3226249694824219
0.3914257049560547,0.3226249694824219
0.3658390045166016,0.3057580947875976
0.3658390045166016,0.3057580947875976
0.3827613830566406,0.3012577056884765
0.3827613830566406,0.3012577056884765
0.3739271163940430,0.3087684631347656
0.3739271163940430,0.3087684631347656
0.3645881652832031,0.2835376739501953
0.3645881652832031,0.2835376739501953
0.3783817291259766,0.3030687332153320
0.3783817291259766,0.3030687332153320
0.3541374206542969,0.2875854492187500
0.3541374206542969,0.2875854492187500
0.3732290267944336,0.2871294021606445
0.3732290267944336,0.2871294021606445
0.3665777206420898,0.2973094940185547
0.3665777206420898,0.2973094940185547
0.3599390029907226,0.2761304855346680
0.3599390029907226,0.2761304855346680
0.3747991561889648,0.2980178833007812
0.3747991561889648,0.2980178833007812
0.3527961730957031,0.2843479156494140
0.3527961730957031,0.2843479156494140
0.3731454849243164,0.2861246109008789
0.3731454849243164,0.2861246109008789
0.3668666839599609,0.2978416442871094
0.3668666839599609,0.2978416442871094
0.3615154266357422,0.2785720825195312
0.3615154266357422,0.2785720825195312
0.3770324707031250,0.3016862869262695
0.3770324707031250,0.3016862869262695
0.3559553146362305,0.2889678955078125
0.3559553146362305,0.2889678955078125
0.3769775390625000,0.2923061370849609
0.3769775390625000,0.2923061370849609
0.3712680816650391,0.3050376892089844
0.3712680816650391,0.3050376892089844
0.3667436599731445,0.2866046905517578
0.3667436599731445,0.2866046905517578
0.3824254989624024,0.3100027084350586
0.3720520019531250,0.3100027084350586
0.3613180160522461,0.2967756271362305
0.3613180160522461,0.2967756271362305
0.3822149276733398,0.3000480651855469
0.3822149276733398,0.3000480651855469
0.3689947128295898,0.3080806732177734
0.3689947128295898,0.3080806732177734
0.3674715042114258,0.3072750091552734
0.3674715042114258,0.3072750091552734
0.3765157699584961,0.2969661712646484
0.3765157699584961,0.2969661712646484
0.3826114654541016,0.3145460128784179
0.3826114654541016,0.3145460128784179
0.3678880691528320,0.2915702819824219
0.3678880691528320,0.2915702819824219
0.3867485046386719,0.3087535858154297
0.3867485046386719,0.3087535858154297
0.3675985336303711,0.3073991775512695
0.3675985336303711,0.3073991775512695
0.3767847061157226,0.2975057601928711
0.3767847061157226,0.2975057601928711
0.3829359054565429,0.3153167724609375
0.3829118728637695,0.3153167724609375
0.3686056137084961,0.2925699234008789
0.3686056137084961,0.2925699234008789
0.3879541397094726,0.3105760574340820
0.3879541397094726,0.3105760574340820
0.3690336227416992,0.3097354888916016
0.3690336227416992,0.3097354888916016
0.3786088943481445,0.3001562118530273
0.3786088943481445,0.3001562118530273
0.3850387573242187,0.3183992385864258
0.3850387573242187,0.3183992385864258
0.3709602355957031,0.2957210540771484
0.3709602355957031,0.2957210540771484
0.3899356842041016,0.3133689880371094
0.3899356842041016,0.3133689880371094
0.3691463470458984,0.3090105056762695
0.3691463470458984,0.3090105056762695
0.3762891769409180,0.2950698852539063
0.3762891769409180,0.2950698852539063
0.3783393859863281,0.3073854446411133
0.3783393859863281,0.3073854446411133
0.3613214492797852,0.2796100616455078
0.3613214492797852,0.2796100616455078
0.3775514602661132,0.2941612243652343
0.3775514602661132,0.2941612243652343
0.3559329986572266,0.2891263961791992
0.3559329986572266,0.2891263961791992
0.3646757125854492,0.2777252197265625
0.3646757125854492,0.2777252197265625
0.3690359115600586,0.2937595367431641
0.3690359115600586,0.2937595367431641
0.3546798706054687,0.2696182250976563
0.3546798706054687,0.2696182250976563
0.3734779357910156,0.2879848480224609
0.3734779357910156,0.2879848480224609
0.3533958435058593,0.2856616973876953
0.3533958435058593,0.2856616973876953
0.3639627456665039,0.2763690948486328
0.3639627456665039,0.2763690948486328
0.3697511672973633,0.2947002410888672
0.3697511672973633,0.2947002410888672
0.3560073852539062,0.2716804504394531
0.3560073852539062,0.2716804504394531
0.3762376785278320,0.2916847229003906
0.3762376785278320,0.2916847229003906
0.3566339492797851,0.2904287338256836
0.3566339492797851,0.2904287338256836
0.3682348251342774,0.2824447631835937
0.3682348251342774,0.2824447631835937
0.3743007659912109,0.3018619537353516
0.3743007659912109,0.3018619537353516
0.3614547729492187,0.2795722961425781
0.3614547729492187,0.2795722961425781
0.3820632934570312,0.3004852294921875
0.3820632934570312,0.3004852294921875
0.3623645782470703,0.2992835998535156
0.3623645782470703,0.2992835998535156
0.3741239547729492,0.2912801742553711
0.3741239547729492,0.2912801742553711
0.3796297073364258,0.3098922729492187
0.3796297073364258,0.3098922729492187
0.3663906097412109,0.2866899490356445
0.3663906097412109,0.2866899490356445
0.3855731964111328,0.3062759399414062
0.3855731964111328,0.3062759399414062
0.3651248931884766,0.3029319763183594
0.3651248931884766,0.3029319763183594
0.3764305114746094,0.2942842483520507
0.3764305114746094,0.2942842483520507
0.3803461074829101,0.3109571456909180
0.3803461074829101,0.3109571456909180
0.3672203063964843,0.2873754501342773
0.3672203063964843,0.2873754501342773
0.3857208251953125,0.3063302993774414
0.3857208251953125,0.3063302993774414
0.3649669647216797,0.3025857925415039
0.3649669647216797,0.3025857925415039
0.3767486572265625,0.2944238662719726
0.3618015289306640,0.2944238662719726
0.3805686950683594,0.3114858627319336
0.3805686950683594,0.3114858627319336
0.3680986404418945,0.2884757995605469
0.3680986404418945,0.2884757995605469
0.3870048522949219,0.3082271575927734
0.3870048522949219,0.3082271575927734
0.3664621353149414,0.3049467086791992
0.3664621353149414,0.3049467086791992
0.3790351867675781,0.2976150512695312
0.3790351867675781,0.2976150512695312
0.3828237533569336,0.3149791717529297
0.3828237533569336,0.3149791717529297
0.3706048965454101,0.2921516418457031
0.3706048965454101,0.2921516418457031
0.3890533447265625,0.3109537124633789
0.3890533447265625,0.3109537124633789
0.3663356781005859,0.3037925720214844
0.3663356781005859,0.3037925720214844
0.3760002136230469,0.2913225173950195
0.3760002136230469,0.2913225173950195
0.3755630493164062,0.3026424407958984
0.3755630493164062,0.3026424407958984
0.3600122451782227,0.2750324249267578
0.3600122451782227,0.2750324249267578
0.3762296676635742,0.2911428451538086
0.3762296676635742,0.2911428451538086
0.3529249191284179,0.2838134765625000
0.3529249191284179,0.2838134765625000
0.3649389266967774,0.2745592117309570
0.3649389266967774,0.2745592117309570
0.3665925979614258,0.2897197723388672
0.3665925979614258,0.2897197723388672
0.3540681838989257,0.2660688400268554
0.3540681838989257,0.2660688400268554
0.3723432540893555,0.2857606887817383
0.3723432540893555,0.2857606887817383
0.3509130477905273,0.2808425903320312
0.3509130477905273,0.2808425903320312
0.3649360656738281,0.2741781234741211
0.3649360656738281,0.2741781234741211
0.3674280166625977,0.2908973693847656
0.3674280166625977,0.2908973693847656
0.3561498641967774,0.2689647674560547
0.3561498641967774,0.2689647674560547
0.3752431869506836,0.2899652481079101
0.3752431869506836,0.2899652481079101
0.3544836044311523,0.2862802505493164
0.3544836044311523,0.2862802505493164
0.3696390151977539,0.2809226989746094
0.3696390151977539,0.2809226989746094
0.3723810195922851,0.2985076904296875
0.3723810195922851,0.2985076904296875
0.3618295669555664,0.2775026321411133
0.3618295669555664,0.2775026321411133
0.3811603546142578,0.2991880416870117
0.3811603546142578,0.2991880416870117
0.3602079391479492,0.2949537277221679
0.3602079391479492,0.2949537277221679
0.3757587432861328,0.2895601272583008
0.3757587432861328,0.2895601272583008
0.3775697708129883,0.3061128616333008
0.3775697708129883,0.3061128616333008
0.3664003372192383,0.2838300704956054
0.3664003372192383,0.2838300704956054
0.3846525192260742,0.3039350509643555
0.3846525192260742,0.3039350509643555
0.3624383926391602,0.2979784011840820
0.3624383926391602,0.2979784011840820
0.3776189804077149,0.2913225173950195
0.3776189804077149,0.2913225173950195
0.3780595779418945,0.3066101074218750
0.3780595779418945,0.3066101074218750
0.3665136337280273,0.2838483810424804
0.3665136337280273,0.2838483810424804
0.3843572616577148,0.3036512374877929
0.3843572616577148,0.3036512374877929
0.3623079299926757,0.2977672576904297
0.3623079299926757,0.2977672576904297
0.3779651641845703,0.2918277740478515
0.3779651641845703,0.2918277740478515
0.3784652709960937,0.3073791503906250
0.3784652709960937,0.3073791503906250
0.3677215576171875,0.2854534149169922
0.3677215576171875,0.2854534149169922
0.3860069274902344,0.3061660766601562
0.3860069274902344,0.3061660766601562
0.3639415740966797,0.3005218505859375
0.3639415740966797,0.3005218505859375
0.3804571151733399,0.2952083587646484
0.3804571151733399,0.2952083587646484
0.3808404922485352,0.3111150741577148
0.3808404922485352,0.3111150741577148
0.3705797195434570,0.2894325256347656
0.3705797195434570,0.2894325256347656
0.3882110595703125,0.3091781616210937
0.3882110595703125,0.3091781616210937
0.3643329620361328,0.2999971389770508
0.3643329620361328,0.2999971389770508
0.3778570175170898,0.2895950317382812
0.3778570175170898,0.2895950317382812
0.3738922119140625,0.2993288040161133
0.3738922119140625,0.2993288040161133
0.3600883483886719,0.2725193023681641
0.3600883483886719,0.2725193023681641
0.3751253128051757,0.2889238357543945
0.3597158432006836,0.2889238357543945
0.3503751754760742,0.2791288375854492
0.3503751754760742,0.2791288375854492
0.3658304214477539,0.2716472625732422
0.3658304214477539,0.2716472625732422
0.3640605926513672,0.2850414276123047
0.3640605926513672,0.2850414276123047
0.3531909942626953,0.2621738433837891
0.3531909942626953,0.2621738433837891
0.3706752777099609,0.2824356079101563
0.3706752777099609,0.2824356079101563
0.3478883743286132,0.2753431320190430
0.3478883743286132,0.2753431320190430
0.3653835296630859,0.2705549240112304
0.3653835296630859,0.2705549240112304
0.3645126342773438,0.2855489730834961
0.3645126342773438,0.2855489730834961
0.3549436569213867,0.2644409179687500
0.3549436569213867,0.2644409179687500
0.3731895446777344,0.2860141754150390
0.3731895446777344,0.2860141754150390
0.3511871337890625,0.2801250457763672
0.3511871337890625,0.2801250457763672
0.3696687698364258,0.2767175674438476
0.3696687698364258,0.2767175674438476
0.3692401885986328,0.2927124023437500
0.3692401885986328,0.2927124023437500
0.3605049133300781,0.2724369049072266
0.3605049133300781,0.2724369049072266
0.3789602279663086,0.2948616027832031
0.3789602279663086,0.2948616027832031
0.3569555282592773,0.2888454437255859
0.3569555282592773,0.2888454437255859
0.3757570266723633,0.2855987548828125
0.3757570266723633,0.2855987548828125
0.3745519638061524,0.3005287170410156
0.3745519638061524,0.3005287170410156
0.3652404785156250,0.2793405532836914
0.3652404785156250,0.2793405532836914
0.3828987121582031,0.3002700805664062
0.3828987121582031,0.3002700805664062
0.3599441528320312,0.2927158355712891
0.3599441528320312,0.2927158355712891
0.3777975082397461,0.2880832672119141
0.3777975082397461,0.2880832672119141
0.3754062652587891,0.3017515182495117
0.3754062652587891,0.3017515182495117
0.3658258438110352,0.2795013427734375
0.3658258438110352,0.2795013427734375
0.3830120086669922,0.3004926681518554
0.3830120086669922,0.3004926681518554
0.3596900939941406,0.2924457550048828
0.3596900939941406,0.2924457550048828
0.3783124923706054,0.2887058258056641
0.3783124923706054,0.2887058258056641
0.3759801864624023,0.3024272918701172
0.3759801864624023,0.3024272918701172
0.3670137405395508,0.2809965133666992
0.3670137405395508,0.2809965133666992
0.3844854354858399,0.3026550292968750
0.3844854354858399,0.3026550292968750
0.3616310119628906,0.2953222274780273
0.3616310119628906,0.2953222274780273
0.3806442260742187,0.2922180175781250
0.3806442260742187,0.2922180175781250
0.3784206390380859,0.3062507629394531
0.3784206390380859,0.3062507629394531
0.3699857711791992,0.2850734710693359
0.3699857711791992,0.2850734710693359
0.3874471664428711,0.3069906234741211
0.3874471664428711,0.3069906234741211
0.3636314392089844,0.2974079132080078
0.3636314392089844,0.2974079132080078
0.3804519653320312,0.2904825210571289
0.3804519653320312,0.2904825210571289
0.3741634368896484,0.2986135482788086
0.3741634368896484,0.2986135482788086
0.3619039535522461,0.2715093612670899
0.3619039535522461,0.2715093612670899
0.3756305694580078,0.2887756347656250
0.3756305694580078,0.2887756347656250
0.3500770568847656,0.2764366149902344
0.3500770568847656,0.2764366149902344
0.3671876907348633,0.2708925247192382
0.3671876907348633,0.2708925247192382
0.3627960205078125,0.2822010040283203
0.3627960205078125,0.2822010040283203
0.3536144256591797,0.2593334197998047
0.3536144256591797,0.2593334197998047
0.3699342727661133,0.2804826736450195
0.3699342727661133,0.2804826736450195
0.3466981887817382,0.2712335586547852
0.3466981887817382,0.2712335586547852
0.3659677505493164,0.2688182830810547
0.3659677505493164,0.2688182830810547
0.3626810073852539,0.2820779800415039
0.3713092803955078,0.2820779800415039
0.3554180145263672,0.2799837112426758
0.3554180145263672,0.2799837112426758
0.3501686096191406,0.2683444976806640
0.3499002456665039,0.2683444976806640
0.3713933944702149,0.2884901046752930
0.3713933944702149,0.2884901046752930
0.3554540634155273,0.2691844940185547
0.3554540634155273,0.2691844940185547
0.3771314620971680,0.2829030990600586
0.3771314620971680,0.2829030990600586
0.3609580993652344,0.2882274627685547
0.3609580993652344,0.2882274627685547
0.3677415847778320,0.2774213790893554
0.3677415847778320,0.2774213790893554
0.3775205612182617,0.2975990295410156
0.3775205612182617,0.2975990295410156
0.3615697860717773,0.2778636932373047
0.3615697860717773,0.2778636932373047
0.3827499389648437,0.2914112091064453
0.3827499389648437,0.2914112091064453
0.3657880783081054,0.2951311111450195
0.3657880783081054,0.2951311111450195
0.3719873428344727,0.2831251144409180
0.3719873428344727,0.2831251144409180
0.3804496765136718,0.3016536712646484
0.3804496765136718,0.3016536712646484
0.3640090942382813,0.2804094314575195
0.3640090942382813,0.2804094314575195
0.3839509963989258,0.2931478500366211
0.3839509963989258,0.2931478500366211
0.3662996292114258,0.2955705642700195
0.3662996292114258,0.2955705642700195
0.3722991943359375,0.2834186553955078
0.3722991943359375,0.2834186553955078
0.3804176330566406,0.3015632629394531
0.3804176330566406,0.3015632629394531
0.3645818710327148,0.2805353164672851
0.3645818710327148,0.2805353164672851
0.3660850524902344,0.2942047119140625
0.3678869247436523,0.2942047119140625
0.3671419143676758,0.2968305587768554
0.3671419143676758,0.2968305587768554
0.3738481521606445,0.2856164932250976
0.3738481521606445,0.2856164932250976
0.3822595596313477,0.3044128417968750
0.3822595596313477,0.3044128417968750
0.3670824050903320,0.2837167739868164
0.3670824050903320,0.2837167739868164
0.3872154235839844,0.2984035491943359
0.3872154235839844,0.2984035491943359
0.3698696136474609,0.3011541366577148
0.3698696136474609,0.3011541366577148
0.3771223068237304,0.2902942657470703
0.3771223068237304,0.2902942657470703
0.3853334426879882,0.3086368560791016
0.3853334426879882,0.3086368560791016
0.3694662094116211,0.2860525131225586
0.3694662094116211,0.2860525131225586
0.3867988586425781,0.2969449996948242
0.3867988586425781,0.2969449996948242
0.3654624938964844,0.2932926177978515
0.3654624938964844,0.2932926177978515
0.3689649581909180,0.2766729354858398
0.3689649581909180,0.2766729354858398
0.3733657836914062,0.2899612426757812
0.3733657836914062,0.2899612426757812
0.3558265686035156,0.2650560379028320
0.3558265686035156,0.2650560379028320
0.3733491897583008,0.2775627136230469
0.3733491897583008,0.2775627136230469
0.3541391372680664,0.2769716262817383
0.3541391372680664,0.2769716262817383
0.3608161926269531,0.2649021148681641
0.3608161926269531,0.2649021148681641
0.3677942276000977,0.2820756912231445
0.3677942276000977,0.2820756912231445
0.3527875900268554,0.2603364944458008
0.3527875900268554,0.2603364944458008
0.3721630096435547,0.2760881423950195
0.3721630096435547,0.2760881423950195
0.3543073654174805,0.2772285461425781
0.3543073654174805,0.2772285461425781
0.3624727249145508,0.2670581817626953
0.3624727249145508,0.2670581817626953
0.3706140518188477,0.2861412048339844
0.3706140518188477,0.2861412048339844
0.3560319900512695,0.2651378631591797
0.3560319900512695,0.2651378631591797
0.3767206192016602,0.2825809478759765
0.3767206192016602,0.2825809478759765
0.3591733932495117,0.2847627639770507
0.3591733932495117,0.2847627639770507
0.3680717468261719,0.2751892089843750
0.3680717468261719,0.2751892089843750
0.3766771316528320,0.2950132369995117
0.3766771316528320,0.2950132369995117
0.3622741699218750,0.2741157531738281
0.3622741699218750,0.2741157531738281
0.3828506469726562,0.2918266296386718
0.3828506469726562,0.2918266296386718
0.3648897171020508,0.2929607391357422
0.3648897171020508,0.2929607391357422
0.3735448837280274,0.2826673507690430
0.3735448837280274,0.2826673507690430
0.3810224533081055,0.3011850357055664
0.3810224533081055,0.3011850357055664
0.3660335540771484,0.2787809371948242
0.3674955368041992,0.2955179214477539
0.3667682647705078,0.2952781677246094
0.3667682647705078,0.2952781677246094
0.3749885559082031,0.2842111587524414
0.3749885559082031,0.2842111587524414
0.3817703247070313,0.3021686553955078
0.3817703247070313,0.3021686553955078
0.3665708541870117,0.2792964935302734
0.3665708541870117,0.2792964935302734
0.3862398147583008,0.2964408874511719
0.3862398147583008,0.2964408874511719
0.3670148849487305,0.2958726882934570
0.3670148849487305,0.2958726882934570
0.3759006500244140,0.2854722976684570
0.3759006500244140,0.2854722976684570
0.3826990127563477,0.3036746978759766
0.3826990127563477,0.3036746978759766
0.3680940628051758,0.2811452865600586
0.3680940628051758,0.2811452865600586
0.3880250930786133,0.2990398406982422
0.3880250930786133,0.2990398406982422
0.3690164566040039,0.2987331390380859
0.3690164566040039,0.2987331390380859
0.3783485412597656,0.2890108108520508
0.3783485412597656,0.2890108108520508
0.3852916717529297,0.3074129104614258
0.3852916717529297,0.3074129104614258
0.3710586547851563,0.2850214004516601
0.3710586547851563,0.2850214004516601
0.3910057067871094,0.3035568237304687
0.3910057067871094,0.3035568237304687
0.3714363098144531,0.3021120071411132
0.3714363098144531,0.3021120071411132
0.3797544479370117,0.2897495269775390
0.3797544479370117,0.2897495269775390
0.3830892562866211,0.3032335281372070
0.3830892562866211,0.3032335281372070
0.3650705337524414,0.2747623443603516
0.3650705337524414,0.2747623443603516
0.3812255859375000,0.2881439208984375
0.3812255859375000,0.2881439208984375
0.3586875915527344,0.2824316024780273
0.3586875915527344,0.2824316024780273
0.3662881851196289,0.2695140838623047
0.3662881851196289,0.2695140838623047
0.3706758499145508,0.2854969024658203
0.3706758499145508,0.2854969024658203
0.3554986953735351,0.2607879638671875
0.3554986953735351,0.2607879638671875
0.3748008728027344,0.2786716461181640
0.3748008728027344,0.2786716461181640
0.3546106338500977,0.2765556335449219
0.3546106338500977,0.2765556335449219
0.3646980285644531,0.2669214248657226
0.3646980285644531,0.2669214248657226
0.3706123352050781,0.2852622985839844
0.3706123352050781,0.2852622985839844
0.3568468093872070,0.2623237609863281
0.3568468093872070,0.2623237609863281
0.3770765304565429,0.2820173263549804
0.3770765304565429,0.2820173263549804
0.3576393127441406,0.2811710357666016
0.3576393127441406,0.2811710357666016
0.3690158843994141,0.2730497360229492
0.3690158843994141,0.2730497360229492
0.3754011154174804,0.2924783706665039
0.3754011154174804,0.2924783706665039
0.3625471115112305,0.2706464767456054
0.3625471115112305,0.2706464767456054
0.3833547592163086,0.2914575576782226
0.3833547592163086,0.2914575576782226
0.3639564514160156,0.2906558990478516
0.3639564514160156,0.2906558990478516
0.3757255554199219,0.2828487396240234
0.3757255554199219,0.2828487396240234
0.3814493179321289,0.3016050338745117
0.3814493179321289,0.3016050338745117
0.3683801651000976,0.2789062500000000
0.3683801651000976,0.2789062500000000
0.3882722854614258,0.2985420227050781
0.3882722854614258,0.2985420227050781
0.3679046630859375,0.2959562301635742
0.3679046630859375,0.2959562301635742
0.3788904190063476,0.2868936538696289
0.3788904190063476,0.2868936538696289
0.3835063934326172,0.3043447494506836
0.3835063934326172,0.3043447494506836
0.3698684692382813,0.2805747985839844
0.3698684692382813,0.2805747985839844
0.3892004013061524,0.2997167587280273
0.3892004013061524,0.2997167587280273
0.3681941986083984,0.2964540481567383
0.3681941986083984,0.2964540481567383
0.3795747756958008,0.2875740051269531
0.3795747756958008,0.2875740051269531
0.3838840484619140,0.3050016403198242
0.3838840484619140,0.3050016403198242
0.3707445144653320,0.2815618515014648
0.3707445144653320,0.2815618515014648
0.3899888992309570,0.3012989044189453
0.3733812332153320,0.3012989044189453
0.3693408966064453,0.2982067108154297
0.3693408966064453,0.2982067108154297
0.3814161300659180,0.2902633666992188
0.3814161300659180,0.2902633666992188
0.3858621597290039,0.3078615188598633
0.3858621597290039,0.3078615188598633
0.3731678009033203,0.2851718902587890
0.3731678009033203,0.2851718902587890
0.3928482055664063,0.3055938720703125
0.3928482055664063,0.3055938720703125
0.3721561431884766,0.3025720596313476
0.3721561431884766,0.3025720596313476
0.3850708007812500,0.2953599929809570
0.3850708007812500,0.2953599929809570
0.3890979766845703,0.3130920410156250
0.3890979766845703,0.3130920410156250
0.3769580841064453,0.2906124114990234
0.3769580841064453,0.2906124114990234
0.3959484100341797,0.3104879379272461
0.3959484100341797,0.3104879379272461
0.3739860534667969,0.3043275833129883
0.3739860534667969,0.3043275833129883
0.3837055206298828,0.2916767120361328
0.3837055206298828,0.2916767120361328
0.3827917098999024,0.3022871017456055
0.3827917098999024,0.3022871017456055
0.3664209365844727,0.2736597061157227
0.3664209365844727,0.2736597061157227
0.3820512771606445,0.2888963699340820
0.3820512771606445,0.2888963699340820
0.3583539962768554,0.2811138153076172
0.3583539962768554,0.2811138153076172
0.3699382781982422,0.2712198257446289
0.3699382781982422,0.2712198257446289
0.3717607498168945,0.2864307403564453
0.3717607498168945,0.2864307403564453
0.3588787078857422,0.2626676559448242
0.3588787078857422,0.2626676559448242
0.3772819519042969,0.2824716567993164
0.3772819519042969,0.2824716567993164
0.3560462951660156,0.2780565261840820
0.3560462951660156,0.2780565261840820
0.3702186584472656,0.2713085174560547
0.3702186584472656,0.2713085174560547
0.3732822418212891,0.2885576248168945
0.3732822418212891,0.2885576248168945
0.3618598937988281,0.2669002532958984
0.3618598937988281,0.2669002532958984
0.3811975479125976,0.2885175704956054
0.3811975479125976,0.2885175704956054
0.3609100341796875,0.2851312637329101
0.3609100341796875,0.2851312637329101
0.3762010574340820,0.2801095962524414
0.3762010574340820,0.2801095962524414
0.3792188644409180,0.2978473663330078
0.3792188644409180,0.2978473663330078
0.3688951492309570,0.2774265289306641
0.3688951492309570,0.2774265289306641
0.3877836227416992,0.2990449905395507
0.3877836227416992,0.2990449905395507
0.3674028396606445,0.2949880599975586
0.3674028396606445,0.2949880599975586
0.3827831268310547,0.2894210815429688
0.3827831268310547,0.2894210815429688
0.3844865798950195,0.3055612564086914
0.3844865798950195,0.3055612564086914
0.3733354568481445,0.2836612701416015
0.3733354568481445,0.2836612701416015
0.3910726547241211,0.3034521102905273
0.3910726547241211,0.3034521102905273
0.3691577911376953,0.2973632812500000
0.3691577911376953,0.2973632812500000
0.3841020584106445,0.2907154083251953
0.3841020584106445,0.2907154083251953
0.3846622467041015,0.3056465148925781
0.3846622467041015,0.3056465148925781
0.3734006881713867,0.2833053588867188
0.3734006881713867,0.2833053588867188
0.3908002853393555,0.3033113479614258
0.3908002853393555,0.3033113479614258
0.3690513610839843,0.2972717285156250
0.3690513610839843,0.2972717285156250
0.3847555160522461,0.2912727355957031
0.3847555160522461,0.2912727355957031
0.3852441787719726,0.3067010879516601
0.3852441787719726,0.3067010879516601
0.3746332168579101,0.2850105285644531
0.3746332168579101,0.2850105285644531
0.3924688339233398,0.3057003021240234
0.3924688339233398,0.3057003021240234
0.3707611083984375,0.3000274658203125
0.3926118850708007,0.3099843978881836
0.3872852325439453,0.2946413040161133
0.3712108612060547,0.2946413040161133
0.3876050949096679,0.3102024078369141
0.3876050949096679,0.3102024078369141
0.3774456024169922,0.2891252517700195
0.3774456024169922,0.2891252517700195
0.3953830718994141,0.3102579116821289
0.3953830718994141,0.3102579116821289
0.3738155364990234,0.3045484542846680
0.3738155364990234,0.3045484542846680
0.3907911300659180,0.2996904373168945
0.3907911300659180,0.2996904373168945
0.3908260345458984,0.3154203414916992
0.3908260345458984,0.3154203414916992
0.3810224533081055,0.2944381713867187
0.3810224533081055,0.2944381713867187
0.3986623764038086,0.3149408340454101
0.3986623764038086,0.3149408340454101
0.3752454757690429,0.3058450698852539
0.3752454757690429,0.3058450698852539
0.3888525009155273,0.2950366973876953
0.3888525009155273,0.2950366973876953
0.3838691711425781,0.3032306671142578
0.3838691711425781,0.3032306671142578
0.3696561813354492,0.2757997512817383
0.3696561813354492,0.2757997512817383
0.3837810516357422,0.2916978836059570
0.3837810516357422,0.2916978836059570
0.3588191986083984,0.2813077926635742
0.3588191986083984,0.2813077926635742
0.3744295120239258,0.2738862991333008
0.3744295120239258,0.2738862991333008
0.3724634170532227,0.2867752075195312
0.3724634170532227,0.2867752075195312
0.3618799209594726,0.2644912719726563
0.3618799209594726,0.2644912719726563
0.3790363311767578,0.2850093841552734
0.3790363311767578,0.2850093841552734
0.3565481185913086,0.2782041549682617
0.3565481185913086,0.2782041549682617
0.3748043060302734,0.2738954544067383
0.3748043060302734,0.2738954544067383
0.3738269805908203,0.2888671875000000
0.3738269805908203,0.2888671875000000
0.3648027420043945,0.2685327529907227
0.3648027420043945,0.2685327529907227
0.3830348968505859,0.2907983779907227
0.3830348968505859,0.2907983779907227
0.3611789703369140,0.2850460052490234
0.3611789703369140,0.2850460052490234
0.3804119110107422,0.2821008682250977
0.3804119110107422,0.2821008682250977
0.3798574447631836,0.2982427597045899
0.3798574447631836,0.2982427597045899
0.3712446212768555,0.2781126022338867
0.3712446212768555,0.2781126022338867
0.3898040771484375,0.3009721755981445
0.3898040771484375,0.3009721755981445
0.3673891067504882,0.2946407318115234
0.3673891067504882,0.2946407318115234
0.3864480972290039,0.2910770416259765
0.3864480972290039,0.2910770416259765
0.3849271774291992,0.3056934356689453
0.3849271774291992,0.3056934356689453
0.3756837844848633,0.2839502334594726
0.3756837844848633,0.2839502334594726
0.3929552078247070,0.3053031921386719
0.3929552078247070,0.3053031921386719
0.3694850921630859,0.2970840454101563
0.3694850921630859,0.2970840454101563
0.3879060745239258,0.2928188323974609
0.3879060745239258,0.2928188323974609
0.3853883743286133,0.3062049865722656
0.3853883743286133,0.3062049865722656
0.3757822036743164,0.2839239120483398
0.3757822036743164,0.2839239120483398
0.3930152893066406,0.3055028915405273
0.3930152893066406,0.3055028915405273
0.3695875167846679,0.2972208023071289
0.3695875167846679,0.2972208023071289
0.3885572433471680,0.2934053421020508
0.3885572433471680,0.2934053421020508
0.3859165191650391,0.3072086334228515
0.3859165191650391,0.3072086334228515
0.3769844055175781,0.2855215072631836
0.3769844055175781,0.2855215072631836
0.3944229125976562,0.3077156066894531
0.3944229125976562,0.3077156066894531
0.3714065551757812,0.2995731353759766
0.3714065551757812,0.2995731353759766
0.3907836914062500,0.2968151092529297
0.3907836914062500,0.2968151092529297
0.3879821777343750,0.3106395721435547
0.3879821777343750,0.3106395721435547
0.3796949386596680,0.2891143798828125
0.3796949386596680,0.2891143798828125
0.3972490310668945,0.3118349075317383
0.3972490310668945,0.3118349075317383
0.3742275238037109,0.3036334991455078
0.3742275238037109,0.3036334991455078
0.3937728881835937,0.3011283874511719
0.3937728881835937,0.3011283874511719
0.3909685134887695,0.3149522781372070
0.3909685134887695,0.3149522781372070
0.3826160430908203,0.2931341171264648
0.3826160430908203,0.2931341171264648
0.3989130020141601,0.3136877059936523
0.3989130020141601,0.3136877059936523
0.3728879928588867,0.2999679565429688
0.3728879928588867,0.2999679565429688
0.3882568359375000,0.2912023544311523
0.3882568359375000,0.2912023544311523
0.3809045791625976,0.2986433029174805
0.3809045791625976,0.2986433029174805
0.3692401885986328,0.2720020294189453
0.3692401885986328,0.2720020294189453
0.3836517333984375,0.2908344268798828
0.3836517333984375,0.2908344268798828
0.3587631225585937,0.2787952423095703
0.3587631225585937,0.2787952423095703
0.3770439147949219,0.2747978210449218
0.3770439147949219,0.2747978210449218
0.3726390838623047,0.2868267059326172
0.3726390838623047,0.2868267059326172
0.3643461227416992,0.2647310256958008
0.3643461227416992,0.2647310256958008
0.3810750961303711,0.2873205184936523
0.3810750961303711,0.2873205184936523
0.3583168029785156,0.2779838562011719
0.3583168029785156,0.2779838562011719
0.3784080505371094,0.2767810821533203
0.3784080505371094,0.2767810821533203
0.3750955581665039,0.2906129837036133
0.3750955581665039,0.2906129837036133
0.3680076599121094,0.2702356338500976
0.3680076599121094,0.2702356338500976
0.3857425689697265,0.2943008422851562
0.3738830566406250,0.2943008422851562
0.3637132644653320,0.2857955932617187
0.3637132644653320,0.2857955932617187
0.3845901489257812,0.2861154556274414
0.3845901489257812,0.2861154556274414
0.3814910888671875,0.3005836486816406
0.3814910888671875,0.3005836486816406
0.3751298904418945,0.2806612014770508
0.3751298904418945,0.2806612014770508
0.3923772811889648,0.3046457290649414
0.3923772811889648,0.3046457290649414
0.3701528549194336,0.2948049545288086
0.3701528549194336,0.2948049545288086
0.3903722763061523,0.2942304611206055
0.3903722763061523,0.2942304611206055
0.3859033584594727,0.3068223953247070
0.3859033584594727,0.3068223953247070
0.3784286499023438,0.2852113723754883
0.3784286499023438,0.2852113723754883
0.3943611145019531,0.3074987411499023
0.3943611145019531,0.3074987411499023
0.3712966918945312,0.2958217620849609
0.3712966918945312,0.2958217620849609
0.3910795211791992,0.2948787689208984
0.3910795211791992,0.2948787689208984
0.3858798980712890,0.3068069458007812
0.3858798980712890,0.3068069458007812
0.3786655426025390,0.2855976104736328
0.3786655426025390,0.2855976104736328
0.3946546554565429,0.3081945419311523
0.3946546554565429,0.3081945419311523
0.3721532821655273,0.2966176986694336
0.3721532821655273,0.2966176986694336
0.3923595428466797,0.2966812133789062
0.3923595428466797,0.2966812133789062
0.3872766494750977,0.3093400955200195
0.3872766494750977,0.3093400955200195
0.3808347702026367,0.2888454437255859
0.3808347702026367,0.2888454437255859
0.3970745086669922,0.3120981216430664
0.3970745086669922,0.3120981216430664
0.3748878479003906,0.3005012512207031
0.3748878479003906,0.3005012512207031
0.3955484390258789,0.3016147613525391
0.3955484390258789,0.3016147613525391
0.3904386520385742,0.3143783569335937
0.3904386520385742,0.3143783569335937
0.3843801498413086,0.2943449020385742
0.3843801498413086,0.2943449020385742
0.4004796981811523,0.3177875518798828
0.4004796981811523,0.3177875518798828
0.3786071777343750,0.3059514999389648
0.3786071777343750,0.3059514999389648
0.3992786407470703,0.3073385238647461
0.3992786407470703,0.3073385238647461
0.3936670303344726,0.3191493988037109
0.3936670303344726,0.3191493988037109
0.3865253448486328,0.2965599060058594
0.3865253448486328,0.2965599060058594
0.3990509033203125,0.3141746520996094
0.3990509033203125,0.3141746520996094
0.3725263595581055,0.2945240020751953
0.3725263595581055,0.2945240020751953
0.3888336181640625,0.2896785736083984
0.3888336181640625,0.2896785736083984
0.3792846679687500,0.2966360092163086
0.3792846679687500,0.2966360092163086
0.3705413818359375,0.2724054336547851
0.3705413818359375,0.2724054336547851
0.3840156555175781,0.2925905227661132
0.3840156555175781,0.2925905227661132
0.3608419418334961,0.2773899078369140
0.3608419418334961,0.2773899078369140
0.3805463790893555,0.2780216217041016
0.3805463790893555,0.2780216217041016
0.3739030838012695,0.2892185211181640
0.3739030838012695,0.2892185211181640
0.3681507110595703,0.2692972183227539
0.3681507110595703,0.2692972183227539
0.3835836410522461,0.2923284530639648
0.3729486465454102,0.2923284530639648
0.3621379852294922,0.2790967941284180
0.3621379852294922,0.2790967941284180
0.3833576202392578,0.2821523666381836
0.3833576202392578,0.2821523666381836
0.3775526046752929,0.2947380065917969
0.3775526046752929,0.2947380065917969
0.3728862762451172,0.2763130187988281
0.3728862762451172,0.2763130187988281
0.3886940002441406,0.3004846572875977
0.3886940002441406,0.3004846572875977
0.3678062438964844,0.2875671386718750
0.3678062438964844,0.2875671386718750
0.3892518997192383,0.2913951873779297
0.3892518997192383,0.2913951873779297
0.3831459045410156,0.3037771224975586
0.3831459045410156,0.3037771224975586
0.3785470962524414,0.2851924896240234
0.3785470962524414,0.2851924896240234
0.3936956405639648,0.3083667755126953
0.3936956405639648,0.3083667755126953
0.3720554351806640,0.2937698364257812
0.3720554351806640,0.2937698364257812
0.3928813934326172,0.2963865280151367
0.3928813934326172,0.2963865280151367
0.3855274200439453,0.3071479797363281
0.3855274200439453,0.3071479797363281
0.3799884796142578,0.2871625900268555
0.3799884796142578,0.2871625900268555
0.3941373825073242,0.3093343734741211
0.3941373825073242,0.3093343734741211
0.3721429824829102,0.2938310623168945
0.3721429824829102,0.2938310623168945
0.3925827026367187,0.2964797973632812
0.3925827026367187,0.2964797973632812
0.3850667953491211,0.3078294754028320
0.3850667953491211,0.3078294754028320
0.3802436828613281,0.2888019561767578
0.3802436828613281,0.2888019561767578
0.3953584671020507,0.3120649337768555
0.3953584671020507,0.3120649337768555
0.3730997085571289,0.2967813491821289
0.3730997085571289,0.2967813491821289
0.3948743820190430,0.3013498306274414
0.3948743820190430,0.3013498306274414
0.3876909255981445,0.3130674362182617
0.3876909255981445,0.3130674362182617
0.3837461471557617,0.2945823669433594
0.3837461471557617,0.2945823669433594
0.3984540939331054,0.3178310394287109
0.3984540939331054,0.3178310394287109
0.3764642715454101,0.3029405593872070
0.3764642715454101,0.3029405593872070
0.3982378005981445,0.3069683074951172
0.3982378005981445,0.3069683074951172
0.3913335800170898,0.3189182281494141
0.3913335800170898,0.3189182281494141
0.3864377975463867,0.3000823974609375
0.3864377975463867,0.3000823974609375
0.4012201309204101,0.3232154846191406
0.4012201309204101,0.3232154846191406
0.3791307449340820,0.3075702667236328
0.3791307449340820,0.3075702667236328
0.4005689620971680,0.3105714797973633
0.4005689620971680,0.3105714797973633
0.3912609100341797,0.3191717147827148
0.3912609100341797,0.3191717147827148
0.3839979171752930,0.2964649200439453
0.3839979171752930,0.2964649200439453
0.3956050872802734,0.3143663406372070
0.3956050872802734,0.3143663406372070
0.3707284927368164,0.2941394805908203
0.3707284927368164,0.2941394805908203
0.3899053573608398,0.2944032669067383
0.3899053573608398,0.2944032669067383
0.3802688598632812,0.3030132293701172
0.3802688598632812,0.3030132293701172
0.3747779846191406,0.2826301574707031
0.3747779846191406,0.2826301574707031
0.3886699676513672,0.3037485122680664
0.3886699676513672,0.3037485122680664
0.3852172851562500,0.3031694412231445
0.3852172851562500,0.3031694412231445
0.3852172851562500,0.3032403945922851
0.3712520599365234,0.2802160263061523
0.3813697814941406,0.2802160263061523
0.3917432785034179,0.2997716903686523
0.3917432785034179,0.2997716903686523
0.3717092514038086,0.2983520507812500
0.3717092514038086,0.2983520507812500
0.3832735061645507,0.2900035858154297
0.3832735061645507,0.2900035858154297
0.3894624710083008,0.3095100402832031
0.3894624710083008,0.3095100402832031
0.3766954421997070,0.2874858856201172
0.3766954421997070,0.2874858856201172
0.3979036331176758,0.3085618972778320
0.3979036331176758,0.3085618972778320
0.3781808853149414,0.3076063156127929
0.3781808853149414,0.3076063156127929
0.3909622192382812,0.3006677627563477
0.3909622192382812,0.3006677627563477
0.3970979690551757,0.3204488754272461
0.3970979690551757,0.3204488754272461
0.3847469329833984,0.2984601974487305
0.3847469329833984,0.2984601974487305
0.4058229446411133,0.3197530746459961
0.4058229446411133,0.3197530746459961
0.3856389999389648,0.3181720733642578
0.3856389999389648,0.3181720733642578
0.3990840911865234,0.3110618591308594
0.3990840911865234,0.3110618591308594
0.4031993865966797,0.3291566848754883
0.4031993865966797,0.3291566848754883
0.3911624908447265,0.3061775207519531
0.3911624908447265,0.3061775207519531
0.4110443115234375,0.3270744323730468
0.4110443115234375,0.3270744323730468
0.3896083831787109,0.3231645584106445
0.3896083831787109,0.3231645584106445
0.4030643463134765,0.3158729553222656
0.4030643463134765,0.3158729553222656
0.4062332153320312,0.3332204818725586
0.4062332153320312,0.3332204818725586
0.3939949035644531,0.3100444793701172
0.3939949035644531,0.3100444793701172
0.4136157989501953,0.3306032180786133
0.4136157989501953,0.3306032180786133
0.3921564102172851,0.3266647338867187
0.3921564102172851,0.3266647338867187
0.4059825897216797,0.3194583892822265
0.4059825897216797,0.3194583892822265
0.4093013763427734,0.3376682281494141
0.4093013763427734,0.3376682281494141
0.3972187042236328,0.3146392822265625
0.3972187042236328,0.3146392822265625
0.4173299789428711,0.3363464355468750
0.4173299789428711,0.3363464355468750
0.3954626083374023,0.3326557159423828
0.3954626083374023,0.3326557159423828
0.4107364654541015,0.3270160675048828
0.4107364654541015,0.3270160675048828
0.4140254974365234,0.3453008651733399
0.4140254974365234,0.3453008651733399
0.4027490615844727,0.3234249114990234
0.4027490615844727,0.3234249114990234
0.4224449157714844,0.3454273223876953
0.4224449157714844,0.3454273223876953
0.4019411087036133,0.3424335479736328
0.4019411087036133,0.3424335479736328
0.4159629821777344,0.3347820281982422
0.4159629821777344,0.3347820281982422
0.4169889450073242,0.3477790832519531
0.4169889450073242,0.3477790832519531
0.4010936737060547,0.3192340850830078
0.4010936737060547,0.3192340850830078
0.4147590637207031,0.3317985534667969
0.4147590637207031,0.3317985534667969
0.3908540725708008,0.3212768554687500
0.3908540725708008,0.3212768554687500
0.4003074645996094,0.3109514236450195
0.4003074645996094,0.3109514236450195
0.3987556457519531,0.3189754486083984
0.3987556457519531,0.3189754486083984
0.3894201278686523,0.3017978668212891
0.3894201278686523,0.3017978668212891
0.4010227203369141,0.3138719558715820
0.4010227203369141,0.3138719558715820
0.3864028930664062,0.3097766876220703
0.3864028930664062,0.3097766876220703
0.3958734512329101,0.3053049087524414
0.3958734512329101,0.3053049087524414
0.3971803665161133,0.3171518325805664
0.3971803665161133,0.3171518325805664
0.3890247344970703,0.3008737564086914
0.3890247344970703,0.3008737564086914
0.4057313919067383,0.3190670013427734
0.4057313919067383,0.3190670013427734
0.3881813049316406,0.3161762237548828
0.3881813049316406,0.3161762237548828
0.4023010253906250,0.3137695312500000
0.4023010253906250,0.3137695312500000
0.4052364349365234,0.3296287536621094
0.4052364349365234,0.3296287536621094
0.3975460052490234,0.3141626358032226
0.3975460052490234,0.3141626358032226
0.4146852493286133,0.3342041015625000
0.4146852493286133,0.3342041015625000
0.3983219146728516,0.3334842681884765
0.3983219146728516,0.3334842681884765
0.4136289596557617,0.3305631637573242
0.4136289596557617,0.3305631637573242
0.4163990020751953,0.3473573684692383
0.4163990020751953,0.3473573684692383
0.4074331283569336,0.3296459197998047
0.4074331283569336,0.3296459197998047
0.4258832931518555,0.3511745452880859
0.4258832931518555,0.3511745452880859
0.4066932678222656,0.3475885391235352
0.4066932678222656,0.3475885391235352
0.4224878311157226,0.3432735443115234
0.4224878311157226,0.3432735443115234
0.4234977722167969,0.3592695236206054
0.4234977722167969,0.3592695236206054
0.4143630981445313,0.3412279129028320
0.4202201843261719,0.3412279129028320
0.4318536758422851,0.3603412628173828
0.4318536758422851,0.3603412628173828
0.4121761322021484,0.3560617446899414
0.4121761322021484,0.3560617446899414
0.4272823333740234,0.3508214950561523
0.4272823333740234,0.3508214950561523
0.4283357620239258,0.3673336029052734
0.4283357620239258,0.3673336029052734
0.4188640594482422,0.3477350234985351
0.4188640594482422,0.3477350234985351
0.4362104415893555,0.3674938201904297
0.4362104415893555,0.3674938201904297
0.4159824371337891,0.3631502151489258
0.4159824371337891,0.3631502151489258
0.4321363449096680,0.3597295761108398
0.4321363449096680,0.3597295761108398
0.4326616287231445,0.3744049072265625
0.4326616287231445,0.3744049072265625
0.4238079071044922,0.3561149597167969
0.4238079071044922,0.3561149597167969
0.4404733657836914,0.3754652023315430
0.4404733657836914,0.3754652023315430
0.4214830398559570,0.3728233337402344
0.4214830398559570,0.3728233337402344
0.4376552581787109,0.3688156127929688
0.4376552581787109,0.3688156127929688
0.4383396148681640,0.3840814590454101
0.4383396148681640,0.3840814590454101
0.4294303894042968,0.3664243698120117
0.4294303894042968,0.3664243698120117
0.4463315963745117,0.3863353729248047
0.4463315963745117,0.3863353729248047
0.4260509490966797,0.3781093597412109
0.4260509490966797,0.3781093597412109
0.4379837036132813,0.3665668487548828
0.4379837036132813,0.3665668487548828
0.4302709579467773,0.3670452117919922
0.4302709579467773,0.3670452117919922
0.4142601013183594,0.3374668121337890
0.4142601013183594,0.3374668121337890
0.4231687545776367,0.3447441101074218
0.4231687545776367,0.3447441101074218
0.3992408752441406,0.3321058273315430
0.3992408752441406,0.3321058273315430
0.4099685668945313,0.3229522705078125
0.4099685668945313,0.3229522705078125
0.4075132369995117,0.3327867507934570
0.4075132369995117,0.3327867507934570
0.3983842849731445,0.3123670578002929
0.3983842849731445,0.3123670578002929
0.4122917175292969,0.3288007736206054
0.4122917175292969,0.3288007736206054
0.3927406311035156,0.3220659255981445
0.3927406311035156,0.3220659255981445
0.4082685470581054,0.3203332901000976
0.4082685470581054,0.3203332901000976
0.4074022293090820,0.3321653366088867
0.4074022293090820,0.3321653366088867
0.4007108688354492,0.3157464981079102
0.4007108688354492,0.3157464981079102
0.4158325195312500,0.3353811264038086
0.4158325195312500,0.3353811264038086
0.3987648010253906,0.3329704284667969
0.3987648010253906,0.3329704284667969
0.4150932312011719,0.3316154479980469
0.4150932312011719,0.3316154479980469
0.4174753189086914,0.3466529846191406
0.4174753189086914,0.3466529846191406
0.4105276107788086,0.3321498870849609
0.4105276107788086,0.3321498870849609
0.4260955810546875,0.3521993637084961
0.4260955810546875,0.3521993637084961
0.4110700607299805,0.3492204666137695
0.4110700607299805,0.3492204666137695
0.4251262664794922,0.3477670669555664
0.4251262664794922,0.3477670669555664
0.4252933502197265,0.3596185684204101
0.4252933502197265,0.3596185684204101
0.4186477661132812,0.3454462051391601
0.4186477661132812,0.3454462051391601
0.4320659637451172,0.3602331161499023
0.4320659637451172,0.3602331161499023
0.4160305023193359,0.3559696197509766
0.4160305023193359,0.3559696197509766
0.4279146194458008,0.3521284103393554
0.4279146194458008,0.3521284103393554
0.4282482147216797,0.3642168045043945
0.4282482147216797,0.3642168045043945
0.4213520050048828,0.3485446929931640
0.4213520050048828,0.3485446929931640
0.4348148345947265,0.3642997741699219
0.4348148345947265,0.3642997741699219
0.4172578811645508,0.3602931976318359
0.4172578811645508,0.3602931976318359
0.4334066390991211,0.3592500686645508
0.4334066390991211,0.3592500686645508
0.4328109741210938,0.3722494125366211
0.4328109741210938,0.3722494125366211
0.4263731002807617,0.3559261322021484
0.4299013137817383,0.3559261322021484
0.4423032760620117,0.3769226074218750
0.4423032760620117,0.3769226074218750
0.4249191284179688,0.3742687225341797
0.4249191284179688,0.3742687225341797
0.4425676345825195,0.3746549606323242
0.4425676345825195,0.3746549606323242
0.4411325454711914,0.3874294281005859
0.4411325454711914,0.3874294281005859
0.4374624252319336,0.3761644363403320
0.4374624252319336,0.3761644363403320
0.4506780624389648,0.3949092864990234
0.4506780624389648,0.3949092864990234
0.4371076583862304,0.3908781051635742
0.4371076583862304,0.3908781051635742
0.4515707015991210,0.3922233581542969
0.4515707015991210,0.3922233581542969
0.4498844146728516,0.4021768569946289
0.4498844146728516,0.4021768569946289
0.4460895538330078,0.3906291961669922
0.4460895538330078,0.3906291961669922
0.4561552047729492,0.4026849746704101
0.4561552047729492,0.4026849746704101
0.4402479171752929,0.3920019149780273
0.4402479171752929,0.3920019149780273
0.4471469879150390,0.3798179626464844
0.4471469879150390,0.3798179626464844
0.4370315551757812,0.3760889053344726
0.4370315551757812,0.3760889053344726
0.4222286224365234,0.3445266723632812
0.4222286224365234,0.3445266723632812
0.4286727905273438,0.3508152008056640
0.4286727905273438,0.3508152008056640
0.4063837051391602,0.3366725921630859
0.4063837051391602,0.3366725921630859
0.4191118240356445,0.3321298599243164
0.4191118240356445,0.3321298599243164
0.4151281356811523,0.3404233932495117
0.4151281356811523,0.3404233932495117
0.4089431762695312,0.3238368988037109
0.4089431762695312,0.3238368988037109
0.4226835250854492,0.3422945022583008
0.4226835250854492,0.3422945022583008
0.4067916870117188,0.3376127243041992
0.4067916870117188,0.3376127243041992
0.4241804122924804,0.3403461456298828
0.4241804122924804,0.3403461456298828
0.4245220184326172,0.3562065124511719
0.4245220184326172,0.3562065124511719
0.4224168777465820,0.3472108840942383
0.4224168777465820,0.3472108840942383
0.4389844894409179,0.3712852478027344
0.4389844894409179,0.3712852478027344
0.4246862411499023,0.3687028884887695
0.4246862411499023,0.3687028884887695
0.4414466857910156,0.3716978073120117
0.4414466857910156,0.3716978073120117
0.4391201019287109,0.3826887130737305
0.4391201019287109,0.3826887130737305
0.4349933624267578,0.3688802719116211
0.4349933624267578,0.3688802719116211
0.4466960906982422,0.3862432479858398
0.4466960906982422,0.3862432479858398
0.4296089172363281,0.3779960632324219
0.4296089172363281,0.3779960632324219
0.4450189590454102,0.3777952194213867
0.4450189590454102,0.3777952194213867
0.4381822586059570,0.3856161117553711
0.4381822586059570,0.3856161117553711
0.4312419891357422,0.3679355621337890
0.4312419891357422,0.3679355621337890
0.4414466857910156,0.3836151123046875
0.4414466857910156,0.3836151123046875
0.4236528396606445,0.3729887008666992
0.4236528396606445,0.3729887008666992
0.4382400512695312,0.3724691390991211
0.4382400512695312,0.3724691390991211
0.4408493041992188,0.3774667739868164
0.4408493041992188,0.3774667739868164
0.4263645172119140,0.3770044326782226
0.4263645172119140,0.3770044326782226
0.4327760696411133,0.3727472305297851
0.4327760696411133,0.3727472305297851
0.4347547531127929,0.3817045211791992
0.4347547531127929,0.3817045211791992
0.4279792785644531,0.3707015991210937
0.4279792785644531,0.3707015991210937
0.4368370056152344,0.3832889556884765
0.4368370056152344,0.3832889556884765
0.4261367797851562,0.3835023880004882
0.4261367797851562,0.3835023880004882
0.4318199157714844,0.3775165557861328
0.4318199157714844,0.3775165557861328
0.4387533187866211,0.3928556442260742
0.4387533187866211,0.3928556442260742
0.4285634994506836,0.3782300949096680
0.4285634994506836,0.3782300949096680
0.4441120147705078,0.3923549652099609
0.4441120147705078,0.3923549652099609
0.4312425613403320,0.3940710067749023
0.4312425613403320,0.3940710067749023
0.4390611648559570,0.3892393112182617
0.4390611648559570,0.3892393112182617
0.4438150405883789,0.4012859344482422
0.4438150405883789,0.4012859344482422
0.4369806289672851,0.3906091690063476
0.4369806289672851,0.3906091690063476
0.4480779647827148,0.4008007049560547
0.4480779647827148,0.4008007049560547
0.4364009857177734,0.3974767684936523
0.4364009857177734,0.3974767684936523
0.4383190155029297,0.3859371185302734
0.4383190155029297,0.3859371185302734
0.4358848571777343,0.3853059768676758
0.4358848571777343,0.3853059768676758
0.4222143173217773,0.3607852935791016
0.4253213882446289,0.3607852935791016
0.4259588241577149,0.3589284896850586
0.4259588241577149,0.3589284896850586
0.4092121124267578,0.3486230850219726
0.4092121124267578,0.3486230850219726
0.4094770431518555,0.3360237121582031
0.4094770431518555,0.3360237121582031
0.4088562011718750,0.3404193878173828
0.4088562011718750,0.3404193878173828
0.4005283355712890,0.3258922576904297
0.4005283355712890,0.3258922576904297
0.4105373382568359,0.3355007171630859
0.4105373382568359,0.3355007171630859
0.4001432418823242,0.3348421096801757
0.4001432418823242,0.3348421096801757
0.4055339813232422,0.3307548522949219
0.4055339813232422,0.3307548522949219
0.4101694107055664,0.3432981491088867
0.4101694107055664,0.3432981491088867
0.4070428848266601,0.3347385406494141
0.4070428848266601,0.3347385406494141
0.4185213088989257,0.3537935256958007
0.4185213088989257,0.3537935256958007
0.4100795745849609,0.3588615417480469
0.4100795745849609,0.3588615417480469
0.4213811874389649,0.3598783493041992
0.4213811874389649,0.3598783493041992
0.4291431427001953,0.3781620025634765
0.4291431427001953,0.3781620025634765
0.4233707427978515,0.3692516326904297
0.4233707427978515,0.3692516326904297
0.4402273178100586,0.3879787445068359
0.4402273178100586,0.3879787445068359
0.4316722869873047,0.3929140090942383
0.4316722869873047,0.3929140090942383
0.4409660339355468,0.3906366348266602
0.4409660339355468,0.3906366348266602
0.4482971191406250,0.4086307525634765
0.4482971191406250,0.4086307525634765
0.4422643661499023,0.3977039337158203
0.4422643661499023,0.3977039337158203
0.4586534500122070,0.4147430419921875
0.4586534500122070,0.4147430419921875
0.4466051101684570,0.4166267395019531
0.4466051101684570,0.4166267395019531
0.4565008163452148,0.4136037826538086
0.4565008163452148,0.4136037826538086
0.4622182846069336,0.4285949707031250
0.4622182846069336,0.4285949707031250
0.4542995452880859,0.4138956069946289
0.4542995452880859,0.4138956069946289
0.4687362670898437,0.4285606384277343
0.4687362670898437,0.4285606384277343
0.4556465148925781,0.4287237167358398
0.4556465148925781,0.4287237167358398
0.4641769409179687,0.4245363235473633
0.4641769409179687,0.4245363235473633
0.4695842742919922,0.4385730743408203
0.4695842742919922,0.4385730743408203
0.4612764358520507,0.4241237640380859
0.4612764358520507,0.4241237640380859
0.4757526397705078,0.4386297225952148
0.4757526397705078,0.4386297225952148
0.4627624511718750,0.4384443283081055
0.4627624511718750,0.4384443283081055
0.4708843231201172,0.4338335037231445
0.4708843231201172,0.4338335037231445
0.4751008987426757,0.4470863342285156
0.4751008987426757,0.4470863342285156
0.4667804718017578,0.4329860687255859
0.4667804718017578,0.4329860687255859
0.4808143615722656,0.4475549697875976
0.4808143615722656,0.4475549697875976
0.4680330276489257,0.4473289489746093
0.4680330276489257,0.4473289489746093
0.4759403228759765,0.4432102203369140
0.4759403228759765,0.4432102203369140
0.4800848007202148,0.4563377380371094
0.4800848007202148,0.4563377380371094
0.4718439102172851,0.4413923263549804
0.4718439102172851,0.4413923263549804
0.4845891952514648,0.4528043746948242
0.4845891952514648,0.4528043746948242
0.4685194015502929,0.4463247299194336
0.4685194015502929,0.4463247299194336
0.4712236404418945,0.4322868347167969
0.4712236404418945,0.4322868347167969
0.4679798126220703,0.4315464019775391
0.4679798126220703,0.4315464019775391
0.4522705078125000,0.4022529602050781
0.4522705078125000,0.4022529602050781
0.4576017379760742,0.4019599914550781
0.4576017379760742,0.4019599914550781
0.4380849838256836,0.3908128738403320
0.4380849838256836,0.3908128738403320
0.4420269012451172,0.3792760848999023
0.4420269012451172,0.3792760848999023
0.4438230514526367,0.3881155014038086
0.4438230514526367,0.3881155014038086
0.4343221664428711,0.3716543197631836
0.4343221664428711,0.3716543197631836
0.4481283187866211,0.3863096237182617
0.4481283187866211,0.3863096237182617
0.4354305267333984,0.3870374679565430
0.4354305267333984,0.3870374679565430
0.4462623596191406,0.3860080718994141
0.4462623596191406,0.3860080718994141
0.4513366699218750,0.4025465011596679
0.4513366699218750,0.4025465011596679
0.4464574813842773,0.3943359375000000
0.4464574813842773,0.3943359375000000
0.4622457504272461,0.4130184173583984
0.4622457504272461,0.4130184173583984
0.4524850845336914,0.4159194946289063
0.4524850845336914,0.4159194946289063
0.4619350433349609,0.4146034240722656
0.4619350433349609,0.4146034240722656
0.4664354324340820,0.4296237945556641
0.4664354324340820,0.4296237945556641
0.4599380493164062,0.4167795181274414
0.4599380493164062,0.4167795181274414
0.4750905990600586,0.4327199935913086
0.4750905990600586,0.4327199935913086
0.4595941543579101,0.4302434921264648
0.4595941543579101,0.4302434921264648
0.4697381973266601,0.4261562347412109
0.4697381973266601,0.4261562347412109
0.4722930908203125,0.4381193161010742
0.4722930908203125,0.4381193161010742
0.4653190612792968,0.4238462448120117
0.4653190612792968,0.4238462448120117
0.4767436981201172,0.4360565185546875
0.4767436981201172,0.4360565185546875
0.4634611129760742,0.4332704544067383
0.4634611129760742,0.4332704544067383
0.4715114593505859,0.4291751861572266
0.4715114593505859,0.4291751861572266
0.4740440368652343,0.4388648986816406
0.4740440368652343,0.4388648986816406
0.4662408828735352,0.4261905670166016
0.4662408828735352,0.4261905670166016
0.4754716873168945,0.4359209060668945
0.4754716873168945,0.4359209060668945
0.4673812866210937,0.4345687866210937
0.4673812866210937,0.4345687866210937
0.4718152999877929,0.4322387695312500
0.4718152999877929,0.4322387695312500
0.4728086471557617,0.4390914916992187
0.4728086471557617,0.4390914916992187
0.4673160552978515,0.4295843124389648
0.4673160552978515,0.4295843124389648
0.4771762847900390,0.4396694183349609
0.4771762847900390,0.4396694183349609
0.4671695709228516,0.4375247955322266
0.4671695709228516,0.4375247955322266
0.4746437072753906,0.4353223800659179
0.4746437072753906,0.4353223800659179
0.4758241653442383,0.4441967010498047
0.4758241653442383,0.4441967010498047
0.4706296920776367,0.4343072891235352
0.4706296920776367,0.4343072891235352
0.4809442520141601,0.4446607589721679
0.4809442520141601,0.4446607589721679
0.4705970764160156,0.4425069808959961
0.4705970764160156,0.4425069808959961
0.4782062530517578,0.4405546188354492
0.4782062530517578,0.4405546188354492
0.4784139633178711,0.4471652984619141
0.4784139633178711,0.4471652984619141
0.4722908020019531,0.4337305068969726
0.4722908020019531,0.4337305068969726
0.4774389266967773,0.4373697280883789
0.4774389266967773,0.4373697280883789
0.4624534606933594,0.4270803451538086
0.4624534606933594,0.4270803451538086
0.4641260147094726,0.4144552230834961
0.4641260147094726,0.4144552230834961
0.4596027374267578,0.4123289108276367
0.4596027374267578,0.4123289108276367
0.4484355926513672,0.3928876876831054
0.4484355926513672,0.3928876876831054
0.4539155960083008,0.3972627639770508
0.4539155960083008,0.3972627639770508
0.4409196853637695,0.3913650512695312
0.4409196853637695,0.3913650512695312
0.4479017257690430,0.3874483108520508
0.4479017257690430,0.3874483108520508
0.4480499267578125,0.3961315155029297
0.4480499267578125,0.3961315155029297
0.4435483932495117,0.3881664276123047
0.4435483932495117,0.3881664276123047
0.4547687530517578,0.4023393630981445
0.4547687530517578,0.4023393630981445
0.4466634750366211,0.4046081542968750
0.4571210861206054,0.4067401885986328
0.4604295730590820,0.4206018447875977
0.4604295730590820,0.4206018447875977
0.4575696945190429,0.4141159057617188
0.4575696945190429,0.4141159057617188
0.4701524734497070,0.4288461685180664
0.4701524734497070,0.4288461685180664
0.4601675033569336,0.4291917800903320
0.4601675033569336,0.4291917800903320
0.4702760696411132,0.4291946411132813
0.4702760696411132,0.4291946411132813
0.4720567703247070,0.4400384902954101
0.4720567703247070,0.4400384902954101
0.4680593490600586,0.4304025650024414
0.4680593490600586,0.4304025650024414
0.4779155731201172,0.4422231674194336
0.4779155731201172,0.4422231674194336
0.4676822662353515,0.4409763336181641
0.4676822662353515,0.4409763336181641
0.4770177841186523,0.4392711639404297
0.4770177841186523,0.4392711639404297
0.4780666351318359,0.4475967407226563
0.4780666351318359,0.4475967407226563
0.4726781845092773,0.4366928100585937
0.4726781845092773,0.4366928100585937
0.4816406250000000,0.4477186203002930
0.4816406250000000,0.4477186203002930
0.4706027984619141,0.4446613311767578
0.4706027984619141,0.4446613311767578
0.4782417297363281,0.4421871185302734
0.4782417297363281,0.4421871185302734
0.4767110824584961,0.4469942092895507
0.4767110824584961,0.4469942092895507
0.4733116149902343,0.4399600982666015
0.4733116149902343,0.4399600982666015
0.4771402359008789,0.4481042861938476
0.4771402359008789,0.4481042861938476
0.4684261322021484,0.4436405181884766
0.4684261322021484,0.4436405181884766
0.4762928009033203,0.4420967102050781
0.4762928009033203,0.4420967102050781
0.4744491577148438,0.4482976913452149
0.4744491577148438,0.4482976913452149
0.4706731796264648,0.4381479263305664
0.4706731796264648,0.4381479263305664
0.4786708831787109,0.4489173889160156
0.4786708831787109,0.4489173889160156
0.4670757293701172,0.4450738906860351
0.4670757293701172,0.4450738906860351
0.4766229629516601,0.4448490142822266
0.4766229629516601,0.4448490142822266
0.4756542205810547,0.4524038314819336
0.4756542205810547,0.4524038314819336
0.4727514266967773,0.4429962158203125
0.4727514266967773,0.4429962158203125
0.4816062927246094,0.4550205230712890
0.4816062927246094,0.4550205230712890
0.4697959899902344,0.4504978179931640
0.4697959899902344,0.4504978179931640
0.4788167953491211,0.4477506637573242
0.4788167953491211,0.4477506637573242
0.4754722595214844,0.4508331298828125
0.4754722595214844,0.4508331298828125
0.4651342391967773,0.4389020919799805
0.4651342391967773,0.4389020919799805
0.4634840011596679,0.4240430831909179
0.4541576385498047,0.4240430831909179
0.4638570785522461,0.4266820907592773
0.4638570785522461,0.4266820907592773
0.4494724273681641,0.4077157974243164
0.4494724273681641,0.4077157974243164
0.4596050262451172,0.4101156234741211
0.4596050262451172,0.4101156234741211
0.4480047225952148,0.4108251571655273
0.4480047225952148,0.4108251571655273
0.4510448455810547,0.4024372100830078
0.4510448455810547,0.4024372100830078
0.4575548171997070,0.4174896240234375
0.4575548171997070,0.4174896240234375
0.4469844818115234,0.4052564620971680
0.4469844818115234,0.4052564620971680
0.4632545471191406,0.4169523239135742
0.4632545471191406,0.4169523239135742
0.4543212890625000,0.4237398147583007
0.4543212890625000,0.4237398147583007
0.4604461669921875,0.4201875686645508
0.4604461669921875,0.4201875686645508
0.4681955337524414,0.4363677978515625
0.4681955337524414,0.4363677978515625
0.4595535278320312,0.4267913818359375
0.4595535278320312,0.4267913818359375
0.4758270263671875,0.4381250381469726
0.4758270263671875,0.4381250381469726
0.4653110504150391,0.4428565979003906
0.4653110504150391,0.4428565979003906
0.4709386825561523,0.4378967285156250
0.4709386825561523,0.4378967285156250
0.4767906188964843,0.4515306472778320
0.4767906188964843,0.4515306472778320
0.4671140670776367,0.4393993377685547
0.4746574401855468,0.4393993377685547
0.4810958862304687,0.4493906021118164
0.4810958862304687,0.4493906021118164
0.4700517654418945,0.4510854721069336
0.4700517654418945,0.4510854721069336
0.4755432128906250,0.4453645706176758
0.4755432128906250,0.4453645706176758
0.4797466278076172,0.4573144912719727
0.4797466278076172,0.4573144912719727
0.4701364517211914,0.4437944412231445
0.4701364517211914,0.4437944412231445
0.4832513809204101,0.4531631469726562
0.4832513809204101,0.4531631469726562
0.4715011596679687,0.4536535263061523
0.4715011596679687,0.4536535263061523
0.4768707275390625,0.4471023559570312
0.4768707275390625,0.4471023559570312
0.4806810379028320,0.4583484649658203
0.4806810379028320,0.4583484649658203
0.4707481384277343,0.4442390441894531
0.4707481384277343,0.4442390441894531
0.4840141296386719,0.4541072845458984
0.4840141296386719,0.4541072845458984
0.4719383239746093,0.4542846679687500
0.4719383239746093,0.4542846679687500
0.4778137207031250,0.4479022979736328
0.4778137207031250,0.4479022979736328
0.4815187454223633,0.4596611022949219
0.4815187454223633,0.4596611022949219
0.4716945648193359,0.4454246520996094
0.4716945648193359,0.4454246520996094
0.4849468231201172,0.4555292129516602
0.4849468231201172,0.4555292129516602
0.4727279663085937,0.4557695388793945
0.4727279663085937,0.4557695388793945
0.4788465499877930,0.4495708465576172
0.4788465499877930,0.4495708465576172
0.4824983596801757,0.4615842819213867
0.4824983596801757,0.4615842819213867
0.4726066589355469,0.4468608856201172
0.4726066589355469,0.4468608856201172
0.4853359222412109,0.4557712554931641
0.4853359222412109,0.4557712554931641
0.4707275390625000,0.4514848709106445
0.4707275390625000,0.4514848709106445
0.4729780197143554,0.4376512527465820
0.4729780197143554,0.4376512527465820
0.4706932067871094,0.4385393142700195
0.4706932067871094,0.4385393142700195
0.4543212890625000,0.4112926483154297
0.4543212890625000,0.4112926483154297
0.4607036590576172,0.4097265243530273
0.4607036590576172,0.4097265243530273
0.4421052932739258,0.3995435714721680
0.4421052932739258,0.3995435714721680
0.4445709228515625,0.3869401931762695
0.4445709228515625,0.3869401931762695
0.4457427978515625,0.3951410293579101
0.4457427978515625,0.3951410293579101
0.4354505538940430,0.3793745040893555
0.4354505538940430,0.3793745040893555
0.4489419937133789,0.3911161422729492
0.4489419937133789,0.3911161422729492
0.4370344161987305,0.3926416397094726
0.4370344161987305,0.3926416397094726
0.4454458236694336,0.3902515411376953
0.4454458236694336,0.3902515411376953
0.4513263702392578,0.4065513610839844
0.4513263702392578,0.4065513610839844
0.4449096679687500,0.3972221374511719
0.4449096679687500,0.3972221374511719
0.4611751556396484,0.4143939971923828
0.4611751556396484,0.4143939971923828
0.4514162063598632,0.4191032409667969
0.4514162063598632,0.4191032409667969
0.4609365463256836,0.4183290481567383
0.4609365463256836,0.4183290481567383
0.4666042327880859,0.4340612411499024
0.4666042327880859,0.4340612411499024
0.4593091964721679,0.4221490859985351
0.4593091964721679,0.4221490859985351
0.4738683700561523,0.4363832473754883
0.4738683700561523,0.4363832473754883
0.4617341995239257,0.4370721817016601
0.4617341995239257,0.4370721817016601
0.4696071624755859,0.4328464508056640
0.4696071624755859,0.4328464508056640
0.4733076095581055,0.4453857421875000
0.4733076095581055,0.4453857421875000
0.4644527435302734,0.4308837890625000
0.4644527435302734,0.4308837890625000
0.4778635025024414,0.4433601379394531
0.4778635025024414,0.4433601379394531
0.4645351409912109,0.4422414779663086
0.4645351409912109,0.4422414779663086
0.4720453262329101,0.4369874954223633
0.4720453262329101,0.4369874954223633
0.4749813079833984,0.4486667633056641
0.4749813079833984,0.4486667633056641
0.4659009933471679,0.4334003448486328
0.4659009933471679,0.4334003448486328
0.4788471221923828,0.4457050323486328
0.4788471221923828,0.4457050323486328
0.4654535293579101,0.4441795349121094
0.4654535293579101,0.4441795349121094
0.4730690002441406,0.4390577316284179
0.4633289337158203,0.4390577316284179
0.4759065628051757,0.4507862091064453
0.4759065628051757,0.4507862091064453
0.4671661376953125,0.4360702514648437
0.4671661376953125,0.4360702514648437
0.4804687500000000,0.4489179611206054
0.4804687500000000,0.4489179611206054
0.4672691345214843,0.4476642608642578
0.4672691345214843,0.4476642608642578
0.4754333496093750,0.4434654235839844
0.4754333496093750,0.4434654235839844
0.4785112380981445,0.4555074691772460
0.4785112380981445,0.4555074691772460
0.4701536178588867,0.4412057876586914
0.4701536178588867,0.4412057876586914
0.4833618164062500,0.4545827865600586
0.4833618164062500,0.4545827865600586
0.4702943801879882,0.4530899047851562
0.4702943801879882,0.4530899047851562
0.4784236907958984,0.4485494613647461
0.4784236907958984,0.4485494613647461
0.4804355621337890,0.4583553314208984
0.4804355621337890,0.4583553314208984
0.4698766708374023,0.4391521453857422
0.4698766708374023,0.4391521453857422
0.4785781860351562,0.4441303253173828
0.4785781860351562,0.4441303253173828
0.4593647003173828,0.4309370040893555
0.4593647003173828,0.4309370040893555
0.4604759216308594,0.4136707305908203
0.4604759216308594,0.4136707305908203
0.4561351776123047,0.4127632141113281
0.4561351776123047,0.4127632141113281
0.4424394607543945,0.3884948730468750
0.4424394607543945,0.3884948730468750
0.4514516830444336,0.3957109451293945
0.4514516830444336,0.3957109451293945
0.4360599517822266,0.3901794433593750
0.4360599517822266,0.3901794433593750
0.4436050415039062,0.3851119995117188
0.4436050415039062,0.3851119995117188
0.4462709426879883,0.3970928192138672
0.4462709426879883,0.3970928192138672
0.4391693115234375,0.3844802856445312
0.4391693115234375,0.3844802856445312
0.4535596847534180,0.4012973785400391
0.4535596847534180,0.4012973785400391
0.4425024032592773,0.4036920547485351
0.4425024032592773,0.4036920547485351
0.4539087295532226,0.4052186965942383
0.4539087295532226,0.4052186965942383
0.4590625762939453,0.4219779968261719
0.4590625762939453,0.4219779968261719
0.4542182922363281,0.4124679565429688
0.4542182922363281,0.4124679565429688
0.4693153381347656,0.4305347442626953
0.4693153381347656,0.4305347442626953
0.4579135894775390,0.4314102172851562
0.4579135894775390,0.4314102172851562
0.4682235717773438,0.4304557800292969
0.4682235717773438,0.4304557800292969
0.4714210510253906,0.4433132171630859
0.4714210510253906,0.4433132171630859
0.4642478942871093,0.4297204971313476
0.4642478942871093,0.4297204971313476
0.4774017333984375,0.4442985534667969
0.4774017333984375,0.4442985534667969
0.4639263153076172,0.4419307708740234
0.4639263153076172,0.4419307708740234
0.4728744506835937,0.4384157180786133
0.4728744506835937,0.4384157180786133
0.4746139526367187,0.4492761611938477
0.4746139526367187,0.4492761611938477
0.4667947769165039,0.4340011596679688
0.4667947769165039,0.4340011596679688
0.4791566848754882,0.4476396560668945
0.4791566848754882,0.4476396560668945
0.4649465560913086,0.4440656661987304
0.4649465560913086,0.4440656661987304
0.4737911224365234,0.4402118682861328
0.4737911224365234,0.4402118682861328
0.4751340866088867,0.4508634567260742
0.4751340866088867,0.4508634567260742
0.4674110412597656,0.4355855941772461
0.4674110412597656,0.4355855941772461
0.4798810958862305,0.4494483947753906
0.4798810958862305,0.4494483947753906
0.4658449172973633,0.4461313247680664
0.4658449172973633,0.4461313247680664
0.4750917434692383,0.4429241180419922
0.4750917434692383,0.4429241180419922
0.4766057968139648,0.4541925430297851
0.4766057968139648,0.4541925430297851
0.4694549560546875,0.4394926071166992
0.4694549560546875,0.4394926071166992
0.4822837829589843,0.4542852401733398
0.4822837829589843,0.4542852401733398
0.4685182571411133,0.4514402389526367
0.4685182571411133,0.4514402389526367
0.4782857894897461,0.4488962173461914
0.4782857894897461,0.4488962173461914
0.4798027038574219,0.4603923797607422
0.4798027038574219,0.4603923797607422
0.4727422714233398,0.4455390930175781
0.4727422714233398,0.4455390930175781
0.4850784301757812,0.4590820312500000
0.4850784301757812,0.4590820312500000
0.4696271896362305,0.4528913497924805
0.4696271896362305,0.4528913497924805
0.4762453079223632,0.4438024520874023
0.4762453079223632,0.4438024520874023
0.4724390029907226,0.4451751708984375
0.4724390029907226,0.4451751708984375
0.4588668823242187,0.4178604125976562
0.4588668823242187,0.4178604125976562
0.4643800735473633,0.4194042205810547
0.4643800735473633,0.4194042205810547
0.4433761596679687,0.4040399551391601
0.4433761596679687,0.4040399551391601
0.4482261657714844,0.3928401947021484
0.4482261657714844,0.3928401947021484
0.4461656570434570,0.3987195968627930
0.4461656570434570,0.3987195968627930
0.4375585556030273,0.3813011169433594
0.4375585556030273,0.3813011169433594
0.4496978759765625,0.3955135345458984
0.4496978759765625,0.3955135345458984
0.4357915878295898,0.3927778244018554
0.4357915878295898,0.3927778244018554
0.4470474243164063,0.3926811218261719
0.4470474243164063,0.3926811218261719
0.4498495101928711,0.4074857711791992
0.4498495101928711,0.4074857711791992
0.4456026077270508,0.3975317001342774
0.4456026077270508,0.3975317001342774
0.4611030578613281,0.4178695678710938
0.4611030578613281,0.4178695678710938
0.4496406555175781,0.4194803237915039
0.4496406555175781,0.4194803237915039
0.4625885009765625,0.4218641281127929
0.4625885009765625,0.4218641281127929
0.4655038833618164,0.4365062713623047
0.4655038833618164,0.4365062713623047
0.4606578826904297,0.4244750976562500
0.4606578826904297,0.4244750976562500
0.4744714736938476,0.4415296554565429
0.4744714736938476,0.4415296554565429
0.4607923507690430,0.4388992309570313
0.4607923507690430,0.4388992309570313
0.4720006942749023,0.4373376846313476
0.4720006942749023,0.4373376846313476
0.4725540161132812,0.4484601974487304
0.4725540161132812,0.4484601974487304
0.4660377502441406,0.4334415435791015
0.4660377502441406,0.4334415435791015
0.4781970977783203,0.4477844238281250
0.4781970977783203,0.4477844238281250
0.4619768142700195,0.4369863510131836
0.4727033615112304,0.4369863510131836
0.4656600952148438,0.4334215164184570
0.4676582336425781,0.4334215164184570
0.4690618515014648,0.4364645004272461
0.4624425888061523,0.4364645004272461
0.4755878448486328,0.4501573562622070
0.4726844787597656,0.4501573562622070
0.4622468948364258,0.4375505447387695
0.4622468948364258,0.4375505447387695
0.4774177551269531,0.4444971084594727
0.4774177551269531,0.4444971084594727
0.4686378479003906,0.4487051010131836
0.4686378479003906,0.4487051010131836
0.4705438613891602,0.4395046234130859
0.4705438613891602,0.4395046234130859
0.4774103164672852,0.4540643692016602
0.4774103164672852,0.4540643692016602
0.4644161224365234,0.4418781280517578
0.4644161224365234,0.4418781280517578
0.4800550460815429,0.4495885848999023
0.4800550460815429,0.4495885848999023
0.4711847305297852,0.4539510726928710
0.4711847305297852,0.4539510726928710
0.4735038757324219,0.4451436996459961
0.4735038757324219,0.4451436996459961
0.4799612045288086,0.4587060928344726
0.4799612045288086,0.4587060928344726
0.4661602020263672,0.4441703796386718
0.4661602020263672,0.4441703796386718
0.4790044784545898,0.4463201522827148
0.4790044784545898,0.4463201522827148
0.4650112152099609,0.4406330108642578
0.4650112152099609,0.4406330108642578
0.4605325698852539,0.4182460784912109
0.4605325698852539,0.4182460784912109
0.4591140747070312,0.4174467086791992
0.4591140747070312,0.4174467086791992
0.4387865066528320,0.3919773101806641
0.4387865066528320,0.3919773101806641
0.4490816116333008,0.3910074234008789
0.4490816116333008,0.3910074234008789
0.4361835479736328,0.3892616271972656
0.4361835479736328,0.3892616271972656
0.4367895126342773,0.3768877029418945
0.4367895126342773,0.3768877029418945
0.4420526504516601,0.3891569137573242
0.4398559570312500,0.3891569137573242
0.4291528701782226,0.3764436721801758
0.4291528701782226,0.3764436721801758
0.4451322555541992,0.3856189727783203
0.4451322555541992,0.3856189727783203
0.4369165420532227,0.3918416976928711
0.4369165420532227,0.3918416976928711
0.4416332244873047,0.3867061614990234
0.4416332244873047,0.3867061614990234
0.4504062652587890,0.4051752090454102
0.4504062652587890,0.4051752090454102
0.4405202865600586,0.3976999282836914
0.4405202865600586,0.3976999282836914
0.4591238021850585,0.4112600326538086
0.4591238021850585,0.4112600326538086
0.4521011352539062,0.4202356338500977
0.4521011352539062,0.4202356338500977
0.4579336166381835,0.4160791397094726
0.4579336166381835,0.4160791397094726
0.4661012649536133,0.4332813262939453
0.4661012649536133,0.4332813262939453
0.4550680160522461,0.4226829528808594
0.4550680160522461,0.4226829528808594
0.4712247848510742,0.4325248718261719
0.4712247848510742,0.4325248718261719
0.4616065979003906,0.4368730545043945
0.4616065979003906,0.4368730545043945
0.4653505325317382,0.4287580490112304
0.4653505325317382,0.4287580490112304
0.4715686798095703,0.4422695159912109
0.4715686798095703,0.4422695159912109
0.4588823318481445,0.4287437438964843
0.4588823318481445,0.4287437438964843
0.4738185882568359,0.4366630554199218
0.4738185882568359,0.4366630554199218
0.4628803253173828,0.4391418457031250
0.4628803253173828,0.4391418457031250
0.4661790847778320,0.4300518035888672
0.4661790847778320,0.4300518035888672
0.4717248916625976,0.4430150985717773
0.4717248916625976,0.4430150985717773
0.4591157913208008,0.4294252395629883
0.4591157913208008,0.4294252395629883
0.4742340087890625,0.4377559661865234
0.4742340087890625,0.4377559661865234
0.4634857177734375,0.4406896591186523
0.4634857177734375,0.4406896591186523
0.4673784255981445,0.4325345993041992
0.4673784255981445,0.4325345993041992
0.4733207702636719,0.4463905334472656
0.4733207702636719,0.4463905334472656
0.4614269256591796,0.4334764480590820
0.4614269256591796,0.4334764480590820
0.4770240783691406,0.4428108215332031
0.4770240783691406,0.4428108215332031
0.4664045333862304,0.4462360382080078
0.4664045333862304,0.4462360382080078
0.4707017898559570,0.4387367248535156
0.4707017898559570,0.4387367248535156
0.4767488479614257,0.4528438568115234
0.4767488479614257,0.4528438568115234
0.4651268005371094,0.4396791458129883
0.4651268005371094,0.4396791458129883
0.4799640655517578,0.4481409072875976
0.4799640655517578,0.4481409072875976
0.4677251815795898,0.4484716415405273
0.4677251815795898,0.4484716415405273
0.4693519592285156,0.4346677780151367
0.4693519592285156,0.4346677780151367
0.4699310302734375,0.4379648208618164
0.4699310302734375,0.4379648208618164
0.4509401321411133,0.4106597900390625
0.4509401321411133,0.4106597900390625
0.4581029891967773,0.4052249908447266
0.4581029891967773,0.4052249908447266
0.4398044586181640,0.3960760116577148
0.4398044586181640,0.3960760116577148
0.4395732879638672,0.3802047729492187
0.4395732879638672,0.3802047729492187
0.4418106079101562,0.3885309219360352
0.4418106079101562,0.3885309219360352
0.4282711029052734,0.3718505859375000
0.4282711029052734,0.3718505859375000
0.4423524856567383,0.3800371170043945
0.4423524856567383,0.3800371170043945
0.4309152603149414,0.3828392028808594
0.4309152603149414,0.3828392028808594
0.4365056991577148,0.3769283294677734
0.4365056991577148,0.3769283294677734
0.4433904647827148,0.3933277130126953
0.4433904647827148,0.3933277130126953
0.4341173171997070,0.3838640213012695
0.4341173171997070,0.3838640213012695
0.4519672393798828,0.3984598159790039
0.4519672393798828,0.3984598159790039
0.4433406829833984,0.4062538146972656
0.4433406829833984,0.4062538146972656
0.4513601303100586,0.4043815612792969
0.4513601303100586,0.4043815612792969
0.4595615386962890,0.4228076934814453
0.4603569030761718,0.4228076934814453
0.4506746292114258,0.4129337310791015
0.4506746292114258,0.4129337310791015
0.4672725677490234,0.4256584167480469
0.4672725677490234,0.4256584167480469
0.4566455841064453,0.4299339294433593
0.4566455841064453,0.4299339294433593
0.4626354217529297,0.4239337921142578
0.4626354217529297,0.4239337921142578
0.4684118270874023,0.4381107330322265
0.4684118270874023,0.4381107330322265
0.4574180603027344,0.4245889663696289
0.4574180603027344,0.4245889663696289
0.4724081039428711,0.4345264434814453
0.4724081039428711,0.4345264434814453
0.4603025436401367,0.4362934112548828
0.4603025436401367,0.4362934112548828
0.4656515121459961,0.4287179946899414
0.4656515121459961,0.4287179946899414
0.4702726364135742,0.4415868759155273
0.4702726364135742,0.4415868759155273
0.4590534210205078,0.4270208358764648
0.4590534210205078,0.4270208358764648
0.4734821319580078,0.4364547729492188
0.4734821319580078,0.4364547729492188
0.4609725952148437,0.4377536773681641
0.4609725952148437,0.4377536773681641
0.4662002563476562,0.4303293228149414
0.4662002563476562,0.4303293228149414
0.4709804534912109,0.4435575485229492
0.4709804534912109,0.4435575485229492
0.4601732254028320,0.4293943405151367
0.4601732254028320,0.4293943405151367
0.4750265121459961,0.4397214889526367
0.4750265121459961,0.4397214889526367
0.4627704620361328,0.4415788650512695
0.4627704620361328,0.4415788650512695
0.4687751770019531,0.4351449966430664
0.4687751770019531,0.4351449966430664
0.4737682342529297,0.4488018035888672
0.4737682342529297,0.4488018035888672
0.4634382247924804,0.4350259780883789
0.4634382247924804,0.4350259780883789
0.4782600402832031,0.4459733963012695
0.4782600402832031,0.4459733963012695
0.4660886764526367,0.4477272033691406
0.4660886764526367,0.4477272033691406
0.4719806671142578,0.4406547546386719
0.4719806671142578,0.4406547546386719
0.4757532119750976,0.4517269134521484
0.4757532119750976,0.4517269134521484
0.4627086639404296,0.4322135925292969
0.4627086639404296,0.4322135925292969
0.4727411270141602,0.4340394973754882
0.4727411270141602,0.4340394973754882
0.4539762496948242,0.4229759216308593
0.4539762496948242,0.4229759216308593
0.4529788970947266,0.4031049728393555
0.4529788970947266,0.4031049728393555
0.4506122589111328,0.4042882919311523
0.4506122589111328,0.4042882919311523
0.4351615905761719,0.3814046859741211
0.4351615905761719,0.3814046859741211
0.4462308883666992,0.3870534896850586
0.4462308883666992,0.3870534896850586
0.4318742752075195,0.3851589202880859
0.4318742752075195,0.3851589202880859
0.4372758865356445,0.3777425765991211
0.4372758865356445,0.3777425765991211
0.4417980194091797,0.3914016723632812
0.4417980194091797,0.3914016723632812
0.4325534820556641,0.3787399291992187
0.4325534820556641,0.3787399291992187
0.4485374450683594,0.3930049896240234
0.4485374450683594,0.3930049896240234
0.4381513595581055,0.3980747222900390
0.4381513595581055,0.3980747222900390
0.4473901748657226,0.3971340179443359
0.4473901748657226,0.3971340179443359
0.4545873641967773,0.4153924942016601
0.4545873641967773,0.4153924942016601
0.4475675582885742,0.4057685852050781
0.4475675582885742,0.4057685852050781
0.4640991210937500,0.4211906433105468
0.4640991210937500,0.4211906433105468
0.4531620025634766,0.4248596191406250
0.4531620025634766,0.4248596191406250
0.4612472534179687,0.4212186813354492
0.4612472534179687,0.4212186813354492
0.4663307189941406,0.4355758666992187
0.4663307189941406,0.4355758666992187
0.4570198059082031,0.4220684051513672
0.4570198059082031,0.4220684051513672
0.4714714050292969,0.4341928482055664
0.4714714050292969,0.4341928482055664
0.4588394165039062,0.4348892211914062
0.4588394165039062,0.4348892211914062
0.4658969879150390,0.4290304183959961
0.4658969879150390,0.4290304183959961
0.4695396423339844,0.4415422439575195
0.4695396423339844,0.4415422439575195
0.4599042892456054,0.4266775131225586
0.4599042892456054,0.4266775131225586
0.4735422134399414,0.4380678176879882
0.4735422134399414,0.4380678176879882
0.4606767654418945,0.4380460739135742
0.4606767654418945,0.4380460739135742
0.4673086166381836,0.4320493698120117
0.4673086166381836,0.4320493698120117
0.4710411071777343,0.4443174362182617
0.4710411071777343,0.4443174362182617
0.4613754272460937,0.4297130584716797
0.4613754272460937,0.4297130584716797
0.4752199172973632,0.4415325164794922
0.4752199172973632,0.4415325164794922
0.4622714996337891,0.4414758682250977
0.4622714996337891,0.4414758682250977
0.4694778442382812,0.4361703872680664
0.4694778442382812,0.4361703872680664
0.4733957290649414,0.4488327026367188
0.4733957290649414,0.4488327026367188
0.4645545959472656,0.4347032546997070
0.4645545959472656,0.4347032546997070
0.4783058166503906,0.4473913192749023
0.4783058166503906,0.4473913192749023
0.4656795501708984,0.4475761413574219
0.4656795501708984,0.4475761413574219
0.4733980178833008,0.4427965164184570
0.4733980178833008,0.4427965164184570
0.4773685455322265,0.4554405212402344
0.4773685455322265,0.4554405212402344
0.4682733535766601,0.4405998229980468
0.4682733535766601,0.4405998229980468
0.4810352325439453,0.4514442443847656
0.4810352325439453,0.4514442443847656
0.4660125732421875,0.4467824935913086
0.4660125732421875,0.4467824935913086
0.4697839736938476,0.4340040206909180
0.4697839736938476,0.4340040206909180
0.4672639846801758,0.4350225448608399
0.4672639846801758,0.4350225448608399
0.4513401031494140,0.4075675964355469
0.4513401031494140,0.4075675964355469
0.4580440521240234,0.4081438064575195
0.4580440521240234,0.4081438064575195
0.4394731521606445,0.3980758666992187
0.4394731521606445,0.3980758666992187
0.4435203552246094,0.3872474670410156
0.4435203552246094,0.3872474670410156
0.4329116821289062,0.3864887237548828
0.4463573455810547,0.3879346847534180
0.4353046417236328,0.3879346847534180
0.4401512145996094,0.3942649841308594
0.4401512145996094,0.3942649841308594
0.4391572952270508,0.3833593368530273
0.4391572952270508,0.3833593368530273
0.4498048782348633,0.4018272399902343
0.4498048782348633,0.4018272399902343
0.4374469757080078,0.3959867477416992
0.4374469757080078,0.3959867477416992
0.4550354003906250,0.4047912597656250
0.4550354003906250,0.4047912597656250
0.4520021438598633,0.4168212890625000
0.4520021438598633,0.4168212890625000
0.4538423538208007,0.4105882644653320
0.4538423538208007,0.4105882644653320
0.4659873962402343,0.4315160751342773
0.4659873962402343,0.4315160751342773
0.4541484832763671,0.4255582809448242
0.4541484832763671,0.4255582809448242
0.4710891723632812,0.4326936721801758
0.4710891723632812,0.4326936721801758
0.4661962509155273,0.4412235260009765
0.4661962509155273,0.4412235260009765
0.4660457611083984,0.4308792114257812
0.4660457611083984,0.4308792114257812
0.4754682540893554,0.4474393844604492
0.4754682540893554,0.4474393844604492
0.4613834381103515,0.4374389648437500
0.4613834381103515,0.4374389648437500
