REDsignal,IRsignal
0.2961874008178711,0.3394271850585938
0.2992235183715820,0.3393339157104492
0.2992235183715820,0.3393339157104492
0.2987594604492188,0.3442256927490234
0.2987594604492188,0.3442256927490234
0.2985403060913086,0.3389791488647461
0.2985403060913086,0.3389791488647461
0.2999897003173828,0.3429285049438476
0.2999897003173828,0.3429285049438476
0.2972053527832031,0.3414562225341797
0.2972053527832031,0.3414562225341797
0.3005401611328125,0.3442874908447265
0.3005401611328125,0.3442874908447265
0.2999055862426758,0.3439716339111328
0.2999055862426758,0.3439716339111328
0.2995456695556640,0.3407867431640625
0.2995456695556640,0.3407867431640625
0.3012537002563476,0.3444494247436523
0.3012537002563476,0.3444494247436523
0.2985219955444336,0.3460023880004883
0.2985219955444336,0.3460023880004883
0.3017526626586914,0.3439287185668945
0.3017526626586914,0.3439287185668945
0.3006631851196289,0.3459377288818359
0.3006631851196289,0.3459377288818359
0.3004846572875977,0.3426927566528320
0.3004846572875977,0.3426927566528320
0.3026149749755859,0.3492473602294922
0.3026149749755859,0.3492473602294922
0.2995988845825195,0.3455926895141602
0.2995988845825195,0.3455926895141602
0.3027225494384765,0.3456436157226562
0.3027225494384765,0.3456436157226562
0.3014585494995117,0.3464664459228515
0.3006219863891602,0.3464664459228515
0.3005264282226562,0.3444311141967774
0.3005264282226562,0.3444311141967774
0.3004474639892578,0.3420324325561523
0.3004474639892578,0.3420324325561523
0.2948501586914062,0.3365478515625000
0.2948501586914062,0.3365478515625000
0.2960060119628906,0.3326860427856445
0.2960060119628906,0.3326860427856445
0.2935272216796875,0.3340152740478515
0.2935272216796875,0.3340152740478515
0.2918655395507813,0.3265336990356445
0.2918655395507813,0.3265336990356445
0.2927461624145508,0.3286668777465820
0.2927461624145508,0.3286668777465820
0.2888729095458984,0.3256605148315430
0.2888729095458984,0.3256605148315430
0.2919233322143555,0.3278171539306641
0.2919233322143555,0.3278171539306641
0.2907337188720703,0.3269021987915039
0.2907337188720703,0.3269021987915039
0.2897987365722656,0.3234140396118164
0.2897987365722656,0.3234140396118164
0.2914930343627929,0.3264965057373047
0.2914930343627929,0.3264965057373047
0.2884334564208984,0.3272546768188476
0.2884334564208984,0.3272546768188476
0.2915708541870117,0.3249315261840820
0.2915708541870117,0.3249315261840820
0.2904052734375000,0.3264083862304688
0.2904052734375000,0.3264083862304688
0.2897094726562500,0.3227434158325195
0.2897094726562500,0.3227434158325195
0.2918684005737305,0.3292917251586914
0.2918684005737305,0.3292917251586914
0.2887493133544922,0.3256725311279297
0.2887493133544922,0.3256725311279297
0.2919233322143555,0.3259729385375976
0.2919233322143555,0.3259729385375976
0.2910764694213867,0.3277502059936523
0.2910764694213867,0.3277502059936523
0.2910066604614258,0.3274103164672851
0.2910066604614258,0.3274103164672851
0.2930202484130859,0.3289878845214844
0.2930202484130859,0.3289878845214844
0.2897483825683594,0.3273456573486328
0.2897483825683594,0.3273456573486328
0.2928417205810547,0.3268215179443359
0.2928417205810547,0.3268215179443359
0.2918558120727539,0.3311227798461914
0.2918558120727539,0.3311227798461914
0.2913785934448242,0.3255666732788086
0.2913785934448242,0.3255666732788086
0.2928480148315429,0.3289569854736328
0.2928480148315429,0.3289569854736328
0.2895372390747070,0.3271230697631836
0.2895372390747070,0.3271230697631836
0.2932079315185547,0.3298198699951172
0.2932079315185547,0.3298198699951172
0.2921092987060547,0.3292127609252929
0.2921092987060547,0.3292127609252929
0.2916578292846679,0.3261726379394531
0.2916578292846679,0.3261726379394531
0.2934877395629883,0.3293249130249024
0.2934877395629883,0.3293249130249024
0.2903526306152344,0.3308218002319336
0.2903526306152344,0.3308218002319336
0.2939941406250000,0.3288150787353515
0.2939941406250000,0.3288150787353515
0.2926649093627929,0.3306386947631836
0.2926649093627929,0.3306386947631836
0.2923353195190430,0.3274280548095703
0.2923353195190430,0.3274280548095703
0.2938339233398438,0.3310501098632813
0.2938339233398438,0.3310501098632813
0.2921012878417968,0.3318557739257812
0.2949193954467773,0.3318557739257812
0.2926300048828125,0.3245098114013672
0.2926300048828125,0.3245098114013672
0.2957262039184570,0.3316429138183594
0.2957262039184570,0.3316429138183594
0.2929327011108399,0.3324445724487304
0.2929327011108399,0.3324445724487304
0.2941274642944336,0.3318208694458007
0.2941274642944336,0.3318208694458007
0.2955642700195312,0.3287996292114257
0.2955642700195312,0.3287996292114257
0.2935712814331055,0.3309637069702148
0.2935712814331055,0.3309637069702148
0.2968397140502930,0.3341840744018554
0.2968397140502930,0.3341840744018554
0.2932308197021484,0.3337245941162109
0.2932308197021484,0.3337245941162109
0.2954526901245117,0.3287286758422852
0.2954526901245117,0.3287286758422852
0.2965684890747070,0.3351905822753906
0.2965684890747070,0.3351905822753906
0.2948118209838867,0.3326951980590820
0.2948118209838867,0.3326951980590820
0.2971555709838867,0.3348678588867187
0.2971555709838867,0.3348678588867187
0.2944953918457031,0.3306112289428711
0.2944953918457031,0.3306112289428711
0.2964151382446289,0.3351041793823242
0.2964151382446289,0.3351041793823242
0.2977352142333984,0.3376241683959961
0.2951122283935547,0.3341091156005859
0.2951122283935547,0.3341091156005859
0.2985351562500000,0.3318403244018555
0.2985351562500000,0.3318403244018555
0.2954795837402344,0.3371578216552734
0.2954795837402344,0.3371578216552734
0.2977643966674804,0.3370565414428711
0.2977643966674804,0.3370565414428711
0.2981369018554688,0.3385288238525391
0.2981369018554688,0.3385288238525391
0.2966394424438477,0.3312555313110351
0.2966394424438477,0.3312555313110351
0.2996051788330078,0.3384916305541992
0.2996051788330078,0.3384916305541992
0.2967538833618164,0.3397310256958008
0.2967538833618164,0.3397310256958008
0.2981082916259766,0.3386112213134765
0.2981082916259766,0.3386112213134765
0.2994901657104492,0.3355110168457031
0.2994901657104492,0.3355110168457031
0.2977231979370117,0.3377243041992187
0.2977231979370117,0.3377243041992187
0.3008440017700195,0.3403221130371094
0.3008440017700195,0.3403221130371094
0.2971097946166992,0.3405075073242188
0.2971097946166992,0.3405075073242188
0.2995233535766602,0.3355545043945312
0.2995233535766602,0.3355545043945312
0.3005064010620117,0.3422761917114258
0.3005064010620117,0.3422761917114258
0.2990793228149414,0.3405555725097656
0.2990793228149414,0.3405555725097656
0.3013584136962891,0.3421245574951172
0.3013584136962891,0.3421245574951172
0.2986227035522461,0.3377386093139648
0.2986227035522461,0.3377386093139648
0.3006877899169922,0.3424083709716797
0.3006877899169922,0.3424083709716797
0.3020009994506836,0.3443647384643554
0.3020009994506836,0.3443647384643554
0.2994924545288086,0.3414110183715820
0.2994924545288086,0.3414110183715820
0.3026475906372070,0.3387222290039062
0.3026475906372070,0.3387222290039062
0.2989339828491211,0.3428478240966797
0.2989339828491211,0.3428478240966797
0.3000852584838867,0.3410768508911133
0.3000852584838867,0.3410768508911133
0.2989105224609375,0.3389345169067383
0.2989105224609375,0.3389345169067383
0.2956644058227539,0.3284362792968750
0.2956644058227539,0.3284362792968750
0.2967933654785156,0.3324657440185547
0.2967933654785156,0.3324657440185547
0.2923799514770508,0.3303668975830078
0.2923799514770508,0.3303668975830078
0.2925825119018555,0.3277679443359375
0.2925825119018555,0.3277679443359375
0.2929847717285156,0.3233934402465820
0.2929847717285156,0.3233934402465820
0.2905014038085937,0.3242174148559570
0.2905014038085937,0.3242174148559570
0.2930477142333984,0.3263385772705078
0.2930477142333984,0.3263385772705078
0.2888196945190429,0.3249515533447265
0.2888196945190429,0.3249515533447265
0.2907371520996094,0.3192638397216797
0.2907371520996094,0.3192638397216797
0.2913419723510742,0.3249950408935547
0.2913419723510742,0.3249950408935547
0.2894662857055664,0.3218650817871094
0.2894662857055664,0.3218650817871094
0.2913070678710937,0.3233259201049805
0.2913070678710937,0.3233259201049805
0.2881221771240234,0.3184759140014649
0.2881221771240234,0.3184759140014649
0.2898347854614258,0.3223394393920898
0.2898347854614258,0.3223394393920898
0.2907669067382813,0.3243244171142578
0.2907669067382813,0.3243244171142578
0.2883441925048828,0.3205684661865234
0.2883441925048828,0.3205684661865234
0.2912984848022461,0.3182664871215820
0.2912984848022461,0.3182664871215820
0.2882171630859375,0.3231513977050781
0.2882171630859375,0.3231513977050781
0.2905723571777344,0.3232835769653320
0.2905723571777344,0.3232835769653320
0.2909769058227539,0.3249292373657227
0.2909769058227539,0.3249292373657227
0.2897764205932617,0.3178516387939453
0.2897764205932617,0.3178516387939453
0.2924365997314453,0.3248559951782227
0.2924365997314453,0.3248559951782227
0.2894937515258789,0.3257944107055664
0.2894937515258789,0.3257944107055664
0.2909048080444336,0.3245149612426758
0.2909048080444336,0.3245149612426758
0.2920103073120117,0.3215555191040039
0.2901832580566406,0.3215555191040039
0.2902805328369141,0.3233018875122070
0.2902805328369141,0.3233018875122070
0.2931255340576172,0.3256725311279297
0.2931255340576172,0.3256725311279297
0.2891870498657226,0.3254573822021484
0.2891870498657226,0.3254573822021484
0.2915176391601562,0.3205215454101563
0.2915176391601562,0.3205215454101563
0.2923593521118164,0.3268209457397461
0.2923593521118164,0.3268209457397461
0.2910558700561524,0.3250780105590820
0.2910558700561524,0.3250780105590820
0.2930963516235351,0.3265222549438476
0.2930963516235351,0.3265222549438476
0.2901969909667969,0.3221832275390625
0.2901969909667969,0.3221832275390625
0.2923084259033203,0.3265485763549805
0.2923084259033203,0.3265485763549805
0.2935541152954101,0.3285964965820312
0.2935541152954101,0.3285964965820312
0.2914936065673828,0.3258075714111328
0.2914936065673828,0.3258075714111328
0.2943872451782226,0.3237138748168945
0.2943872451782226,0.3237138748168945
0.2912372589111328,0.3286668777465820
0.2912372589111328,0.3286668777465820
0.2936880111694336,0.3293460845947265
0.2936880111694336,0.3293460845947265
0.2940879821777344,0.3303966522216797
0.2940879821777344,0.3303966522216797
0.2929859161376953,0.3232212066650391
0.2929859161376953,0.3232212066650391
0.2956123352050781,0.3305351257324219
0.2956123352050781,0.3305351257324219
0.2927541732788086,0.3308967590332031
0.2927541732788086,0.3308967590332031
0.2943460464477539,0.3305517196655273
0.2943460464477539,0.3305517196655273
0.2955448150634766,0.3278234481811523
0.2955448150634766,0.3278234481811523
0.2942024230957031,0.3300235748291016
0.2942024230957031,0.3300235748291016
0.2970096588134766,0.3334127426147461
0.2970096588134766,0.3334127426147461
0.2933732986450195,0.3327466964721680
0.2933732986450195,0.3327466964721680
0.2958469390869141,0.3279430389404297
0.2958469390869141,0.3279430389404297
0.2967647552490234,0.3345760345458984
0.2967647552490234,0.3345760345458984
0.2957536697387695,0.3321968078613281
0.2957536697387695,0.3321968078613281
0.2976551055908203,0.3345989227294922
0.2976551055908203,0.3345989227294922
0.2947683334350586,0.3300991058349609
0.2947683334350586,0.3300991058349609
0.2970159530639648,0.3346361160278320
0.2970159530639648,0.3346361160278320
0.2981695175170898,0.3374788284301758
0.2981695175170898,0.3374788284301758
0.2963092803955078,0.3340221405029297
0.2963092803955078,0.3340221405029297
0.2990318298339844,0.3319999694824219
0.2990318298339844,0.3319999694824219
0.2959699630737305,0.3367967605590820
0.2959699630737305,0.3367967605590820
0.2984333038330078,0.3367584228515625
0.2984333038330078,0.3367584228515625
0.2986215591430664,0.3383617401123047
0.2986215591430664,0.3383617401123047
0.2976545333862304,0.3311559677124024
0.2976545333862304,0.3311559677124024
0.2999771118164062,0.3383680343627929
0.2999771118164062,0.3383680343627929
0.2970342636108398,0.3392177581787109
0.2970342636108398,0.3392177581787109
0.2988475799560547,0.3382587432861328
0.2988475799560547,0.3382587432861328
0.2999004364013672,0.3355333328247070
0.2999004364013672,0.3355333328247070
0.2988561630249023,0.3378158569335937
0.2988561630249023,0.3378158569335937
0.3014207839965820,0.3406860351562500
0.3014207839965820,0.3406860351562500
0.2977878570556641,0.3406007766723633
0.2977878570556641,0.3406007766723633
0.3003044128417969,0.3356420516967774
0.3003044128417969,0.3356420516967774
0.3012250900268554,0.3424415588378906
0.3012250900268554,0.3424415588378906
0.3002935409545898,0.3406448364257812
0.3002935409545898,0.3406448364257812
0.3020221710205078,0.3423666000366211
0.3020221710205078,0.3423666000366211
0.2989322662353516,0.3370239257812500
0.3011753082275391,0.3370239257812500
0.3004646301269531,0.3400308609008789
0.3004646301269531,0.3400308609008789
0.3000549316406250,0.3393756866455078
0.3000549316406250,0.3393756866455078
0.2966274261474609,0.3333097457885742
0.2966274261474609,0.3333097457885742
0.2972110748291015,0.3279630661010742
0.2972110748291015,0.3279630661010742
0.2923364639282227,0.3295251846313477
0.2938774108886719,0.3295251846313477
0.2933687210083007,0.3274234771728515
0.2933687210083007,0.3274234771728515
0.2923742294311523,0.3264255523681641
0.2923742294311523,0.3264255523681641
0.2905443191528320,0.3176845550537109
0.2905443191528320,0.3176845550537109
0.2920852661132812,0.3238334655761719
0.2920852661132812,0.3238334655761719
0.2886703491210937,0.3227222442626953
0.2886703491210937,0.3227222442626953
0.2898702621459961,0.3213100433349609
0.2898702621459961,0.3213100433349609
0.2903291702270508,0.3179105758666992
0.2903291702270508,0.3179105758666992
0.2888454437255859,0.3190509796142578
0.2888454437255859,0.3190509796142578
0.2908224105834961,0.3218496322631836
0.2908224105834961,0.3218496322631836
0.2868650436401367,0.3200717926025390
0.2868650436401367,0.3200717926025390
0.2889844894409180,0.3146432876586914
0.2889844894409180,0.3146432876586914
0.2893472671508789,0.3204723358154297
0.2893472671508789,0.3204723358154297
0.2881456375122070,0.3174104690551758
0.2881456375122070,0.3174104690551758
0.2895389556884765,0.3194950103759766
0.2895389556884765,0.3194950103759766
0.2865028381347656,0.3145454406738281
0.2865028381347656,0.3145454406738281
0.2886674880981445,0.3187013626098633
0.2886674880981445,0.3187013626098633
0.2897197723388672,0.3214851379394531
0.2897197723388672,0.3214851379394531
0.2882669448852539,0.3181331634521484
0.2882669448852539,0.3181331634521484
0.2906381607055664,0.3167049407958984
0.2906381607055664,0.3167049407958984
0.2876604080200195,0.3210714340209961
0.2876604080200195,0.3210714340209961
0.2902776718139649,0.3211051940917969
0.2902776718139649,0.3211051940917969
0.2903909683227539,0.3227668762207031
0.2903909683227539,0.3227668762207031
0.2896087646484375,0.3154689788818359
0.2896087646484375,0.3154689788818359
0.2915502548217773,0.3228710174560547
0.2915502548217773,0.3228710174560547
0.2886680603027343,0.3232772827148437
0.2886680603027343,0.3232772827148437
0.2904327392578125,0.3220075607299804
0.2904327392578125,0.3220075607299804
0.2912618637084961,0.3195035934448242
0.2912618637084961,0.3195035934448242
0.2902782440185547,0.3213071823120117
0.2902782440185547,0.3213071823120117
0.2925601959228515,0.3243885040283203
0.2925601959228515,0.3243885040283203
0.2890588760375977,0.3238821029663086
0.2890588760375977,0.3238821029663086
0.2914833068847656,0.3191127777099609
0.2888437271118164,0.3217174530029297
0.2922620773315430,0.3257492065429687
0.2905757904052734,0.3257492065429687
0.2915897369384766,0.3238677978515625
0.2915897369384766,0.3238677978515625
0.2930952072143554,0.3261720657348633
0.2930952072143554,0.3261720657348633
0.2903079986572266,0.3214004516601562
0.2903079986572266,0.3214004516601562
0.2927656173706055,0.3258287429809570
0.2927656173706055,0.3258287429809570
0.2937091827392578,0.3281415939331054
0.2937091827392578,0.3281415939331054
0.2923942565917969,0.3252639770507812
0.2923942565917969,0.3252639770507812
0.2946207046508789,0.3240177154541016
0.2946207046508789,0.3240177154541016
0.2917110443115234,0.3283504486083984
0.2917110443115234,0.3283504486083984
0.2943992614746094,0.3290410995483398
0.2943992614746094,0.3290410995483398
0.2946247100830078,0.3303766250610352
0.2946247100830078,0.3303766250610352
0.2940250396728515,0.3232149124145507
0.2940250396728515,0.3232149124145507
0.2960466384887695,0.3311674118041992
0.2960466384887695,0.3311674118041992
0.2934391021728516,0.3310186386108399
0.2934391021728516,0.3310186386108399
0.2952856063842773,0.3307399749755859
0.2952856063842773,0.3307399749755859
0.2962617874145508,0.3284797668457031
0.2962617874145508,0.3284797668457031
0.2955602645874023,0.3305225372314453
0.2955602645874023,0.3305225372314453
0.2977088928222656,0.3346097946166992
0.2977088928222656,0.3346097946166992
0.2943918228149414,0.3334894180297852
0.2943918228149414,0.3334894180297852
0.2970651626586914,0.3286972045898438
0.2970651626586914,0.3286972045898438
0.2977918624877929,0.3356964111328125
0.2977918624877929,0.3356964111328125
0.2973112106323242,0.3332187652587891
0.2973112106323242,0.3332187652587891
0.2987583160400391,0.3364288330078125
0.2987583160400391,0.3364288330078125
0.2960689544677734,0.3315095901489258
0.2960689544677734,0.3315095901489258
0.2985563278198242,0.3361415863037109
0.2985563278198242,0.3361415863037109
0.2994958877563477,0.3392349243164062
0.2994958877563477,0.3392349243164062
0.2983898162841797,0.3356403350830078
0.2983898162841797,0.3356403350830078
0.3003862380981445,0.3343832015991211
0.3003862380981445,0.3343832015991211
0.2976779937744141,0.3388395309448242
0.2976779937744141,0.3388395309448242
0.3002969741821289,0.3388681411743164
0.3002969741821289,0.3388681411743164
0.3004234313964844,0.3409154891967773
0.3004234313964844,0.3409154891967773
0.2999410629272461,0.3333847045898438
0.2999410629272461,0.3333847045898438
0.3018058776855468,0.3416044235229492
0.3018058776855468,0.3416044235229492
0.2991708755493164,0.3420547485351562
0.2991708755493164,0.3420547485351562
0.3011140823364258,0.3409097671508789
0.3011140823364258,0.3409097671508789
0.3019466400146484,0.3384853363037109
0.3019466400146484,0.3384853363037109
0.3013767242431640,0.3404005050659180
0.3013767242431640,0.3404005050659180
0.3032924652099609,0.3441135406494141
0.3032924652099609,0.3441135406494141
0.3000068664550781,0.3433170318603516
0.3023935317993164,0.3433170318603516
0.3025365829467773,0.3384326934814453
0.3025365829467773,0.3384326934814453
0.3031551361083984,0.3454158782958984
0.3031551361083984,0.3454158782958984
0.3027202606201172,0.3431877136230468
0.3027202606201172,0.3431877136230468
0.3038034439086914,0.3454164505004882
0.3038034439086914,0.3454164505004882
0.3006626129150390,0.3391164779663086
0.3006626129150390,0.3391164779663086
0.3020135879516602,0.3412347793579101
0.3020135879516602,0.3412347793579101
0.3006935119628906,0.3394701004028320
0.3006935119628906,0.3394701004028320
0.2973381042480469,0.3323787689208984
0.2973381042480469,0.3323787689208984
0.2971218109130859,0.3278079986572265
0.2971218109130859,0.3278079986572265
0.2925910949707031,0.3288225173950195
0.2925910949707031,0.3288225173950195
0.2938985824584961,0.3271150588989258
0.2938985824584961,0.3271150588989258
0.2929859161376953,0.3268329620361328
0.2929859161376953,0.3268329620361328
0.2918775558471680,0.3182538986206054
0.2918775558471680,0.3182538986206054
0.2930276870727539,0.3254362106323242
0.2930276870727539,0.3254362106323242
0.2901008605957031,0.3242214202880859
0.2901008605957031,0.3242214202880859
0.2916566848754883,0.3230415344238281
0.2916566848754883,0.3230415344238281
0.2918872833251953,0.3202342987060547
0.2918872833251953,0.3202342987060547
0.2909940719604492,0.3211217880249023
0.2909940719604492,0.3211217880249023
0.2925539016723633,0.3249721527099609
0.2925539016723633,0.3249721527099609
0.2891733169555664,0.3228338241577148
0.2891733169555664,0.3228338241577148
0.2913551330566406,0.3177520751953125
0.2913551330566406,0.3177520751953125
0.2917551040649414,0.3243152618408203
0.2917551040649414,0.3243152618408203
0.2912738800048828,0.3213008880615234
0.2912738800048828,0.3213008880615234
0.2925647735595703,0.3249893188476562
0.2925647735595703,0.3249893188476562
0.2900144577026367,0.3199029922485351
0.2900144577026367,0.3199029922485351
0.2925973892211914,0.3244869232177734
0.2925973892211914,0.3244869232177734
0.2934476852416992,0.3277879714965820
0.2934476852416992,0.3277879714965820
0.2924966812133789,0.3238924026489258
0.2924966812133789,0.3238924026489258
0.2942596435546875,0.3230157852172851
0.2942596435546875,0.3230157852172851
0.2914598464965820,0.3266727447509766
0.2914598464965820,0.3266727447509766
0.2938762664794922,0.3262939453125000
0.2938762664794922,0.3262939453125000
0.2937526702880859,0.3281759262084961
0.2919187545776367,0.3281759262084961
0.2932291030883789,0.3202165603637695
0.2932291030883789,0.3202165603637695
0.2947620391845703,0.3284254074096680
0.2947620391845703,0.3284254074096680
0.2920469284057617,0.3281593322753906
0.2920469284057617,0.3281593322753906
0.2939580917358398,0.3269428253173828
0.2939580917358398,0.3269428253173828
0.2944622039794922,0.3246162414550781
0.2944622039794922,0.3246162414550781
0.2938751220703125,0.3260187149047851
0.2970794677734375,0.3260187149047851
0.2958131790161133,0.3301174163818359
0.2958131790161133,0.3301174163818359
0.2926328659057617,0.3290039062500000
0.2926328659057617,0.3290039062500000
0.2950738906860351,0.3243124008178711
0.2950738906860351,0.3243124008178711
0.2955614089965820,0.3313539505004883
0.2955614089965820,0.3313539505004883
0.2953697204589844,0.3289798736572265
0.2953697204589844,0.3289798736572265
0.2966480255126953,0.3321275711059570
0.2966480255126953,0.3321275711059570
0.2940153121948242,0.3266744613647461
0.2940153121948242,0.3266744613647461
0.2964237213134766,0.3312458038330078
0.2964237213134766,0.3312458038330078
0.2971527099609375,0.3338109970092774
0.2971527099609375,0.3338109970092774
0.2962354660034179,0.3304681777954102
0.2962354660034179,0.3304681777954102
0.2981151580810547,0.3298439025878906
0.2981151580810547,0.3298439025878906
0.2952924728393554,0.3337051391601563
0.2952924728393554,0.3337051391601563
0.2979114532470703,0.3343534469604492
0.2979114532470703,0.3343534469604492
0.2979949951171875,0.3358755111694336
0.2979949951171875,0.3358755111694336
0.2977500915527344,0.3281782150268555
0.2977500915527344,0.3281782150268555
0.2995325088500976,0.3369352340698242
0.2995325088500976,0.3369352340698242
0.2970062255859375,0.3363035202026367
0.2970062255859375,0.3363035202026367
0.2989574432373047,0.3359447479248047
0.2989574432373047,0.3359447479248047
0.2994867324829101,0.3337795257568359
0.2994867324829101,0.3337795257568359
0.2990856170654297,0.3352764129638672
0.2990856170654297,0.3352764129638672
0.3010265350341797,0.3401424407958984
0.3010265350341797,0.3401424407958984
0.2979475021362304,0.3383869171142578
0.2979475021362304,0.3383869171142578
0.3004457473754883,0.3336124420166016
0.3004457473754883,0.3336124420166016
0.3008937835693359,0.3408828735351562
0.3008937835693359,0.3408828735351562
0.3006694793701172,0.3377523422241211
0.3006694793701172,0.3377523422241211
0.3020376205444336,0.3416679382324219
0.3020376205444336,0.3416679382324219
0.2994512557983398,0.3361003875732422
0.2994512557983398,0.3361003875732422
0.3018362045288086,0.3408262252807617
0.3018362045288086,0.3408262252807617
0.3024913787841797,0.3441215515136719
0.3024913787841797,0.3441215515136719
0.3017274856567383,0.3399433135986328
0.3017274856567383,0.3399433135986328
0.3034973144531250,0.3393596649169922
0.3034973144531250,0.3393596649169922
0.3008062362670899,0.3430910110473633
0.3008062362670899,0.3430910110473633
0.3033679962158203,0.3431699752807617
0.3033679962158203,0.3431699752807617
0.3033319473266601,0.3453741073608398
0.3033319473266601,0.3453741073608398
0.3029920578002930,0.3373741149902343
0.3029920578002930,0.3373741149902343
0.3047143936157227,0.3461774826049804
0.3047143936157227,0.3461774826049804
0.3022481918334961,0.3460807800292969
0.3022481918334961,0.3460807800292969
0.3041942596435547,0.3449752807617187
0.3041942596435547,0.3449752807617187
0.3045953750610351,0.3427019119262695
0.3045953750610351,0.3427019119262695
0.3041175842285156,0.3440248489379883
0.3041175842285156,0.3440248489379883
0.3060047149658203,0.3482030868530273
0.3060047149658203,0.3482030868530273
0.3028575897216797,0.3469127655029297
0.3028575897216797,0.3469127655029297
0.3051589965820312,0.3419237136840820
0.3051589965820312,0.3419237136840820
0.3052917480468750,0.3488691329956055
0.3037685394287109,0.3488691329956055
0.3048768997192383,0.3455062866210937
0.3048768997192383,0.3455062866210937
0.3053644180297851,0.3469705581665039
0.3053644180297851,0.3469705581665039
0.3009664535522461,0.3374107360839844
0.3009664535522461,0.3374107360839844
0.3007049560546875,0.3376264572143555
0.3007049560546875,0.3376264572143555
0.2990278244018554,0.3363704681396484
0.2990278244018554,0.3363704681396484
0.2963464736938476,0.3292768478393555
0.2981712341308594,0.3292768478393555
0.2965061187744141,0.3261594772338867
0.2965061187744141,0.3261594772338867
0.2926242828369141,0.3276678085327148
0.2926242828369141,0.3276678085327148
0.2942693710327148,0.3269067764282226
0.2942693710327148,0.3269067764282226
0.2935564041137695,0.3272689819335937
0.2935564041137695,0.3272689819335937
0.2926517486572265,0.3184049606323242
0.2926517486572265,0.3184049606323242
0.2939088821411133,0.3261560440063476
0.2939088821411133,0.3261560440063476
0.2910655975341797,0.3245933532714844
0.2910655975341797,0.3245933532714844
0.2926105499267578,0.3235198974609375
0.2926105499267578,0.3235198974609375
0.2925956726074219,0.3208374023437500
0.2925956726074219,0.3208374023437500
0.2918558120727539,0.3213558197021484
0.2918558120727539,0.3213558197021484
0.2934797286987305,0.3256444931030273
0.2934797286987305,0.3256444931030273
0.2902622222900391,0.3233024597167969
0.2902622222900391,0.3233024597167969
0.2923788070678711,0.3184089660644531
0.2923788070678711,0.3184089660644531
0.2924863815307617,0.3251026153564453
0.2924863815307617,0.3251026153564453
0.2923290252685547,0.3218353271484375
0.2923290252685547,0.3218353271484375
0.2937498092651367,0.3258367538452148
0.2937498092651367,0.3258367538452148
0.2911989212036133,0.3204168319702148
0.2911989212036133,0.3204168319702148
0.2935523986816406,0.3249555587768554
0.2935523986816406,0.3249555587768554
0.2939512252807617,0.3282079696655273
0.2939512252807617,0.3282079696655273
0.2932720184326172,0.3237905502319336
0.2932720184326172,0.3237905502319336
0.2949274063110351,0.3233110427856445
0.2949274063110351,0.3233110427856445
0.2921133041381836,0.3264684677124023
0.2921133041381836,0.3264684677124023
0.2918638229370117,0.3278875350952148
0.2918638229370117,0.3278875350952148
0.2918638229370117,0.3252004623413086
0.2948707580566406,0.3272626876831055
0.2948707580566406,0.3272626876831055
0.2933229446411132,0.3280071258544922
0.2938013076782227,0.3280071258544922
0.2940216064453125,0.3289054870605468
0.2940216064453125,0.3289054870605468
0.2955093383789062,0.3294330596923828
0.2955093383789062,0.3294330596923828
0.2925682067871094,0.3263929367065430
0.2925682067871094,0.3263929367065430
0.2956174850463867,0.3279762268066406
0.2956174850463867,0.3279762268066406
0.2944868087768555,0.3318603515625000
0.2944868087768555,0.3318603515625000
0.2950183868408203,0.3283922195434570
0.2950183868408203,0.3283922195434570
0.2962594985961914,0.3311719894409180
0.2962594985961914,0.3311719894409180
0.2933298110961914,0.3279584884643554
0.2933298110961914,0.3279584884643554
0.2970485687255859,0.3328239440917969
0.2970485687255859,0.3328239440917969
0.2956329345703125,0.3318140029907227
0.2956329345703125,0.3318140029907227
0.2962440490722656,0.3306461334228515
0.2962440490722656,0.3306461334228515
0.2975154876708984,0.3327535629272461
0.2975154876708984,0.3327535629272461
0.2948678970336914,0.3328754425048828
0.2948678970336914,0.3328754425048828
0.2984630584716797,0.3330682754516601
0.2984630584716797,0.3330682754516601
0.2967950820922852,0.3343832015991211
0.2967950820922852,0.3343832015991211
0.2974519729614258,0.3331071853637695
0.2974519729614258,0.3331071853637695
0.2993951797485351,0.3384149551391601
0.2993951797485351,0.3384149551391601
0.2965702056884765,0.3335008621215820
0.2965702056884765,0.3335008621215820
0.2999776840209961,0.3359121322631836
0.2999776840209961,0.3359121322631836
0.2982667922973632,0.3364814758300781
0.2982667922973632,0.3364814758300781
0.2993871688842774,0.3383033752441406
0.3002157211303711,0.3383033752441406
0.3008359909057617,0.3389545440673828
0.3008359909057617,0.3389545440673828
0.2978010177612305,0.3360780715942382
0.2978010177612305,0.3360780715942382
0.3012050628662109,0.3382558822631836
0.3012050628662109,0.3382558822631836
0.3000514984130859,0.3419277191162109
0.3000514984130859,0.3419277191162109
0.3007947921752930,0.3387994766235352
0.3007947921752930,0.3387994766235352
0.3022882461547852,0.3413806915283203
0.3022882461547852,0.3413806915283203
0.2992555618286133,0.3379726409912109
0.2992555618286133,0.3379726409912109
0.3028764724731445,0.3432420730590820
0.3028764724731445,0.3432420730590820
0.3013933181762695,0.3422721862792968
0.3013933181762695,0.3422721862792968
0.3019311904907226,0.3412611007690430
0.3019311904907226,0.3412611007690430
0.3033491134643554,0.3436677932739258
0.3033491134643554,0.3436677932739258
0.3008485794067383,0.3433250427246093
0.3008485794067383,0.3433250427246093
0.3042743682861328,0.3436128616333008
0.3042743682861328,0.3436128616333008
0.3026693344116211,0.3446382522583007
0.3026693344116211,0.3446382522583007
0.3031848907470703,0.3428798675537109
0.3031848907470703,0.3428798675537109
0.3049049377441406,0.3482757568359375
0.3049049377441406,0.3482757568359375
0.3020936965942383,0.3431591033935547
0.3020936965942383,0.3431591033935547
0.3050691604614258,0.3454948425292969
0.3050691604614258,0.3454948425292969
0.3034749984741211,0.3462867736816406
0.3034749984741211,0.3462867736816406
0.3045043945312500,0.3476766586303711
0.3045043945312500,0.3476766586303711
0.3059349060058594,0.3480760574340820
0.3059349060058594,0.3480760574340820
0.3031122207641602,0.3450571060180664
0.3031122207641602,0.3450571060180664
0.3061305999755859,0.3468080520629883
0.3061305999755859,0.3468080520629883
0.3047183990478515,0.3507740020751953
0.3047183990478515,0.3507740020751953
0.3055732727050781,0.3473957061767578
0.3055732727050781,0.3473957061767578
0.3066301345825195,0.3497400283813477
0.3066301345825195,0.3497400283813477
0.3037153244018554,0.3460973739624023
0.3037153244018554,0.3460973739624023
0.3067583084106445,0.3499111175537109
0.3067583084106445,0.3499111175537109
0.3040987014770508,0.3464275360107422
0.3040987014770508,0.3464275360107422
0.3026533126831055,0.3408840179443359
0.3026533126831055,0.3408840179443359
0.3012428283691406,0.3382965087890625
0.3012428283691406,0.3382965087890625
0.2966251373291016,0.3343311309814453
0.2966251373291016,0.3343311309814453
0.2979492187500000,0.3312555313110351
0.2979492187500000,0.3312555313110351
0.2943964004516602,0.3295875549316406
0.2943964004516602,0.3295875549316406
0.2941743850708008,0.3264106750488281
0.2941743850708008,0.3264106750488281
0.2949851989746093,0.3296396255493164
0.2949851989746093,0.3296396255493164
0.2915502548217773,0.3234386444091797
0.2915502548217773,0.3234386444091797
0.2942338943481445,0.3247953414916992
0.2942338943481445,0.3247953414916992
0.2916492462158203,0.3240200042724609
0.2916492462158203,0.3240200042724609
0.2923885345458984,0.3250665664672852
0.2923885345458984,0.3250665664672852
0.2933498382568359,0.3245515823364258
0.2933498382568359,0.3245515823364258
0.2899486541748047,0.3207664489746094
0.2899486541748047,0.3207664489746094
0.2928182601928711,0.3222358703613281
0.2928182601928711,0.3222358703613281
0.2908681869506836,0.3247856140136718
0.2908681869506836,0.3247856140136718
0.2915256500244141,0.3212007522583007
0.2915256500244141,0.3212007522583007
0.2925910949707031,0.3230667114257812
0.2925910949707031,0.3230667114257812
0.2893272399902344,0.3191122055053711
0.2893272399902344,0.3191122055053711
0.2927845001220703,0.3240737915039062
0.2927845001220703,0.3240737915039062
0.2910135269165039,0.3230546951293945
0.2910135269165039,0.3230546951293945
0.2917888641357422,0.3222444534301758
0.2920852661132812,0.3222444534301758
0.2931627273559570,0.3244726181030274
0.2931627273559570,0.3244726181030274
0.2908876419067383,0.3239999771118164
0.2908876419067383,0.3239999771118164
0.2941177368164062,0.3244411468505859
0.2941177368164062,0.3244411468505859
0.2922237396240234,0.3253126144409180
0.2922237396240234,0.3253126144409180
0.2929595947265625,0.3236114501953125
0.2929595947265625,0.3236114501953125
0.2944982528686523,0.3284906387329101
0.2944982528686523,0.3284906387329101
0.2917556762695312,0.3233619689941406
0.2917556762695312,0.3233619689941406
0.2946413040161133,0.3256221771240234
0.2946413040161133,0.3256221771240234
0.2925899505615234,0.3261320114135742
0.2936931610107422,0.3261320114135742
0.2937950134277343,0.3274646759033203
0.2937950134277343,0.3274646759033203
0.2951711654663086,0.3275653839111328
0.2951711654663086,0.3275653839111328
0.2925533294677734,0.3246294021606445
0.2925533294677734,0.3246294021606445
0.2953508377075195,0.3262550354003906
0.2953508377075195,0.3262550354003906
0.2936925888061523,0.3299348831176758
0.2936925888061523,0.3299348831176758
0.2948284149169922,0.3271585464477539
0.2948284149169922,0.3271585464477539
0.2959350585937500,0.3293849945068359
0.2959350585937500,0.3293849945068359
0.2933034896850586,0.3264221191406250
0.2933034896850586,0.3264221191406250
0.2968820571899414,0.3312257766723632
0.2968820571899414,0.3312257766723632
0.2949188232421875,0.3302118301391602
0.2967424392700195,0.3302118301391602
0.2960992813110351,0.3295721054077148
0.2960992813110351,0.3295721054077148
0.2972190856933594,0.3311834335327148
0.2972190856933594,0.3311834335327148
0.2951145172119141,0.3313236236572266
0.3000446319580078,0.3313236236572266
0.2983606338500976,0.3318740844726563
0.2963155746459961,0.3318740844726563
0.2974800109863281,0.3329475402832031
0.2987829208374023,0.3329475402832031
0.2974639892578125,0.3321458816528320
0.2974639892578125,0.3321458816528320
0.2991313934326172,0.3369169235229492
0.2991313934326172,0.3369169235229492
0.2968008041381836,0.3322202682495117
0.2968008041381836,0.3322202682495117
0.3000749588012695,0.3347986221313476
0.3000749588012695,0.3347986221313476
0.2977037429809570,0.3352054595947265
0.2977037429809570,0.3352054595947265
0.2994077682495117,0.3375394821166992
0.2994077682495117,0.3375394821166992
0.3008371353149414,0.3376504898071289
0.3008371353149414,0.3376504898071289
0.2982318878173828,0.3351081848144531
0.2982318878173828,0.3351081848144531
0.3013641357421875,0.3375377655029297
0.3013641357421875,0.3375377655029297
0.2995576858520508,0.3409029006958008
0.2995576858520508,0.3409029006958008
0.3010162353515625,0.3383188247680664
0.3010162353515625,0.3383188247680664
0.3024015426635742,0.3405017852783203
0.3024015426635742,0.3405017852783203
0.2997047424316406,0.3372407913208008
0.2997047424316406,0.3372407913208008
0.3032197952270508,0.3426504135131836
0.3032197952270508,0.3426504135131836
0.3011255264282227,0.3414831161499023
0.3011255264282227,0.3414831161499023
0.3022264480590820,0.3410596847534180
0.3022264480590820,0.3410596847534180
0.3035121917724609,0.3427803039550781
0.3035121917724609,0.3427803039550781
0.3014225006103515,0.3426544189453125
0.3014225006103515,0.3426544189453125
0.3046634674072266,0.3430223464965820
0.3046634674072266,0.3430223464965820
0.3023929595947266,0.3438777923583984
0.3023929595947266,0.3438777923583984
0.3034767150878906,0.3425050735473633
0.3034767150878906,0.3425050735473633
0.3050462722778320,0.3474288940429687
0.3050462722778320,0.3474288940429687
0.3027013778686523,0.3426441192626953
0.3027013778686523,0.3426441192626953
0.3055395126342773,0.3451086044311523
0.3055395126342773,0.3451086044311523
0.3031602859497070,0.3457798004150390
0.3031602859497070,0.3457798004150390
0.3049381256103516,0.3476434707641601
0.3049381256103516,0.3476434707641601
0.3061277389526367,0.3475124359130859
0.3061277389526367,0.3475124359130859
0.3039087295532226,0.3448390960693359
0.3039087295532226,0.3448390960693359
0.3067274093627930,0.3465934753417969
0.3039905548095703,0.3465934753417969
0.3047166824340820,0.3503070831298828
0.3047166824340820,0.3503070831298828
0.3061357498168945,0.3476337432861328
0.3061357498168945,0.3476337432861328
0.3070850372314453,0.3495048522949218
0.3070850372314453,0.3495048522949218
0.3045810699462890,0.3462461471557617
0.3045810699462890,0.3462461471557617
0.3077167510986328,0.3504398345947266
0.3077167510986328,0.3504398345947266
0.3046445846557617,0.3476966857910156
0.3046445846557617,0.3476966857910156
0.3047018051147461,0.3440803527832031
0.3047018051147461,0.3440803527832031
0.3030326843261719,0.3402328491210938
0.3030326843261719,0.3402328491210938
0.2985557556152343,0.3361095428466797
0.2985557556152343,0.3361095428466797
0.2996292114257812,0.3327964782714843
0.2996292114257812,0.3327964782714843
0.2951282501220703,0.3304790496826172
0.2951282501220703,0.3304790496826172
0.2952049255371094,0.3274515151977539
0.2952049255371094,0.3274515151977539
0.2957302093505859,0.3299097061157226
0.2957302093505859,0.3299097061157226
0.2926992416381836,0.3239084243774414
0.2926992416381836,0.3239084243774414
0.2952850341796875,0.3253561019897461
0.2952850341796875,0.3253561019897461
0.2919891357421875,0.3244983673095703
0.2919891357421875,0.3244983673095703
0.2933847427368164,0.3259969711303711
0.2933847427368164,0.3259969711303711
0.2941926956176757,0.3251157760620117
0.2941926956176757,0.3251157760620117
0.2913213729858398,0.3217620849609375
0.2913213729858398,0.3217620849609375
0.2940593719482422,0.3233945846557617
0.2940593719482422,0.3233945846557617
0.2914741516113281,0.3257514953613281
0.2914741516113281,0.3257514953613281
0.2928371429443359,0.3228023529052734
0.2928371429443359,0.3228023529052734
0.2937726974487305,0.3242586135864258
0.2937726974487305,0.3242586135864258
0.2928823471069336,0.3243072509765625
0.2924228668212890,0.3243072509765625
0.2926465988159180,0.3215480804443359
0.2926465988159180,0.3215480804443359
0.2947139739990234,0.3254413604736328
0.2947139739990234,0.3254413604736328
0.2915714263916016,0.3200397491455078
0.2915714263916016,0.3200397491455078
0.2950321197509765,0.3248954772949219
0.2950321197509765,0.3248954772949219
0.2945749282836914,0.3277753829956054
0.2945749282836914,0.3277753829956054
0.2942001342773438,0.3241739273071289
0.2957571029663086,0.3241739273071289
0.2960432052612305,0.3237276077270508
0.2960432052612305,0.3237276077270508
0.2928995132446289,0.3267156600952149
0.2928995132446289,0.3267156600952149
0.2964740753173828,0.3269348144531250
0.2964740753173828,0.3269348144531250
0.2954235076904297,0.3285781860351563
0.2954235076904297,0.3285781860351563
0.2947763442993164,0.3213197708129883
0.2947763442993164,0.3213197708129883
0.2966920852661133,0.3293849945068359
0.2966920852661133,0.3293849945068359
0.2938837051391601,0.3287956237792969
0.2938837051391601,0.3287956237792969
0.2972522735595703,0.3281621932983398
0.2972522735595703,0.3281621932983398
0.2961112976074219,0.3257932662963867
0.2961112976074219,0.3257932662963867
0.2957353591918945,0.3273221969604492
0.2957353591918945,0.3273221969604492
0.2980470657348633,0.3314071655273437
0.2980470657348633,0.3314071655273437
0.2949182510375977,0.3300413131713867
0.2949182510375977,0.3300413131713867
0.2982381820678711,0.3261886596679687
0.2982381820678711,0.3261886596679687
0.2974662780761719,0.3326808929443359
0.2974662780761719,0.3326808929443359
0.2974634170532227,0.3307085037231445
0.2974634170532227,0.3307085037231445
0.2996051788330078,0.3340393066406250
0.2996051788330078,0.3340393066406250
0.2963396072387695,0.3287269592285156
0.2963396072387695,0.3287269592285156
0.3001401901245117,0.3336977005004882
0.3001401901245117,0.3336977005004882
0.2995159149169922,0.3361038208007812
0.2995159149169922,0.3361038208007812
0.2992074966430664,0.3333406448364258
0.2992074966430664,0.3333406448364258
0.3013355255126953,0.3331489562988281
0.3013355255126953,0.3331489562988281
0.2982192993164062,0.3366399765014648
0.2982192993164062,0.3366399765014648
0.3022676467895508,0.3379611968994141
0.3022676467895508,0.3379611968994141
0.3012828826904297,0.3392618179321289
0.3012828826904297,0.3392618179321289
0.3008571624755859,0.3321802139282227
0.3008571624755859,0.3321802139282227
0.3030572891235351,0.3405670166015625
0.3030572891235351,0.3405670166015625
0.3001178741455078,0.3397367477416992
0.3001178741455078,0.3397367477416992
0.3037462234497070,0.3399570465087891
0.3037462234497070,0.3399570465087891
0.3025943756103516,0.3375703811645508
0.3025943756103516,0.3375703811645508
0.3022642135620117,0.3393396377563476
0.3022642135620117,0.3393396377563476
0.3046451568603515,0.3439247131347656
0.3046451568603515,0.3439247131347656
0.3013458251953125,0.3420215606689453
0.3013458251953125,0.3420215606689453
0.3048597335815429,0.3379732131958008
0.3048597335815429,0.3379732131958008
0.3039236068725586,0.3444505691528320
0.3039236068725586,0.3444505691528320
0.3038646697998047,0.3418659210205078
0.3038646697998047,0.3418659210205078
0.3059583663940429,0.3455280303955078
0.3059583663940429,0.3455280303955078
0.3023906707763672,0.3398134231567383
0.3023906707763672,0.3398134231567383
0.3060413360595703,0.3447086334228516
0.3060413360595703,0.3447086334228516
0.3053049087524414,0.3473642349243164
0.3053049087524414,0.3473642349243164
0.3048299789428711,0.3436203002929688
0.3048299789428711,0.3436203002929688
0.3067880630493164,0.3428958892822265
0.3067880630493164,0.3428958892822265
0.3033771514892578,0.3461769104003906
0.3033771514892578,0.3461769104003906
0.3073837280273438,0.3466878890991211
0.3073837280273438,0.3466878890991211
0.3062639236450195,0.3483615875244140
0.3062639236450195,0.3483615875244140
0.3056945800781250,0.3411014556884766
0.3056945800781250,0.3411014556884766
0.3078912734985351,0.3494173049926758
0.3078912734985351,0.3494173049926758
0.3047595977783203,0.3491260528564453
0.3047595977783203,0.3491260528564453
0.3086374282836914,0.3486482620239258
0.3086374282836914,0.3486482620239258
0.3073047637939453,0.3460893630981445
0.3073047637939453,0.3460893630981445
0.3069282531738281,0.3477184295654297
0.3069282531738281,0.3477184295654297
0.3093469619750976,0.3517095565795899
0.3062370300292969,0.3517095565795899
0.3058341979980468,0.3502578735351562
0.3058341979980468,0.3502578735351562
0.3093194961547852,0.3459714889526367
0.3093194961547852,0.3459714889526367
0.3080417633056641,0.3520431518554688
0.3080417633056641,0.3520431518554688
0.3076572418212891,0.3491157531738281
0.3076572418212891,0.3491157531738281
0.3089120864868164,0.3503465652465820
0.3089120864868164,0.3503465652465820
0.3040397644042969,0.3420335769653320
0.3040397644042969,0.3420335769653320
0.3055292129516601,0.3420158386230469
0.3055292129516601,0.3420158386230469
0.3018196105957031,0.3392618179321289
0.3018196105957031,0.3392618179321289
0.2993488311767578,0.3326053619384766
0.2995004653930664,0.3326053619384766
0.2995937347412109,0.3291040420532226
0.2995937347412109,0.3291040420532226
0.2949234008789062,0.3301666259765625
0.2949234008789062,0.3301666259765625
0.2981300354003906,0.3298027038574219
0.2981300354003906,0.3298027038574219
0.2963430404663086,0.3297380447387695
0.2963430404663086,0.3297380447387695
0.2953142166137695,0.3218313217163086
0.2953142166137695,0.3218313217163086
0.2971652984619140,0.3291566848754883
0.2971652984619140,0.3291566848754883
0.2936925888061523,0.3275659561157226
0.2936925888061523,0.3275659561157226
0.2972482681274414,0.3273925781250000
0.2972482681274414,0.3273925781250000
0.2956512451171875,0.3246431350708008
0.2956512451171875,0.3246431350708008
0.2951093673706054,0.3256782531738281
0.2951093673706054,0.3256782531738281
0.2974834442138672,0.3298913955688477
0.2974834442138672,0.3298913955688477
0.2938997268676758,0.3279121398925781
0.2975955963134765,0.3241596221923828
0.2964809417724609,0.3305059432983398
0.2964809417724609,0.3305059432983398
0.2966234207153320,0.3280855178833008
0.2966234207153320,0.3280855178833008
0.2989459991455078,0.3318740844726563
0.2989459991455078,0.3318740844726563
0.2952741622924804,0.3265909194946289
0.2952741622924804,0.3265909194946289
0.2991600036621094,0.3314970016479492
0.2991600036621094,0.3314970016479492
0.2982988357543945,0.3339397430419922
0.2982988357543945,0.3339397430419922
0.2979543685913086,0.3300338745117187
0.2979543685913086,0.3300338745117187
0.2997287750244140,0.3291400909423828
0.2997287750244140,0.3291400909423828
0.2960266113281250,0.3320898056030273
0.2960266113281250,0.3320898056030273
0.3001144409179687,0.3325052261352539
0.3001144409179687,0.3325052261352539
0.2987125396728516,0.3338670730590820
0.2987125396728516,0.3338670730590820
0.2981094360351562,0.3263877868652343
0.2981094360351562,0.3263877868652343
0.3001733779907226,0.3344215393066406
0.3001733779907226,0.3344215393066406
0.2968843460083008,0.3339242935180664
0.2968843460083008,0.3339242935180664
0.3007398605346679,0.3335592269897461
0.3007398605346679,0.3335592269897461
0.2992635726928711,0.3309316635131836
0.2992635726928711,0.3309316635131836
0.2990810394287109,0.3326253890991211
0.2990810394287109,0.3326253890991211
0.3015890121459961,0.3365438461303711
0.3015890121459961,0.3365438461303711
0.2980768203735352,0.3352746963500977
0.2980768203735352,0.3352746963500977
0.3018287658691406,0.3316949844360351
0.3018287658691406,0.3316949844360351
0.3007450103759766,0.3380241394042969
0.3007450103759766,0.3380241394042969
0.3009132385253906,0.3361490249633789
0.3009132385253906,0.3361490249633789
0.3032850265502929,0.3393253326416015
0.3032850265502929,0.3393253326416015
0.2995290756225586,0.3339277267456054
0.2995290756225586,0.3339277267456054
0.3036317825317383,0.3392417907714844
0.3036317825317383,0.3392417907714844
0.3027969360351562,0.3413372039794922
0.3027969360351562,0.3413372039794922
0.3027311325073242,0.3384515762329102
0.3027311325073242,0.3384515762329102
0.3045661926269531,0.3378387451171875
0.3045661926269531,0.3378387451171875
0.3010625839233398,0.3412782669067383
0.3010625839233398,0.3412782669067383
0.3053741455078125,0.3427688598632813
0.3053741455078125,0.3427688598632813
0.3042606353759765,0.3436952590942383
0.3042606353759765,0.3436952590942383
0.3037427902221679,0.3365238189697266
0.3037427902221679,0.3365238189697266
0.3059206008911133,0.3446868896484375
0.3059206008911133,0.3446868896484375
0.3026687622070313,0.3437307357788086
0.3026687622070313,0.3437307357788086
0.3067165374755859,0.3441495895385742
0.3067165374755859,0.3441495895385742
0.3051052093505859,0.3414098739624024
0.3051052093505859,0.3414098739624024
0.3049278259277344,0.3432111740112305
0.3049278259277344,0.3432111740112305
0.3073619842529297,0.3475553512573242
0.3073619842529297,0.3475553512573242
0.3038429260253906,0.3454238891601563
0.3038429260253906,0.3454238891601563
0.3075147628784179,0.3416296005249023
0.3075147628784179,0.3416296005249023
0.3061677932739258,0.3477710723876953
0.3061677932739258,0.3477710723876953
0.3062284469604492,0.3450313568115234
0.3062284469604492,0.3450313568115234
0.3083845138549804,0.3484657287597656
0.3083845138549804,0.3484657287597656
0.3045124053955078,0.3427173614501953
0.3045124053955078,0.3427173614501953
0.3083747863769531,0.3479318618774414
0.3083747863769531,0.3479318618774414
0.3074380874633789,0.3503242492675781
0.3074380874633789,0.3503242492675781
0.3072452545166016,0.3467548370361328
0.3081602096557617,0.3467548370361328
0.3091163635253906,0.3459360122680664
0.3091163635253906,0.3459360122680664
0.3055606842041015,0.3491357803344726
0.3055606842041015,0.3491357803344726
0.3098144531250000,0.3500593185424805
0.3073837280273438,0.3500593185424805
0.3086254119873047,0.3515081405639648
0.3086254119873047,0.3515081405639648
0.3080772399902343,0.3441970825195312
0.3080772399902343,0.3441970825195312
0.3103071212768554,0.3523664474487305
0.3103071212768554,0.3523664474487305
0.3069253921508789,0.3517742156982422
0.3069253921508789,0.3517742156982422
0.3108226776123047,0.3513410568237305
0.3108226776123047,0.3513410568237305
0.3087833404541016,0.3476886749267578
0.3087833404541016,0.3476886749267578
0.3078323364257812,0.3479433059692383
0.3078323364257812,0.3479433059692383
0.3090202331542969,0.3487775802612305
0.3090202331542969,0.3487775802612305
0.3029039382934570,0.3421016693115234
0.3029039382934570,0.3421016693115234
0.3039402008056640,0.3342063903808594
0.3039402008056640,0.3342063903808594
0.3006591796875000,0.3365884780883789
0.3006591796875000,0.3365884780883789
0.2989946365356445,0.3315713882446289
0.2989946365356445,0.3315713882446289
0.2999227523803711,0.3319959640502930
0.2999227523803711,0.3319959640502930
0.2950017929077148,0.3246276855468750
0.2950017929077148,0.3246276855468750
0.2982175827026367,0.3284460067749023
0.2982175827026367,0.3284460067749023
0.2966125488281250,0.3291040420532226
0.2966125488281250,0.3291040420532226
0.2960426330566406,0.3253114700317383
0.2960426330566406,0.3253114700317383
0.2972997665405273,0.3237281799316406
0.2972997665405273,0.3237281799316406
0.2933784484863281,0.3260221481323242
0.2933784484863281,0.3260221481323242
0.2948055267333984,0.3244640350341797
0.2948055267333984,0.3244640350341797
0.2937463760375976,0.3263013839721680
0.2948186874389648,0.3263013839721680
0.2932817459106445,0.3251564025878906
0.2932817459106445,0.3251564025878906
0.2954641342163086,0.3272483825683594
0.2954641342163086,0.3272483825683594
0.2961959838867188,0.3267820358276367
0.2961959838867188,0.3267820358276367
0.2944679260253906,0.3240789413452148
0.2944679260253906,0.3240789413452148
0.2968420028686523,0.3263769149780273
0.2968420028686523,0.3263769149780273
0.2940507888793945,0.3288259506225586
0.2940507888793945,0.3288259506225586
0.2963499069213867,0.3269193649291992
0.2963499069213867,0.3269193649291992
0.2973272323608399,0.3288740158081054
0.2973272323608399,0.3288740158081054
0.2956809997558594,0.3256679534912109
0.2956809997558594,0.3256679534912109
0.2985277175903320,0.3310798645019531
0.2985277175903320,0.3310798645019531
0.2953845977783203,0.3290863037109375
0.2953845977783203,0.3290863037109375
0.2972774505615234,0.3288167953491211
0.2972774505615234,0.3288167953491211
0.2979360580444336,0.3302192687988281
0.2979360580444336,0.3302192687988281
0.2968242645263672,0.3297472000122070
0.2968242645263672,0.3297472000122070
0.2991628646850586,0.3301832199096680
0.2991628646850586,0.3301832199096680
0.2959241867065430,0.3301603317260742
0.2959241867065430,0.3301603317260742
0.2977272033691406,0.3290697097778320
0.2977272033691406,0.3290697097778320
0.2988040924072266,0.3336742401123047
0.2988040924072266,0.3336742401123047
0.2975978851318359,0.3290714263916015
0.2975978851318359,0.3290714263916015
0.2997997283935547,0.3316629409790039
0.2997997283935547,0.3316629409790039
0.2965467453002930,0.3315078735351563
0.2965467453002930,0.3315078735351563
0.2990581512451172,0.3337446212768554
0.2990581512451172,0.3337446212768554
0.2999582290649414,0.3336959838867187
0.2999582290649414,0.3336959838867187
0.2988521575927734,0.3312904357910156
0.2988521575927734,0.3312904357910156
0.3009401321411133,0.3332611083984375
0.3009401321411133,0.3332611083984375
0.2981454849243164,0.3361867904663086
0.2981454849243164,0.3361867904663086
0.3004978179931641,0.3342332839965820
0.3004978179931641,0.3342332839965820
0.3011598587036133,0.3361890792846680
0.3011598587036133,0.3361890792846680
0.2999444961547851,0.3335821151733399
0.2999444961547851,0.3335821151733399
0.3026435852050781,0.3386095046997070
0.3026435852050781,0.3386095046997070
0.2996320724487305,0.3368814468383789
0.2996320724487305,0.3368814468383789
0.3019660949707031,0.3369501113891601
0.3009052276611328,0.3369501113891601
0.3025812149047851,0.3382312774658203
0.3025812149047851,0.3382312774658203
0.3017967224121094,0.3386529922485351
0.3017967224121094,0.3386529922485351
0.3043052673339844,0.3395805358886719
0.3043052673339844,0.3395805358886719
0.3010196685791016,0.3398145675659179
0.3010196685791016,0.3398145675659179
0.3032781600952149,0.3395702362060547
0.3032781600952149,0.3395702362060547
0.3044597625732422,0.3439384460449219
0.3044597625732422,0.3439384460449219
0.3033679962158203,0.3394620895385742
0.3033679962158203,0.3394620895385742
0.3057861328125000,0.3422744750976562
0.3057861328125000,0.3422744750976562
0.3022436141967773,0.3414333343505859
0.3022436141967773,0.3414333343505859
0.3048688888549805,0.3441358566284179
0.3048688888549805,0.3441358566284179
0.3056533813476562,0.3439001083374023
0.3056533813476562,0.3439001083374023
0.3041410446166992,0.3411529541015625
0.3041410446166992,0.3411529541015625
0.3060619354248047,0.3430675506591797
0.3060619354248047,0.3430675506591797
0.3026756286621093,0.3438360214233399
0.3026756286621093,0.3438360214233399
0.3035722732543945,0.3388795852661133
0.3035722732543945,0.3388795852661133
0.3024662017822266,0.3373134613037109
0.3024662017822266,0.3373134613037109
0.2992080688476562,0.3307617187500000
0.2992080688476562,0.3307617187500000
0.3000841140747070,0.3333984375000000
0.3000841140747070,0.3333984375000000
0.2955905914306641,0.3288574218750000
0.2955905914306641,0.3288574218750000
0.2964735031127930,0.3267408370971679
0.2964735031127930,0.3267408370971679
0.2962806701660156,0.3269325256347656
0.2962806701660156,0.3269325256347656
0.2948661804199219,0.3253606796264648
0.2948661804199219,0.3253606796264648
0.2965312957763672,0.3253126144409180
0.2965312957763672,0.3253126144409180
0.2930963516235351,0.3242191314697265
0.2930963516235351,0.3242191314697265
0.2945343017578125,0.3226467132568359
0.2945343017578125,0.3226467132568359
0.2952564239501953,0.3266790390014648
0.2952564239501953,0.3266790390014648
0.2938631057739258,0.3215251922607422
0.2938631057739258,0.3215251922607422
0.2955585479736328,0.3238174438476563
0.2955585479736328,0.3238174438476563
0.2920984268188476,0.3229940414428711
0.2920984268188476,0.3229940414428711
0.2944581985473633,0.3246299743652344
0.2944581985473633,0.3246299743652344
0.2950143814086914,0.3243753433227539
0.2950143814086914,0.3243753433227539
0.2939998626708984,0.3217060089111328
0.2939998626708984,0.3217060089111328
0.2958892822265625,0.3239582061767578
0.2958892822265625,0.3239582061767578
0.2932771682739257,0.3267173767089844
0.2932771682739257,0.3267173767089844
0.2956638336181641,0.3248462677001953
0.2956638336181641,0.3248462677001953
0.2962921142578125,0.3271179199218750
0.2962921142578125,0.3271179199218750
0.2953479766845703,0.3244783401489258
0.2953479766845703,0.3244783401489258
0.2978908538818359,0.3296361923217773
0.2978908538818359,0.3296361923217773
0.2947895050048828,0.3274463653564453
0.2947895050048828,0.3274463653564453
0.2970090866088867,0.3271951675415039
0.2970090866088867,0.3271951675415039
0.2972820281982422,0.3281604766845703
0.2972820281982422,0.3281604766845703
0.2965278625488281,0.3281879425048828
0.2965278625488281,0.3281879425048828
0.2985717773437500,0.3290073394775391
0.2985717773437500,0.3290073394775391
0.2952507019042969,0.3286119461059570
0.2952507019042969,0.3286119461059570
0.2973649978637695,0.3280580520629883
0.2973649978637695,0.3280580520629883
0.2982942581176758,0.3322219848632812
0.2982942581176758,0.3322219848632812
0.2974250793457031,0.3276792526245117
0.2974250793457031,0.3276792526245117
0.2994598388671875,0.3305923461914063
0.2994598388671875,0.3305923461914063
0.2960798263549805,0.3296344757080078
0.2960798263549805,0.3296344757080078
0.2987497329711914,0.3323347091674805
0.2987497329711914,0.3323347091674805
0.2995513916015625,0.3325366973876953
0.2995513916015625,0.3325366973876953
0.2985248565673828,0.3300258636474609
0.2985248565673828,0.3300258636474609
0.3005985260009765,0.3330053329467773
0.3005985260009765,0.3330053329467773
0.2979990005493164,0.3352220535278320
0.2979990005493164,0.3352220535278320
0.3003845214843750,0.3332576751708984
0.3003845214843750,0.3332576751708984
0.3011878967285156,0.3354154586791992
0.3011878967285156,0.3354154586791992
0.3000509262084961,0.3321504592895508
0.3000509262084961,0.3321504592895508
0.3024902343750000,0.3382095336914062
0.3024902343750000,0.3382095336914062
0.2995382308959961,0.3361032485961914
0.2995382308959961,0.3361032485961914
0.3016376495361328,0.3360866546630859
0.3016376495361328,0.3360866546630859
0.3024175643920898,0.3380218505859375
0.3024175643920898,0.3380218505859375
0.3019414901733398,0.3378227233886719
0.3019414901733398,0.3378227233886719
0.3040735244750977,0.3391456604003906
0.3040735244750977,0.3391456604003906
0.3011535644531250,0.3389408111572266
0.3011535644531250,0.3389408111572266
0.3031986236572266,0.3380928039550781
0.3031986236572266,0.3380928039550781
0.3042240142822266,0.3432031631469726
0.3042240142822266,0.3432031631469726
0.3035116195678711,0.3385614395141601
0.3035116195678711,0.3385614395141601
0.3052602767944336,0.3417354583740234
0.3052602767944336,0.3417354583740234
0.3022344589233398,0.3412181854248047
0.3022344589233398,0.3412181854248047
0.3048683166503906,0.3432981491088867
0.3048683166503906,0.3432981491088867
0.3055257797241211,0.3433376312255859
0.3055257797241211,0.3433376312255859
0.3045381546020507,0.3401985168457031
0.3045381546020507,0.3401985168457031
0.3057563781738281,0.3414979934692383
0.3057563781738281,0.3414979934692383
0.3018894195556641,0.3415340423583984
0.3018894195556641,0.3415340423583984
0.3020936965942383,0.3351642608642578
0.3020936965942383,0.3351642608642578
0.3002935409545898,0.3334321975708008
0.3002935409545898,0.3334321975708008
0.2973129272460938,0.3267963409423828
0.2973129272460938,0.3267963409423828
0.2977432250976562,0.3291435241699219
0.2943609237670898,0.3291435241699219
0.2934013366699219,0.3244554519653320
0.2934013366699219,0.3244554519653320
0.2946985244750976,0.3223960876464844
0.2946985244750976,0.3223960876464844
0.2942247390747070,0.3223400115966797
0.2922151565551758,0.3223400115966797
0.2930608749389648,0.3211074829101562
0.2930608749389648,0.3211074829101562
0.2944358825683593,0.3215068817138672
0.2944358825683593,0.3215068817138672
0.2907606124877929,0.3201696395874024
0.2907606124877929,0.3201696395874024
0.2925653457641602,0.3188993453979492
0.2925653457641602,0.3188993453979492
0.2930408477783203,0.3224613189697266
0.2930408477783203,0.3224613189697266
0.2919296264648437,0.3171260833740234
0.2919296264648437,0.3171260833740234
0.2934843063354492,0.3197204589843750
0.2934843063354492,0.3197204589843750
0.2898902893066406,0.3178922653198242
0.2898902893066406,0.3178922653198242
0.2921728134155273,0.3198280334472656
0.2921728134155273,0.3198280334472656
0.2926254272460938,0.3197702407836914
0.2926254272460938,0.3197702407836914
0.2915136337280274,0.3167112350463867
0.2915136337280274,0.3167112350463867
0.2932594299316406,0.3198835372924805
0.2932594299316406,0.3198835372924805
0.2906621932983398,0.3216499328613281
0.2906621932983398,0.3216499328613281
0.2931444168090820,0.3197793960571289
0.2931444168090820,0.3197793960571289
0.2939008712768554,0.3221111297607422
0.2939008712768554,0.3221111297607422
0.2928245544433594,0.3186126708984375
0.2928245544433594,0.3186126708984375
0.2950607299804687,0.3247638702392578
0.2950607299804687,0.3247638702392578
0.2921087265014649,0.3222444534301758
0.2921087265014649,0.3222444534301758
0.2941646575927734,0.3218725204467773
0.2928520202636719,0.3218725204467773
0.2946252822875977,0.3236623764038086
0.2929533004760742,0.3236623764038086
0.2940702438354492,0.3228498458862304
0.2975955963134765,0.3228498458862304
0.2958618164062500,0.3241767883300781
0.2958618164062500,0.3241767883300781
0.2928812026977539,0.3235067367553711
0.2928812026977539,0.3235067367553711
0.2948329925537109,0.3223371505737305
0.2948329925537109,0.3223371505737305
0.2957153320312500,0.3272804260253906
0.2957153320312500,0.3272804260253906
0.2949789047241211,0.3224601745605469
0.2949789047241211,0.3224601745605469
0.2966096878051758,0.3259466171264648
0.2966096878051758,0.3259466171264648
0.2936462402343750,0.3252210617065430
0.2936462402343750,0.3252210617065430
0.2963235855102539,0.3272214889526367
0.2963235855102539,0.3272214889526367
0.2970531463623047,0.3277004241943359
0.2970531463623047,0.3277004241943359
0.2963693618774414,0.3249195098876953
0.2963693618774414,0.3249195098876953
0.2978971481323242,0.3277891159057617
0.2978971481323242,0.3277891159057617
0.2954154968261719,0.3301437377929687
0.2954154968261719,0.3301437377929687
0.2979057312011719,0.3281124114990234
0.2979057312011719,0.3281124114990234
0.2983789443969727,0.3305070877075195
0.2983789443969727,0.3305070877075195
0.2976757049560547,0.3276288986206055
0.3010305404663086,0.3276288986206055
0.2972322463989258,0.3333715438842773
0.2983812332153320,0.3333715438842773
0.2969839096069336,0.3309871673583984
0.2969839096069336,0.3309871673583984
0.2995016098022461,0.3309093475341797
0.2995016098022461,0.3309093475341797
0.2997711181640625,0.3324571609497070
0.2997711181640625,0.3324571609497070
0.2995353698730469,0.3325057983398437
0.2995353698730469,0.3325057983398437
0.3013841629028320,0.3342618942260742
0.3013841629028320,0.3342618942260742
0.2983840942382812,0.3339580535888672
0.2983840942382812,0.3339580535888672
0.3007066726684570,0.3337154388427734
0.3007066726684570,0.3337154388427734
0.3017795562744141,0.3383966445922851
0.3017795562744141,0.3383966445922851
0.3012582778930664,0.3337709426879883
0.3012582778930664,0.3337709426879883
0.3031414031982422,0.3374330520629883
0.3031414031982422,0.3374330520629883
0.3000377655029297,0.3361089706420898
0.3000377655029297,0.3361089706420898
0.3026796340942383,0.3387170791625976
0.3026796340942383,0.3387170791625976
0.3032890319824219,0.3391250610351562
0.3032890319824219,0.3391250610351562
0.3024141311645508,0.3360671997070312
0.3024141311645508,0.3360671997070312
0.3040145874023437,0.3392744064331055
0.3040145874023437,0.3392744064331055
0.3012662887573242,0.3403764724731445
0.3012662887573242,0.3403764724731445
0.3030246734619140,0.3368968963623047
0.3030246734619140,0.3368968963623047
0.3022888183593750,0.3363298416137695
0.3022888183593750,0.3363298416137695
0.2992292404174804,0.3289112091064453
0.2992292404174804,0.3289112091064453
0.2993940353393554,0.3319810867309570
0.2993940353393554,0.3319810867309570
0.2947792053222656,0.3261823654174805
0.2947792053222656,0.3261823654174805
0.2953708648681641,0.3233854293823242
0.2953708648681641,0.3233854293823242
0.2946350097656250,0.3234546661376953
0.2946350097656250,0.3234546661376953
0.2934247970581055,0.3210273742675781
0.2934247970581055,0.3210273742675781
0.2944953918457031,0.3216762542724609
0.2944953918457031,0.3216762542724609
0.2911056518554687,0.3199710845947266
0.2911056518554687,0.3199710845947266
0.2926986694335937,0.3181663513183594
0.2926986694335937,0.3181663513183594
0.2931592941284180,0.3225591659545898
0.2931592941284180,0.3225591659545898
0.2922443389892578,0.3169921875000000
0.2922443389892578,0.3169921875000000
0.2934259414672851,0.3201696395874024
0.2934259414672851,0.3201696395874024
0.2902433395385742,0.3188329696655273
0.2902433395385742,0.3188329696655273
0.2926322937011719,0.3202966690063476
0.2926322937011719,0.3202966690063476
0.2931009292602539,0.3205455780029297
0.2931009292602539,0.3205455780029297
0.2924497604370117,0.3173223495483398
0.2956827163696289,0.3173223495483398
0.2938150405883789,0.3204111099243164
0.2938150405883789,0.3204111099243164
0.2914981842041016,0.3226375579833984
0.2914981842041016,0.3226375579833984
0.2939048767089844,0.3208225250244141
0.2939048767089844,0.3208225250244141
0.2944908142089844,0.3233842849731445
0.2944908142089844,0.3233842849731445
0.2938385009765625,0.3202983856201172
0.2938385009765625,0.3202983856201172
0.2958847045898437,0.3262847900390625
0.2958847045898437,0.3262847900390625
0.2931495666503906,0.3236366271972656
0.2931495666503906,0.3236366271972656
0.2954172134399414,0.3232509613037109
0.2954172134399414,0.3232509613037109
0.2954767227172851,0.3246002197265625
0.2954767227172851,0.3246002197265625
0.2950584411621094,0.3239891052246094
0.2950584411621094,0.3239891052246094
0.2966537475585938,0.3256931304931641
0.2966537475585938,0.3256931304931641
0.2935873031616211,0.3247404098510742
0.2935873031616211,0.3247404098510742
0.2957427978515625,0.3242391586303711
0.2957427978515625,0.3242391586303711
0.2965032577514649,0.3286691665649414
0.2965032577514649,0.3286691665649414
0.2958681106567383,0.3236143112182617
0.2958681106567383,0.3236143112182617
0.2976665496826172,0.3274417877197265
0.2976665496826172,0.3274417877197265
0.2945434570312500,0.3259975433349609
0.2945434570312500,0.3259975433349609
0.2972923278808594,0.3285547256469726
0.2972923278808594,0.3285547256469726
0.2979417800903320,0.3292568206787109
0.2975366592407226,0.3292568206787109
0.2972688674926758,0.3263013839721680
0.2972688674926758,0.3263013839721680
0.2989448547363281,0.3301334381103516
0.2989448547363281,0.3301334381103516
0.2965770721435547,0.3317934036254883
0.2965770721435547,0.3317934036254883
0.2990163803100586,0.3299932479858398
0.2990163803100586,0.3299932479858398
0.2997756958007812,0.3326293945312500
0.2997756958007812,0.3326293945312500
0.2989505767822265,0.3288820266723633
0.2989505767822265,0.3288820266723633
0.3011346817016601,0.3358777999877929
0.3011346817016601,0.3358777999877929
0.2984825134277344,0.3332502365112305
0.2984825134277344,0.3332502365112305
0.3006454467773437,0.3331729888916016
0.3006454467773437,0.3331729888916016
0.3011026382446289,0.3355350494384766
0.3011026382446289,0.3355350494384766
0.3010196685791016,0.3346864700317383
0.3010196685791016,0.3346864700317383
0.3027666091918945,0.3368637084960938
0.3027666091918945,0.3368637084960938
0.3001676559448242,0.3363264083862305
0.3029554367065430,0.3363264083862305
0.3021657943725586,0.3353662490844727
0.3021657943725586,0.3353662490844727
0.3030652999877930,0.3407094955444336
0.3030652999877930,0.3407094955444336
0.3025812149047851,0.3356786727905273
0.3025812149047851,0.3356786727905273
0.3041793823242188,0.3397287368774414
0.3041793823242188,0.3397287368774414
0.3013372421264648,0.3388921737670899
0.3013372421264648,0.3388921737670899
0.3039556503295898,0.3409475326538086
0.3039556503295898,0.3409475326538086
0.3044540405273438,0.3414779663085937
0.3044540405273438,0.3414779663085937
0.3040386199951172,0.3381780624389648
0.3040386199951172,0.3381780624389648
0.3052900314331055,0.3412731170654297
0.3052900314331055,0.3412731170654297
0.3028392791748047,0.3431373596191406
0.3028392791748047,0.3431373596191406
0.3050062179565430,0.3405069351196289
0.3050062179565430,0.3405069351196289
0.3047859191894531,0.3420576095581054
0.3047859191894531,0.3420576095581054
0.3032186508178711,0.3366067886352539
0.3032186508178711,0.3366067886352539
0.3033376693725586,0.3388412475585937
0.3033376693725586,0.3388412475585937
0.2982175827026367,0.3320091247558594
0.2982175827026367,0.3320091247558594
0.2984939575195312,0.3282806396484375
0.2984939575195312,0.3282806396484375
0.2969032287597656,0.3269542694091797
0.2969032287597656,0.3269542694091797
0.2953308105468750,0.3241464614868164
0.2953308105468750,0.3241464614868164
0.2960197448730469,0.3245578765869140
0.2960197448730469,0.3245578765869140
0.2924486160278320,0.3225357055664063
0.2924486160278320,0.3225357055664063
0.2941234588623047,0.3213083267211914
0.2923152923583984,0.3213083267211914
0.2944593429565430,0.3252599716186523
0.2944593429565430,0.3252599716186523
0.2937698364257812,0.3195991516113281
0.2937698364257812,0.3195991516113281
0.2952455520629882,0.3231376647949218
0.2952455520629882,0.3231376647949218
0.2919708251953125,0.3211492538452148
0.2919708251953125,0.3211492538452148
0.2943964004516602,0.3234243392944336
0.2943964004516602,0.3234243392944336
0.2947608947753906,0.3238958358764648
0.2947608947753906,0.3238958358764648
0.2941217422485352,0.3206434249877930
0.2941217422485352,0.3206434249877930
0.2957193374633789,0.3245859146118164
0.2957193374633789,0.3245859146118164
0.2934717178344726,0.3263196945190430
0.2934717178344726,0.3263196945190430
0.2959945678710937,0.3245315551757812
0.2959945678710937,0.3245315551757812
0.2966503143310547,0.3273290634155273
0.2966503143310547,0.3273290634155273
0.2959430694580078,0.3233860015869141
0.2959430694580078,0.3233860015869141
0.2980276107788086,0.3303102493286132
0.2980276107788086,0.3303102493286132
0.2952873229980469,0.3274829864501953
0.2952873229980469,0.3274829864501953
0.2972940444946289,0.3271150588989258
0.2972940444946289,0.3271150588989258
0.2974216461181641,0.3290267944335937
0.2958389282226562,0.3290267944335937
0.2970777511596679,0.3275836944580078
0.2970777511596679,0.3275836944580078
0.2986101150512695,0.3293970108032226
0.2986101150512695,0.3293970108032226
0.2957954406738281,0.3282468795776367
0.2957954406738281,0.3282468795776367
0.2975835800170898,0.3270784378051758
0.2975835800170898,0.3270784378051758
0.2981798171997070,0.3320892333984375
0.2981798171997070,0.3320892333984375
0.2976282119750976,0.3267517089843750
0.2976282119750976,0.3267517089843750
0.2991966247558593,0.3308469772338867
0.2991966247558593,0.3308469772338867
0.2963985443115234,0.3298187255859375
0.2963985443115234,0.3298187255859375
0.2989425659179688,0.3318477630615234
0.2989425659179688,0.3318477630615234
0.2994981765747070,0.3325258255004883
0.2994981765747070,0.3325258255004883
0.2990581512451172,0.3293483734130859
0.2990581512451172,0.3293483734130859
0.3005327224731445,0.3327117919921875
0.3005327224731445,0.3327117919921875
0.2982164382934570,0.3349353790283203
0.2982164382934570,0.3349353790283203
0.3006271362304687,0.3330087661743164
0.3006271362304687,0.3330087661743164
0.3009618759155273,0.3356803894042968
0.3009618759155273,0.3356803894042968
0.3004629135131836,0.3322437286376953
0.3004629135131836,0.3322437286376953
0.3026178359985351,0.3386976242065430
0.3026178359985351,0.3386976242065430
0.2999593734741211,0.3360071182250977
0.2999593734741211,0.3360071182250977
0.3023174285888672,0.3359905242919922
0.3023174285888672,0.3359905242919922
0.3023958206176758,0.3376647949218750
0.3023958206176758,0.3376647949218750
0.3023454666137695,0.3371320724487304
0.3023454666137695,0.3371320724487304
0.3040128707885742,0.3393024444580078
0.3040128707885742,0.3393024444580078
0.3011816024780273,0.3385614395141601
0.3040403366088867,0.3385614395141601
0.3033777236938476,0.3381614685058594
0.3033777236938476,0.3381614685058594
0.3040042877197265,0.3428827285766601
0.3040042877197265,0.3428827285766601
0.3036048889160156,0.3375406265258789
0.3036048889160156,0.3375406265258789
0.3054096221923828,0.3416730880737305
0.3054096221923828,0.3416730880737305
0.3023603439331055,0.3399473190307617
0.3023603439331055,0.3399473190307617
0.3048912048339844,0.3426109313964844
0.3048912048339844,0.3426109313964844
0.3053392410278320,0.3430927276611328
0.3053392410278320,0.3430927276611328
0.3045845031738281,0.3395988464355469
0.3045845031738281,0.3395988464355469
0.3061712265014648,0.3434440612792969
0.3032077789306640,0.3434440612792969
0.3038269042968750,0.3447486877441406
0.3038269042968750,0.3447486877441406
0.3061122894287109,0.3426504135131836
0.3061122894287109,0.3426504135131836
0.3064464569091797,0.3450456619262695
0.3064464569091797,0.3450456619262695
0.3056173324584961,0.3407306671142578
0.3056173324584961,0.3407306671142578
0.3075805664062500,0.3477029800415039
0.3075805664062500,0.3477029800415039
0.3049352645874023,0.3449174880981445
0.3049352645874023,0.3449174880981445
0.3070209503173828,0.3446548461914062
0.3070209503173828,0.3446548461914062
0.3072052001953125,0.3468395233154297
0.3072052001953125,0.3468395233154297
0.3070409774780273,0.3456178665161133
0.3070409774780273,0.3456178665161133
0.3087181091308593,0.3478002548217773
0.3087181091308593,0.3478002548217773
0.3060756683349609,0.3467765808105469
0.3060756683349609,0.3467765808105469
0.3078781127929687,0.3457695007324219
0.3078781127929687,0.3457695007324219
0.3084932327270508,0.3508935928344726
0.3084932327270508,0.3508935928344726
0.3079742431640625,0.3500066757202148
0.3087083816528320,0.3489658355712891
0.3081699371337890,0.3428638458251953
0.3090265274047851,0.3428638458251953
0.3096633911132812,0.3502647399902344
0.3096633911132812,0.3502647399902344
0.3068613052368164,0.3480531692504883
0.3068613052368164,0.3480531692504883
0.3110670089721679,0.3494373321533203
0.3110670089721679,0.3494373321533203
0.3087392807006836,0.3462444305419922
0.3087392807006836,0.3462444305419922
0.3091627120971679,0.3492439270019531
0.3091627120971679,0.3492439270019531
0.3109731674194336,0.3523109436035156
0.3109731674194336,0.3523109436035156
0.3086191177368164,0.3491901397705078
0.3086191177368164,0.3491901397705078
0.3112180709838867,0.3469259262084961
0.3112180709838867,0.3469259262084961
0.3097074508666992,0.3524442672729492
0.3097074508666992,0.3524442672729492
0.3101337432861328,0.3510429382324219
0.3101337432861328,0.3510429382324219
0.3116306304931640,0.3516901016235351
0.3116306304931640,0.3516901016235351
0.3064653396606445,0.3416536331176758
0.3064653396606445,0.3416536331176758
0.3073820114135742,0.3427734375000000
0.3073820114135742,0.3427734375000000
0.3028913497924804,0.3384315490722656
0.3028913497924804,0.3384315490722656
0.3014802932739258,0.3324199676513672
0.3014802932739258,0.3324199676513672
0.3001350402832031,0.3277725219726562
0.3001350402832031,0.3277725219726562
0.2955797195434570,0.3265331268310547
0.2955797195434570,0.3265331268310547
0.2982633590698242,0.3276706695556640
0.2982633590698242,0.3276706695556640
0.2967327117919922,0.3267471313476563
0.2967327117919922,0.3267471313476563
0.2958131790161133,0.3203098297119141
0.2958131790161133,0.3203098297119141
0.2969255447387695,0.3265520095825195
0.2969255447387695,0.3265520095825195
0.2938608169555664,0.3231840133666992
0.2938608169555664,0.3231840133666992
0.2976636886596680,0.3247632980346680
0.2976636886596680,0.3247632980346680
0.2951339721679687,0.3213827133178711
0.2951339721679687,0.3213827133178711
0.2953290939331055,0.3238368988037109
0.2953290939331055,0.3238368988037109
0.2969839096069336,0.3270652770996094
0.2969839096069336,0.3270652770996094
0.2945623397827148,0.3231748580932617
0.2945623397827148,0.3231748580932617
0.2970611572265625,0.3212362289428711
0.2970611572265625,0.3212362289428711
0.2957118988037109,0.3266567230224609
0.2957118988037109,0.3266567230224609
0.2964397430419922,0.3256210327148437
0.2964397430419922,0.3256210327148437
0.2986953735351562,0.3283298492431641
0.2986953735351562,0.3283298492431641
0.2948925018310547,0.3212636947631836
0.2948925018310547,0.3212636947631836
0.2983165740966797,0.3277278900146484
0.2983165740966797,0.3277278900146484
0.2970062255859375,0.3294593811035156
0.2970062255859375,0.3294593811035156
0.2980464935302734,0.3270881652832031
0.2980464935302734,0.3270881652832031
0.2984584808349609,0.3253337860107422
0.2984584808349609,0.3253337860107422
0.2954097747802734,0.3262842178344726
0.2954097747802734,0.3262842178344726
0.2989030838012695,0.3284179687500000
0.2989030838012695,0.3284179687500000
0.2979738235473633,0.3292516708374023
0.2974285125732422,0.3292516708374023
0.2975864410400391,0.3235605239868164
0.2975864410400391,0.3235605239868164
0.2989156723022461,0.3304178237915039
0.2989156723022461,0.3304178237915039
0.2962932586669922,0.3281621932983398
0.2962932586669922,0.3281621932983398
0.3003330230712891,0.3296762466430664
0.3003330230712891,0.3296762466430664
0.2979669570922852,0.3265119552612304
0.2979669570922852,0.3265119552612304
0.2985706329345703,0.3295291900634765
0.2985706329345703,0.3295291900634765
0.3002883911132813,0.3324588775634765
0.3002883911132813,0.3324588775634765
0.2980344772338867,0.3294244766235351
0.2980344772338867,0.3294244766235351
0.3006048202514648,0.3276552200317382
0.3006048202514648,0.3276552200317382
0.2992338180541992,0.3332725524902344
0.2992338180541992,0.3332725524902344
0.3002769470214844,0.3328805923461914
0.3002769470214844,0.3328805923461914
0.3024690628051758,0.3349943161010742
0.3024690628051758,0.3349943161010742
0.2987783432006836,0.3280860900878906
0.2987783432006836,0.3280860900878906
0.3022613525390625,0.3349124908447266
0.3022613525390625,0.3349124908447266
0.3011844635009766,0.3364671707153320
0.3011844635009766,0.3364671707153320
0.3026458740234375,0.3352272033691406
0.3026458740234375,0.3352272033691406
0.3032804489135742,0.3339460372924805
0.3032804489135742,0.3339460372924805
0.3005075454711914,0.3353736877441406
0.3005075454711914,0.3353736877441406
0.3041885375976562,0.3386260986328125
0.3041885375976562,0.3386260986328125
0.3034744262695312,0.3391016006469726
0.3034744262695312,0.3391016006469726
0.3032283782958984,0.3337429046630859
0.3032283782958984,0.3337429046630859
0.3047573089599609,0.3407409667968750
0.3047573089599609,0.3407409667968750
0.3021171569824219,0.3380304336547851
0.3021171569824219,0.3380304336547851
0.3062513351440430,0.3402791976928711
0.3062513351440430,0.3402791976928711
0.3037925720214844,0.3371395111083984
0.3037925720214844,0.3371395111083984
0.3044368743896484,0.3402997970581055
0.3044368743896484,0.3402997970581055
0.3061838150024414,0.3437261581420898
0.3061838150024414,0.3437261581420898
0.3041084289550781,0.3400274276733398
0.3041084289550781,0.3400274276733398
0.3064773559570312,0.3381483078002930
0.3064773559570312,0.3381483078002930
0.3050359725952148,0.3435882568359375
0.3050359725952148,0.3435882568359375
0.3058736801147461,0.3426389694213867
0.3058736801147461,0.3426389694213867
0.3080915451049804,0.3450857162475586
0.3042566299438477,0.3450857162475586
0.3042503356933594,0.3378198623657226
0.3042503356933594,0.3378198623657226
0.3076320648193359,0.3446571350097656
0.3076320648193359,0.3446571350097656
0.3063343048095703,0.3464103698730469
0.3063343048095703,0.3464103698730469
0.3078758239746094,0.3445020675659179
0.3078758239746094,0.3445020675659179
0.3082717895507812,0.3427848815917969
0.3082717895507812,0.3427848815917969
0.3053770065307617,0.3442039489746094
0.3053770065307617,0.3442039489746094
0.3090162277221680,0.3466838836669922
0.3090162277221680,0.3466838836669922
0.3082077026367188,0.3476423263549804
0.3082077026367188,0.3476423263549804
0.3079782485961914,0.3421434402465820
0.3079782485961914,0.3421434402465820
0.3093732833862304,0.3491271972656250
0.3093732833862304,0.3491271972656250
0.3067960739135742,0.3469608306884766
0.3067960739135742,0.3469608306884766
0.3109542846679688,0.3485664367675781
0.3109542846679688,0.3485664367675781
0.3083724975585938,0.3453363418579101
0.3083724975585938,0.3453363418579101
0.3090803146362305,0.3485383987426758
0.3090803146362305,0.3485383987426758
0.3107477188110351,0.3511888504028320
0.3107477188110351,0.3511888504028320
0.3085813522338867,0.3479072570800781
0.3085813522338867,0.3479072570800781
0.3107048034667969,0.3455268859863281
0.3107048034667969,0.3455268859863281
0.3085842132568359,0.3499992370605469
0.3090345382690430,0.3499992370605469
0.3087581634521484,0.3477476119995117
0.3087581634521484,0.3477476119995117
0.3092353820800781,0.3457735061645508
0.3092353820800781,0.3457735061645508
0.3024593353271484,0.3333292007446289
0.3024593353271484,0.3333292007446289
0.3033405303955078,0.3358474731445312
0.3033405303955078,0.3358474731445312
0.3000080108642578,0.3336702346801758
0.3000080108642578,0.3336702346801758
0.2999462127685547,0.3296344757080078
0.2999462127685547,0.3296344757080078
0.2991863250732422,0.3259042739868164
0.2991863250732422,0.3259042739868164
0.2953800201416015,0.3256765365600586
0.2953800201416015,0.3256765365600586
0.2982559204101562,0.3276271820068359
0.2982559204101562,0.3276271820068359
0.2969003677368164,0.3269908905029297
0.2969003677368164,0.3269908905029297
0.2963670730590820,0.3210960388183594
0.2963670730590820,0.3210960388183594
0.2974336624145508,0.3271099090576172
0.2974336624145508,0.3271099090576172
0.2945743560791015,0.3238042831420898
0.2945743560791015,0.3238042831420898
0.2984619140625000,0.3254516601562500
0.2984619140625000,0.3254516601562500
0.2954023361206055,0.3220361709594726
0.2954023361206055,0.3220361709594726
0.2961038589477539,0.3247478485107422
0.2961038589477539,0.3247478485107422
0.2976997375488281,0.3277227401733399
0.2976997375488281,0.3277227401733399
0.2956266403198242,0.3240932464599609
0.2956266403198242,0.3240932464599609
0.2979183197021484,0.3225385665893555
0.2979183197021484,0.3225385665893555
0.2963653564453125,0.3278760910034180
0.2963653564453125,0.3278760910034180
0.2975950241088867,0.3272266387939453
0.2975950241088867,0.3272266387939453
0.2999399185180664,0.3296659469604492
0.2999399185180664,0.3296659469604492
0.2961439132690429,0.3226924896240234
0.2961439132690429,0.3226924896240234
0.2994026184082031,0.3292242050170898
0.2994026184082031,0.3292242050170898
0.2978158950805664,0.3307674407958984
0.2978158950805664,0.3307674407958984
0.2993448257446289,0.3287086486816406
0.2993448257446289,0.3287086486816406
0.2995862960815430,0.3266944885253906
0.2995862960815430,0.3266944885253906
0.2966463088989258,0.3276288986206055
0.2966463088989258,0.3276288986206055
0.3000577926635742,0.3298513412475586
0.3000577926635742,0.3298513412475586
0.2988842010498047,0.3305385589599609
0.2985952377319336,0.3305385589599609
0.2986913681030273,0.3252496719360352
0.2986913681030273,0.3252496719360352
0.2999897003173828,0.3317579269409179
0.2974256515502929,0.3317579269409179
0.2974176406860352,0.3295091629028320
0.2974176406860352,0.3295091629028320
0.3015810012817383,0.3311365127563476
0.3015810012817383,0.3311365127563476
0.2987188339233398,0.3280500411987304
0.2987188339233398,0.3280500411987304
0.2997018814086914,0.3312469482421875
0.2997018814086914,0.3312469482421875
0.3013732910156250,0.3338808059692382
0.3013732910156250,0.3338808059692382
0.2995101928710938,0.3309259414672852
0.2995101928710938,0.3309259414672852
0.3017881393432617,0.3292013168334961
0.3017881393432617,0.3292013168334961
0.2999536514282227,0.3346492767333984
0.2999536514282227,0.3346492767333984
0.3013446807861328,0.3345428466796875
0.3013446807861328,0.3345428466796875
0.3036626815795898,0.3362915039062500
0.3036626815795898,0.3362915039062500
0.2999153137207031,0.3294685363769531
0.2999153137207031,0.3294685363769531
0.3033084869384766,0.3363344192504883
0.3033084869384766,0.3363344192504883
0.3017749786376953,0.3377260208129882
0.3017749786376953,0.3377260208129882
0.3037685394287109,0.3368093490600586
0.3037685394287109,0.3368093490600586
0.3041290283203125,0.3350727081298828
0.3041290283203125,0.3350727081298828
0.3015518188476562,0.3366920471191406
0.3015518188476562,0.3366920471191406
0.3051321029663086,0.3399827957153320
0.3051321029663086,0.3399827957153320
0.3041885375976562,0.3403799057006836
0.3041885375976562,0.3403799057006836
0.3042583465576172,0.3352930068969727
0.3042583465576172,0.3352930068969727
0.3056871414184570,0.3419935226440430
0.3056871414184570,0.3419935226440430
0.3032346725463867,0.3394397735595703
0.3074295043945313,0.3417194366455078
0.3074295043945313,0.3417194366455078
0.3044717788696289,0.3383800506591797
0.3044717788696289,0.3383800506591797
0.3055681228637695,0.3418642044067383
0.3055681228637695,0.3418642044067383
0.3071903228759765,0.3448814392089843
0.3071903228759765,0.3448814392089843
0.3054307937622070,0.3414379119873047
0.3054307937622070,0.3414379119873047
0.3075233459472656,0.3396663665771484
0.3075233459472656,0.3396663665771484
0.3078981399536133,0.3451875686645507
0.3078981399536133,0.3475828170776367
0.3050371170043945,0.3444562911987304
0.3050371170043945,0.3444562911987304
0.3075960159301758,0.3445255279541016
0.3075960159301758,0.3445255279541016
0.3071273803710937,0.3465585708618164
0.3071273803710937,0.3465585708618164
0.3070392608642578,0.3453208923339844
0.3070392608642578,0.3453208923339844
0.3088777542114258,0.3475816726684570
0.3088777542114258,0.3475816726684570
0.3060779571533203,0.3463628768920898
0.3060779571533203,0.3463628768920898
0.3085704803466797,0.3455200195312500
0.3085704803466797,0.3455200195312500
0.3085184097290039,0.3505044937133789
0.3085184097290039,0.3505044937133789
0.3080898284912109,0.3453712463378906
0.3080898284912109,0.3453712463378906
0.3097921371459961,0.3494819641113281
0.3097921371459961,0.3494819641113281
0.3068183898925781,0.3480388641357422
0.3068183898925781,0.3480388641357422
0.3099552154541015,0.3500295639038086
0.3099552154541015,0.3500295639038086
0.3095758438110351,0.3505010604858398
0.3095758438110351,0.3505010604858398
0.3090013504028320,0.3470552444458008
0.3113656997680664,0.3470552444458008
0.3103448867797852,0.3496307373046875
0.3103448867797852,0.3496307373046875
0.3072355270385742,0.3501245498657227
0.3072355270385742,0.3501245498657227
0.3090951919555664,0.3461374282836914
0.3090951919555664,0.3461374282836914
0.3064155578613281,0.3437850952148437
0.3064155578613281,0.3437850952148437
0.3029388427734375,0.3356157302856445
0.3029388427734375,0.3356157302856445
0.3030590057373047,0.3378673553466797
0.3030590057373047,0.3378673553466797
0.2983074188232422,0.3316486358642578
0.2983074188232422,0.3316486358642578
0.2998123168945312,0.3291681289672851
0.2998123168945312,0.3291681289672851
0.2978588104248047,0.3286611557006836
0.2978588104248047,0.3286611557006836
0.2970285415649414,0.3267465591430664
0.2970285415649414,0.3267465591430664
0.2984155654907226,0.3280809402465820
0.2984155654907226,0.3280809402465820
0.2948741912841797,0.3260066986083984
0.2948741912841797,0.3260066986083984
0.2972854614257812,0.3253126144409180
0.2972854614257812,0.3253126144409180
0.2969129562377930,0.3288694381713867
0.2969129562377930,0.3288694381713867
0.2961341857910156,0.3234529495239258
0.2961341857910156,0.3234529495239258
0.2979864120483398,0.3269914627075195
0.2979864120483398,0.3269914627075195
0.2944324493408203,0.3246007919311523
0.2944324493408203,0.3246007919311523
0.2976287841796875,0.3270332336425781
0.2976287841796875,0.3270332336425781
0.2970840454101563,0.3273788452148437
0.2970840454101563,0.3273788452148437
0.2964260101318359,0.3241842269897461
0.2964260101318359,0.3241842269897461
0.2983062744140625,0.3281736373901367
0.2983062744140625,0.3281736373901367
0.2958297729492188,0.3292350769042969
0.2958297729492188,0.3292350769042969
0.2989917755126953,0.3277507781982422
0.2989917755126953,0.3277507781982422
0.2986221313476562,0.3301368713378906
0.2986221313476562,0.3301368713378906
0.2978273391723633,0.3261623382568359
0.2978273391723633,0.3261623382568359
0.3002140045166016,0.3329252243041992
0.3002140045166016,0.3329252243041992
0.2971366882324218,0.3297426223754883
0.2971366882324218,0.3297426223754883
0.2999765396118164,0.3296808242797851
0.2999765396118164,0.3296808242797851
0.2991130828857422,0.3314403533935547
0.2983749389648437,0.3314403533935547
0.2988389968872070,0.3300910949707031
0.2988389968872070,0.3300910949707031
0.3007404327392578,0.3321945190429688
0.3007404327392578,0.3321945190429688
0.2977169036865234,0.3307931900024414
0.2977169036865234,0.3307931900024414
0.3003667831420898,0.3298072814941406
0.3003667831420898,0.3298072814941406
0.3000904083251953,0.3346343994140625
0.3000904083251953,0.3346343994140625
0.2995302200317383,0.3296934127807617
0.2995302200317383,0.3296934127807617
0.3014099121093750,0.3336799621582031
0.3014099121093750,0.3336799621582031
0.2982341766357422,0.3323118209838867
0.2982341766357422,0.3323118209838867
0.3017744064331054,0.3346435546875000
0.3017744064331054,0.3346435546875000
0.3013458251953125,0.3351505279541016
0.3013458251953125,0.3351505279541016
0.3008932113647461,0.3321933746337891
0.3008932113647461,0.3321933746337891
0.3027145385742188,0.3353851318359375
0.3027145385742188,0.3353851318359375
0.3000680923461914,0.3372076034545898
0.3000680923461914,0.3372076034545898
0.3034315109252930,0.3357679367065430
0.3034315109252930,0.3357679367065430
0.3026893615722656,0.3381534576416015
0.3026893615722656,0.3381534576416015
0.3021743774414062,0.3350784301757813
0.3021743774414062,0.3350784301757813
0.3046834945678711,0.3413486480712891
0.3046834945678711,0.3413486480712891
0.3017229080200195,0.3385505676269531
0.3017229080200195,0.3385505676269531
0.3050794601440430,0.3388360977172851
0.3050794601440430,0.3388360977172851
0.3042165756225586,0.3401636123657226
0.3036157608032227,0.3401636123657226
0.3040426254272461,0.3399959564208984
0.3040426254272461,0.3399959564208984
0.3062255859375000,0.3423425674438477
0.3062255859375000,0.3423425674438477
0.3029886245727539,0.3411724090576172
0.3029886245727539,0.3411724090576172
0.3060962677001953,0.3411283493041992
0.3060962677001953,0.3411283493041992
0.3057861328125000,0.3454307556152343
0.3057861328125000,0.3454307556152343
0.3053123474121094,0.3405595779418945
0.3053123474121094,0.3405595779418945
0.3075502395629883,0.3445655822753906
0.3075502395629883,0.3445655822753906
0.3040060043334961,0.3424610137939453
0.3040060043334961,0.3424610137939453
0.3076332092285156,0.3455572128295898
0.3076332092285156,0.3455572128295898
0.3070610046386719,0.3458415985107422
0.3070610046386719,0.3458415985107422
0.3063377380371093,0.3427322387695312
0.3063377380371093,0.3427322387695312
0.3083524703979492,0.3465385437011719
0.3083524703979492,0.3465385437011719
0.3054536819458007,0.3474128723144531
0.3054536819458007,0.3474128723144531
0.3088010787963867,0.3457872390747070
0.3088010787963867,0.3457872390747070
0.3080297470092773,0.3478591918945312
0.3080297470092773,0.3478591918945312
0.3072629928588867,0.3437873840332031
0.3072629928588867,0.3437873840332031
0.3096811294555664,0.3506538391113281
0.3096811294555664,0.3506538391113281
0.3064733505249023,0.3474111557006836
0.3064733505249023,0.3474111557006836
0.3097223281860351,0.3476406097412109
0.3097223281860351,0.3476406097412109
0.3086769104003906,0.3495117187500000
0.3086769104003906,0.3495117187500000
0.3085910797119141,0.3485389709472656
0.3085910797119141,0.3485389709472656
0.3106327056884766,0.3507362365722656
0.3106327056884766,0.3507362365722656
0.3075096130371094,0.3493549346923828
0.3075096130371094,0.3493549346923828
0.3105165481567383,0.3486122131347656
0.3105165481567383,0.3486122131347656
0.3100765228271484,0.3535646438598632
0.3100765228271484,0.3535646438598632
0.3095832824707031,0.3485475540161133
0.3095832824707031,0.3485475540161133
0.3115367889404297,0.3525661468505859
0.3115367889404297,0.3525661468505859
0.3079811096191406,0.3508100509643555
0.3079811096191406,0.3508100509643555
0.3116529464721680,0.3528768539428711
0.3116529464721680,0.3528768539428711
0.3104215621948242,0.3522279739379883
0.3104215621948242,0.3522279739379883
0.3094036102294922,0.3477184295654297
0.3094036102294922,0.3477184295654297
0.3100461959838867,0.3485744476318359
0.3061826705932617,0.3485744476318359
0.3051429748535156,0.3459600448608398
0.3081459045410156,0.3459600448608398
0.3059743881225586,0.3395204544067383
0.3059743881225586,0.3395204544067383
0.3027185440063476,0.3379795074462891
0.3027185440063476,0.3379795074462891
0.3005956649780273,0.3319124221801757
0.3005956649780273,0.3319124221801757
0.3018424987792969,0.3359315872192383
0.3018424987792969,0.3359315872192383
0.2977014541625976,0.3312086105346679
0.2977014541625976,0.3312086105346679
0.3007106781005859,0.3303691864013672
0.3007106781005859,0.3303691864013672
0.2989334106445312,0.3307308197021484
0.2989334106445312,0.3307308197021484
0.2985694885253906,0.3298805236816406
0.2985694885253906,0.3298805236816406
0.3003770828247070,0.3317001342773437
0.3003770828247070,0.3317001342773437
0.2967864990234375,0.3300178527832031
0.2967864990234375,0.3300178527832031
0.3000886917114258,0.3299217224121094
0.3000886917114258,0.3299217224121094
0.2993997573852539,0.3339792251586914
0.2993997573852539,0.3339792251586914
0.2991697311401367,0.3293191909790039
0.2991697311401367,0.3293191909790039
0.3015094757080078,0.3336244583129883
0.3015094757080078,0.3336244583129883
0.2980607986450195,0.3317007064819336
0.2980607986450195,0.3317007064819336
0.3021429061889648,0.3351511001586914
0.3021429061889648,0.3351511001586914
0.3013446807861328,0.3356174468994140
0.3013446807861328,0.3356174468994140
0.3010242462158203,0.3327049255371093
0.3010242462158203,0.3327049255371093
0.3028604507446289,0.3364259719848633
0.3028604507446289,0.3364259719848633
0.2997631072998047,0.3369157791137695
0.2997631072998047,0.3369157791137695
0.3032981872558594,0.3350961685180664
0.3032981872558594,0.3350961685180664
0.3020908355712891,0.3367023468017578
0.3020908355712891,0.3367023468017578
0.3011152267456055,0.3322443008422851
0.3011152267456055,0.3322443008422851
0.3033279418945312,0.3386581420898437
0.3033279418945312,0.3386581420898437
0.2997528076171875,0.3350337982177734
0.2997528076171875,0.3350337982177734
0.3032266616821289,0.3351928710937500
0.3032266616821289,0.3351928710937500
0.3017606735229492,0.3366748809814453
0.3017606735229492,0.3366748809814453
0.3016920089721680,0.3356088638305664
0.3016920089721680,0.3356088638305664
0.3038228988647461,0.3377975463867187
0.3038228988647461,0.3377975463867187
0.3005315780639649,0.3363378524780273
0.3005315780639649,0.3363378524780273
0.3039030075073242,0.3357976913452148
0.3039030075073242,0.3357976913452148
0.3031459808349609,0.3405830383300781
0.3031459808349609,0.3405830383300781
0.3028444290161132,0.3358577728271484
0.3028444290161132,0.3358577728271484
0.3049615859985351,0.3400257110595703
0.3049615859985351,0.3400257110595703
0.3014516830444336,0.3386449813842773
0.3014516830444336,0.3386449813842773
0.3056613922119141,0.3412731170654297
0.3056613922119141,0.3412731170654297
0.3046972274780274,0.3415992736816406
0.3046972274780274,0.3415992736816406
0.3044883728027344,0.3387016296386718
0.3044883728027344,0.3387016296386718
0.3063411712646484,0.3418642044067383
0.3063411712646484,0.3418642044067383
0.3033199310302734,0.3434864044189453
0.3033199310302734,0.3434864044189453
0.3071313858032226,0.3421108245849609
0.3071313858032226,0.3421108245849609
0.3059131622314453,0.3440740585327148
0.3059131622314453,0.3440740585327148
0.3054462432861328,0.3409698486328125
0.3054462432861328,0.3409698486328125
0.3079427719116211,0.3469791412353516
0.3079427719116211,0.3469791412353516
0.3045198440551758,0.3438274383544922
0.3045198440551758,0.3438274383544922
0.3084268569946289,0.3442268371582031
0.3084268569946289,0.3442268371582031
0.3068864822387695,0.3452625274658203
0.3068864822387695,0.3452625274658203
0.3069082260131836,0.3451292037963867
0.3069082260131836,0.3451292037963867
0.3091449737548828,0.3471891403198242
0.3091449737548828,0.3471891403198242
0.3054794311523437,0.3458066940307617
0.3054794311523437,0.3458066940307617
0.3091632843017578,0.3460258483886718
0.3091632843017578,0.3460258483886718
0.3082717895507812,0.3500061035156250
0.3082717895507812,0.3500061035156250
0.3085109710693359,0.3499460220336914
0.3085109710693359,0.3480022430419922
0.3090911865234375,0.3433141708374023
0.3090911865234375,0.3433141708374023
0.3100622177124023,0.3494041442871094
0.3100622177124023,0.3494041442871094
0.3082706451416016,0.3468715667724609
0.3082706451416016,0.3468715667724609
0.3126216888427734,0.3492187500000000
0.3126216888427734,0.3492187500000000
0.3079542160034179,0.3453929901123047
0.3079542160034179,0.3453929901123047
0.3099220275878906,0.3492879867553711
0.3099220275878906,0.3492879867553711
0.3111591339111328,0.3518239974975586
0.3111591339111328,0.3518239974975586
0.3104032516479492,0.3483638763427734
0.3104032516479492,0.3483638763427734
0.3119150161743164,0.3466157913208008
0.3119150161743164,0.3466157913208008
0.3088451385498047,0.3513496398925781
0.3088451385498047,0.3513496398925781
0.3111104965209961,0.3512168884277344
0.3111104965209961,0.3512168884277344
0.3133815765380859,0.3528230667114258
0.3133815765380859,0.3528230667114258
0.3099586486816406,0.3458490371704102
0.3099586486816406,0.3458490371704102
0.3129089355468750,0.3526765823364258
0.3129089355468750,0.3526765823364258
0.3098728179931641,0.3536149978637695
0.3098728179931641,0.3536149978637695
0.3128894805908203,0.3519744873046875
0.3128894805908203,0.3519744873046875
0.3119035720825195,0.3482786178588867
0.3119035720825195,0.3482786178588867
0.3089904785156250,0.3477298736572266
0.3089904785156250,0.3477298736572266
0.3101892471313477,0.3460052490234375
0.3101892471313477,0.3460052490234375
0.3053661346435547,0.3412130355834961
0.3053661346435547,0.3412130355834961
0.3036506652832031,0.3327301025390625
0.3036506652832031,0.3327301025390625
0.3027276992797852,0.3353977203369141
0.3027276992797852,0.3353977203369141
0.2994667053222656,0.3307588577270508
0.2994667053222656,0.3307588577270508
0.3025869369506836,0.3304824829101562
0.3025869369506836,0.3304824829101562
0.2970869064331055,0.3254917144775391
0.2970869064331055,0.3254917144775391
0.2985774993896484,0.3280151367187500
0.2985774993896484,0.3280151367187500
0.2992475509643555,0.3292179107666016
0.2992475509643555,0.3292179107666016
0.2982759475708008,0.3255186080932617
0.2982759475708008,0.3255186080932617
0.2994077682495117,0.3233808517456054
0.2994077682495117,0.3233808517456054
0.2958463668823242,0.3272495269775391
0.2958463668823242,0.3272495269775391
0.2979372024536133,0.3271076202392578
0.2979372024536133,0.3271076202392578
0.2998455047607422,0.3277496337890625
0.2998455047607422,0.3277496337890625
0.2963533401489258,0.3206525802612304
0.2963533401489258,0.3206525802612304
0.2991376876831054,0.3269199371337890
0.2991376876831054,0.3269199371337890
0.2960157394409180,0.3273662567138672
0.2960157394409180,0.3273662567138672
0.2993139266967773,0.3270315170288086
0.2993139266967773,0.3270315170288086
0.2989128112792969,0.3249418258666992
0.2989128112792969,0.3249418258666992
0.2973243713378906,0.3264518737792969
0.2973243713378906,0.3264518737792969
0.3004543304443359,0.3296899795532227
0.3004543304443359,0.3296899795532227
0.2984922409057617,0.3294307708740234
0.2984922409057617,0.3294307708740234
0.2990758895874023,0.3250213623046875
0.2990758895874023,0.3250213623046875
0.3000062942504882,0.3306558609008789
0.3000062942504882,0.3306558609008789
0.2983068466186523,0.3279464721679687
0.2983068466186523,0.3279464721679687
0.3022676467895508,0.3299194335937500
0.3022676467895508,0.3299194335937500
0.2973873138427734,0.3260192871093750
0.2973873138427734,0.3260192871093750
0.2993888854980469,0.3295675277709961
0.2993888854980469,0.3295675277709961
0.3005121231079101,0.3318786621093750
0.3005121231079101,0.3318786621093750
0.2999427795410156,0.3282875061035156
0.2999427795410156,0.3282875061035156
0.3012325286865234,0.3267139434814453
0.2980602264404297,0.3267139434814453
0.2978885650634766,0.3310323715209961
0.2978885650634766,0.3310323715209961
0.3002426147460938,0.3308624267578125
0.3002426147460938,0.3308624267578125
0.3024930953979492,0.3325693130493164
0.3024930953979492,0.3325693130493164
0.2992664337158203,0.3258493423461914
0.2992664337158203,0.3258493423461914
0.3021148681640625,0.3325223922729492
0.3021148681640625,0.3325223922729492
0.2991348266601562,0.3335214614868164
0.2991348266601562,0.3335214614868164
0.3025817871093750,0.3327655792236328
0.3025817871093750,0.3327655792236328
0.3021743774414062,0.3306570053100586
0.3021743774414062,0.3306570053100586
0.3005544662475586,0.3322219848632812
0.3005544662475586,0.3322219848632812
0.3036975860595703,0.3349582672119141
0.3036975860595703,0.3349582672119141
0.3017509460449219,0.3352746963500977
0.3017509460449219,0.3352746963500977
0.3025508880615234,0.3310775756835938
0.3025508880615234,0.3310775756835938
0.3034778594970703,0.3372236251831054
0.3034778594970703,0.3372236251831054
0.3021549224853515,0.3352832794189453
0.3021549224853515,0.3352832794189453
0.3062622070312500,0.3371475219726562
0.3062622070312500,0.3371475219726562
0.3015192031860351,0.3332736968994141
0.3015192031860351,0.3332736968994141
0.3036827087402343,0.3373243331909180
0.3036827087402343,0.3373243331909180
0.3049226760864258,0.3394065856933594
0.3049226760864258,0.3394065856933594
0.3046319961547851,0.3366674423217773
0.3046319961547851,0.3366674423217773
0.3059183120727539,0.3351762771606445
0.3059183120727539,0.3351762771606445
0.3026206970214844,0.3397567749023437
0.3026206970214844,0.3397567749023437
0.3051824569702148,0.3403352737426757
0.3051824569702148,0.3403352737426757
0.3075016021728516,0.3416519165039062
0.3075016021728516,0.3416519165039062
0.3043842315673828,0.3349199295043945
0.3043842315673828,0.3349199295043945
0.3072463989257813,0.3416364669799805
0.3072463989257813,0.3416364669799805
0.3042028427124023,0.3422189712524414
0.3042028427124023,0.3422189712524414
0.3076955795288086,0.3418247222900391
0.3076955795288086,0.3418247222900391
0.3071331024169922,0.3395496368408203
0.3071331024169922,0.3395496368408203
0.3055046081542969,0.3409257888793945
0.3055046081542969,0.3409257888793945
0.3083433151245117,0.3438966751098633
0.3083433151245117,0.3438966751098633
0.3059555053710937,0.3426412582397461
0.3059555053710937,0.3426412582397461
0.3058931350708008,0.3365192413330078
0.3058931350708008,0.3365192413330078
0.3050674438476562,0.3392303466796875
0.3050674438476562,0.3392303466796875
0.3018144607543945,0.3332096099853515
0.3018144607543945,0.3332096099853515
0.3039882659912109,0.3322591781616211
0.3039882659912109,0.3322591781616211
0.2975200653076172,0.3255094528198242
0.2975200653076172,0.3255094528198242
0.2982570648193359,0.3268850326538086
0.2982570648193359,0.3268850326538086
0.2983291625976562,0.3275321960449218
0.2983291625976562,0.3275321960449218
0.2972213745117188,0.3225872039794922
0.2972213745117188,0.3225872039794922
0.2977134704589844,0.3200586318969726
0.2977134704589844,0.3200586318969726
0.2938871383666992,0.3232383728027344
0.2938871383666992,0.3232383728027344
0.2958131790161133,0.3223011016845703
0.2958131790161133,0.3223011016845703
0.2976665496826172,0.3232652664184570
0.2976665496826172,0.3232652664184570
0.2942361831665039,0.3159307479858398
0.2942361831665039,0.3159307479858398
0.2965118408203125,0.3218770980834961
0.2965118408203125,0.3218770980834961
0.2931364059448242,0.3220664978027344
0.2931364059448242,0.3220664978027344
0.2963401794433594,0.3206251144409180
0.2963401794433594,0.3206251144409180
0.2954767227172851,0.3182544708251953
0.2954767227172851,0.3182544708251953
0.2938831329345703,0.3190366744995117
0.2938831329345703,0.3190366744995117
0.2966194152832031,0.3218101501464843
0.2931987762451172,0.3218101501464843
0.2945783615112305,0.3218862533569336
0.2945783615112305,0.3218862533569336
0.2954589843750000,0.3179483413696289
0.2954589843750000,0.3179483413696289
0.2964351654052734,0.3240549087524414
0.2964351654052734,0.3240549087524414
0.2952421188354492,0.3221780776977539
0.2952421188354492,0.3221780776977539
0.2993614196777344,0.3241773605346679
0.2993614196777344,0.3241773605346679
0.2944038391113281,0.3203252792358398
0.2944038391113281,0.3203252792358398
0.2966508865356445,0.3239536285400391
0.2966508865356445,0.3239536285400391
0.2975921630859375,0.3258373260498047
0.2975921630859375,0.3258373260498047
0.2974582672119140,0.3227783203125000
0.2974582672119140,0.3227783203125000
0.2982645034790039,0.3212293624877929
0.2982645034790039,0.3212293624877929
0.2948095321655274,0.3251043319702148
0.2948095321655274,0.3251043319702148
0.2972831726074219,0.3253200531005859
0.2972831726074219,0.3253200531005859
0.2993419647216797,0.3264644622802734
0.2993419647216797,0.3264644622802734
0.2963590621948242,0.3196638107299805
0.2963590621948242,0.3196638107299805
0.2988355636596680,0.3262567520141602
0.2988355636596680,0.3262567520141602
0.2957422256469727,0.3264169692993164
0.2957422256469727,0.3264169692993164
0.2993757247924805,0.3260696411132812
0.2993757247924805,0.3260696411132812
0.2986169815063476,0.3240955352783203
0.2986169815063476,0.3240955352783203
0.2972860336303711,0.3255037307739257
0.2972860336303711,0.3255037307739257
0.3001590728759765,0.3288751602172851
0.3001590728759765,0.3288751602172851
0.2981895446777343,0.3283246994018554
0.2981895446777343,0.3283246994018554
0.2989894866943359,0.3242551803588867
0.2989894866943359,0.3242551803588867
0.2999141693115234,0.3302627563476562
0.2999141693115234,0.3302627563476562
0.2987920761108399,0.3278091430664062
0.2987920761108399,0.3278091430664062
0.3026395797729492,0.3303285598754883
0.3026395797729492,0.3303285598754883
0.2977964401245117,0.3264169692993164
0.2977964401245117,0.3264169692993164
0.3001173019409180,0.3303474426269531
0.3001173019409180,0.3303474426269531
0.3012479782104492,0.3330121994018554
0.3012479782104492,0.3330121994018554
0.3013853073120117,0.3297557830810547
0.3013853073120117,0.3297557830810547
0.3021955490112305,0.3285730361938476
0.3021955490112305,0.3285730361938476
0.2991170883178711,0.3328531265258789
0.2991170883178711,0.3328531265258789
0.3017280578613281,0.3329092025756836
0.3017280578613281,0.3329092025756836
0.3039670944213867,0.3348993301391601
0.3039670944213867,0.3348993301391601
0.3012537002563476,0.3282978057861328
0.3012537002563476,0.3282978057861328
0.3036609649658203,0.3352975845336914
0.3036609649658203,0.3352975845336914
0.3007095336914062,0.3359756469726562
0.3007095336914062,0.3359756469726562
0.3044986724853516,0.3351018905639648
0.3044986724853516,0.3351018905639648
0.3035974502563477,0.3329607009887695
0.3035974502563477,0.3329607009887695
0.3022567749023438,0.3341869354248047
0.3022567749023438,0.3341869354248047
0.3046794891357422,0.3365060806274414
0.3046794891357422,0.3365060806274414
0.3022029876708984,0.3349382400512695
0.3022029876708984,0.3349382400512695
0.3016868591308594,0.3282749176025391
0.3016868591308594,0.3282749176025391
0.3007827758789062,0.3314146041870117
0.3007827758789062,0.3314146041870117
0.2981277465820312,0.3261491775512695
0.2981277465820312,0.3261491775512695
0.3002191543579101,0.3252679824829102
0.3002191543579101,0.3252679824829102
0.2938293457031250,0.3186807632446289
0.2938293457031250,0.3186807632446289
0.2949531555175781,0.3203413009643555
0.2949531555175781,0.3203413009643555
0.2949234008789062,0.3208477020263672
0.2949234008789062,0.3208477020263672
0.2944004058837891,0.3166631698608398
0.2944004058837891,0.3166631698608398
0.2945972442626953,0.3145711898803711
0.2945972442626953,0.3145711898803711
0.2939552307128906,0.3199161529541015
0.2910884857177734,0.3199161529541015
0.2898725509643554,0.3157556533813476
0.2898725509643554,0.3157556533813476
0.2936496734619141,0.3161418914794922
0.2910581588745117,0.3161418914794922
0.2913711547851562,0.3160732269287109
0.2913711547851562,0.3160732269287109
0.2912464141845703,0.3153797149658203
0.2912464141845703,0.3153797149658203
0.2930648803710937,0.3166625976562500
0.2930648803710937,0.3166625976562500
0.2890628814697265,0.3144710540771484
0.2890628814697265,0.3144710540771484
0.2926883697509766,0.3150358200073242
0.2926883697509766,0.3150358200073242
0.2913946151733398,0.3182201385498047
0.2913946151733398,0.3182201385498047
0.2913448333740234,0.3140699386596680
0.2913448333740234,0.3140699386596680
0.2936279296875000,0.3177097320556641
0.2936279296875000,0.3177097320556641
0.2896499633789062,0.3151645660400391
0.2896499633789062,0.3151645660400391
0.2941972732543945,0.3190801620483398
0.2941972732543945,0.3190801620483398
0.2927158355712891,0.3191007614135742
0.2927158355712891,0.3191007614135742
0.2925882339477539,0.3164108276367187
0.2925882339477539,0.3164108276367187
0.2944942474365234,0.3196077346801758
0.2944942474365234,0.3196077346801758
0.2909975051879883,0.3194480895996094
0.2909975051879883,0.3194480895996094
0.2950407028198242,0.3188638687133789
0.2950407028198242,0.3188638687133789
0.2934299468994140,0.3201559066772461
0.2934299468994140,0.3201559066772461
0.2928440093994141,0.3163679122924805
0.2928440093994141,0.3163679122924805
0.2952501296997070,0.3222536087036132
0.2952501296997070,0.3222536087036132
0.2915319442749023,0.3186927795410156
0.2915319442749023,0.3186927795410156
0.2954744338989257,0.3197959899902343
0.2954744338989257,0.3197959899902343
0.2936765670776367,0.3210639953613281
0.2936765670776367,0.3210639953613281
0.2939609527587890,0.3202651977539062
0.2939609527587890,0.3202651977539062
0.2960849761962890,0.3221860885620117
0.2960849761962890,0.3221860885620117
0.2924400329589844,0.3203453063964843
0.2924400329589844,0.3203453063964843
0.2962514877319336,0.3207372665405273
0.2962514877319336,0.3207372665405273
0.2950429916381836,0.3249143600463867
0.2950429916381836,0.3249143600463867
0.2951190948486328,0.3207172393798828
0.2951190948486328,0.3207172393798828
0.2971876144409180,0.3243581771850586
0.2971876144409180,0.3243581771850586
0.2934053421020508,0.3223285675048828
0.2934053421020508,0.3223285675048828
0.2977312088012695,0.3254602432250976
0.2977312088012695,0.3254602432250976
0.2962326049804687,0.3254459381103516
0.2962326049804687,0.3254459381103516
0.2963384628295898,0.3229654312133789
0.2963384628295898,0.3229654312133789
0.2980974197387695,0.3254791259765625
0.2980974197387695,0.3254791259765625
0.2948369979858398,0.3261995315551758
0.2948369979858398,0.3261995315551758
0.2989397048950195,0.3259323120117187
0.2989397048950195,0.3259323120117187
0.2973546981811523,0.3276048660278320
0.2973546981811523,0.3276048660278320
0.2972311019897461,0.3249435424804688
0.2972311019897461,0.3249435424804688
0.2996795654296875,0.3305437088012695
0.2996795654296875,0.3305437088012695
0.2962892532348633,0.3270738601684570
0.2962892532348633,0.3270738601684570
0.3004463195800781,0.3285495758056641
0.3004463195800781,0.3285495758056641
0.2985322952270508,0.3291618347167969
0.2985322952270508,0.3291618347167969
0.2988996505737305,0.3292900085449219
0.2988996505737305,0.3292900085449219
0.3009824752807617,0.3312091827392578
0.3009824752807617,0.3312091827392578
0.2973552703857422,0.3290966033935547
0.2973552703857422,0.3290966033935547
0.3010608673095703,0.3300956726074218
0.3010608673095703,0.3300956726074218
0.2997282028198242,0.3331346511840820
0.2997282028198242,0.3331346511840820
0.2993150711059570,0.3280752182006836
0.2993150711059570,0.3280752182006836
0.3006580352783203,0.3297786712646484
0.3006580352783203,0.3297786712646484
0.2954029083251953,0.3245086669921875
0.2954029083251953,0.3245086669921875
0.2982725143432617,0.3257452011108398
0.2982725143432617,0.3257452011108398
0.2952020645141601,0.3227703094482422
0.2965124130249023,0.3227703094482422
0.2936044692993164,0.3177429199218750
0.2917911529541016,0.3177429199218750
0.2907474517822266,0.3188226699829101
0.2907474517822266,0.3188226699829101
0.2900316238403320,0.3167781829833984
0.2900316238403320,0.3167781829833984
0.2932079315185547,0.3153568267822265
0.2932079315185547,0.3153568267822265
0.2911869049072265,0.3157327651977539
0.2911869049072265,0.3157327651977539
0.2903360366821289,0.3115087509155273
0.2903360366821289,0.3115087509155273
0.2922197341918945,0.3167123794555664
0.2922197341918945,0.3167123794555664
0.2883487701416015,0.3122377395629883
0.2883487701416015,0.3122377395629883
0.2919496536254882,0.3131761550903320
0.2919496536254882,0.3131761550903320
0.2898393630981445,0.3137895584106445
0.2897415161132812,0.3137895584106445
0.2899143218994141,0.3127035140991211
0.2899143218994141,0.3127035140991211
0.2916669845581055,0.3141826629638672
0.2906387329101562,0.3141826629638672
0.2881450653076172,0.3116346359252929
0.2925876617431640,0.3116346359252929
0.2915834426879882,0.3121770858764648
0.2892911911010742,0.3121770858764648
0.2903869628906250,0.3162569046020507
0.2907400131225586,0.3162569046020507
0.2905912399291992,0.3125015258789062
0.2905912399291992,0.3125015258789062
0.2925390243530273,0.3161247253417969
0.2925390243530273,0.3161247253417969
0.2891286849975586,0.3139286041259766
0.2891286849975586,0.3139286041259766
0.2934362411499024,0.3174951553344726
0.2934362411499024,0.3174951553344726
0.2919113159179688,0.3173606872558594
0.2919113159179688,0.3173606872558594
0.2920097351074218,0.3149768829345703
0.2920097351074218,0.3149768829345703
0.2935283660888672,0.3172502517700195
0.2935283660888672,0.3172502517700195
0.2902925491333008,0.3173549652099609
0.2902925491333008,0.3173549652099609
0.2941486358642578,0.3170740127563477
0.2941486358642578,0.3170740127563477
0.2923833847045899,0.3183454513549804
0.2923833847045899,0.3183454513549804
0.2921350479125976,0.3155937194824219
0.2921350479125976,0.3155937194824219
0.2942974090576172,0.3207973480224609
0.2942974090576172,0.3207973480224609
0.2909379959106445,0.3168136596679688
0.2909379959106445,0.3168136596679688
0.2950080871582031,0.3184043884277344
0.2950080871582031,0.3184043884277344
0.2929893493652344,0.3189571380615234
0.2929893493652344,0.3189571380615234
0.2933870315551758,0.3192461013793945
0.2933870315551758,0.3192461013793945
0.2954046249389649,0.3211000442504883
0.2954046249389649,0.3211000442504883
0.2920234680175781,0.3188844680786133
0.2920234680175781,0.3188844680786133
0.2958200454711914,0.3204603195190430
0.2958200454711914,0.3204603195190430
0.2946401596069336,0.3239685058593750
0.2946401596069336,0.3239685058593750
0.2948095321655274,0.3202737808227539
0.2948095321655274,0.3202737808227539
0.2968631744384765,0.3237653732299804
0.2968631744384765,0.3237653732299804
0.2932405471801758,0.3205993652343750
0.2932405471801758,0.3205993652343750
0.2975830078125000,0.3250213623046875
0.2975830078125000,0.3250213623046875
0.2960597991943359,0.3248668670654297
0.2960597991943359,0.3248668670654297
0.2960317611694336,0.3227205276489258
0.2960317611694336,0.3227205276489258
0.2978485107421875,0.3259311676025390
0.2949914932250977,0.3259311676025390
0.2948593139648437,0.3255569458007813
0.2948593139648437,0.3255569458007813
0.2988922119140625,0.3258127212524414
0.2988922119140625,0.3258127212524414
0.2974370956420898,0.3273485183715820
0.2974370956420898,0.3273485183715820
0.2972906112670898,0.3243656158447266
0.2972906112670898,0.3243656158447266
0.2996229171752929,0.3305889129638672
0.2996229171752929,0.3305889129638672
0.2963853836059570,0.3267316818237305
0.2963853836059570,0.3267316818237305
0.3003353118896484,0.3286262512207031
0.3003353118896484,0.3286262512207031
0.2986227035522461,0.3300258636474609
0.2986227035522461,0.3300258636474609
0.2991382598876953,0.3298055648803711
0.3005081176757812,0.3298055648803711
0.3011335372924804,0.3316211700439453
0.3011335372924804,0.3316211700439453
0.2979537963867188,0.3291790008544922
0.2979537963867188,0.3291790008544922
0.3013578414916992,0.3300304412841797
0.3013578414916992,0.3300304412841797
0.3001390457153320,0.3340427398681641
0.3001390457153320,0.3340427398681641
0.3001934051513672,0.3299932479858398
0.3001934051513672,0.3299932479858398
0.3017177581787109,0.3327306747436523
0.3017177581787109,0.3327306747436523
0.2973787307739258,0.3281318664550781
0.2973787307739258,0.3281318664550781
0.3000068664550781,0.3288379669189453
0.3000068664550781,0.3288379669189453
0.2966909408569336,0.3253870010375977
0.2966909408569336,0.3253870010375977
0.2951110839843750,0.3200563430786132
0.2951110839843750,0.3200563430786132
0.2950412750244141,0.3196804046630859
0.2950412750244141,0.3196804046630859
0.2906850814819336,0.3173967361450195
0.2906850814819336,0.3173967361450195
0.2936084747314453,0.3159439086914063
0.2936084747314453,0.3159439086914063
0.2912097930908203,0.3160966873168945
0.2912097930908203,0.3160966873168945
0.2905014038085937,0.3127246856689453
0.2905014038085937,0.3127246856689453
0.2922449111938477,0.3172056198120117
0.2922449111938477,0.3172056198120117
0.2886548995971679,0.3123418807983399
0.2886548995971679,0.3123418807983399
0.2922437667846680,0.3136013031005859
0.2922437667846680,0.3136013031005859
0.2901220321655273,0.3135829925537109
0.2901220321655273,0.3135829925537109
0.2902605056762695,0.3136184692382812
0.2902605056762695,0.3136184692382812
0.2919828414916992,0.3151079177856445
0.2919828414916992,0.3151079177856445
0.2885948181152344,0.3122983932495117
0.2885948181152344,0.3122983932495117
0.2921722412109375,0.3139875411987305
0.2898759841918945,0.3139875411987305
0.2909843444824219,0.3174104690551758
0.2909843444824219,0.3174104690551758
0.2913162231445313,0.3140876770019531
0.2913162231445313,0.3140876770019531
0.2935009002685547,0.3176794052124023
0.2935009002685547,0.3176794052124023
0.2899446487426758,0.3141923904418945
0.2899446487426758,0.3141923904418945
0.2941148757934570,0.3188318252563476
0.2941148757934570,0.3188318252563476
0.2925785064697266,0.3185857772827148
0.2925785064697266,0.3185857772827148
0.2925401687622070,0.3162992477416992
0.2925401687622070,0.3162992477416992
0.2939792633056640,0.3191562652587890
0.2909786224365234,0.3191562652587890
0.2909105300903320,0.3178401947021484
0.2909105300903320,0.3178401947021484
0.2945674896240234,0.3178693771362305
0.2945674896240234,0.3178693771362305
0.2929258346557617,0.3189605712890625
0.2929258346557617,0.3189605712890625
0.2924743652343750,0.3157253265380859
0.2924743652343750,0.3157253265380859
0.2945949554443359,0.3215623855590820
0.2945949554443359,0.3215623855590820
0.2914117813110351,0.3169710159301758
0.2914117813110351,0.3169710159301758
0.2950447082519531,0.3190715789794922
0.2950447082519531,0.3190715789794922
0.2932691574096680,0.3201633453369140
0.2932691574096680,0.3201633453369140
0.2937658309936523,0.3200471878051758
0.2937658309936523,0.3200471878051758
0.2956192016601563,0.3217763900756836
0.2956192016601563,0.3217763900756836
0.2925905227661132,0.3190240859985352
0.2925905227661132,0.3190240859985352
0.2960741043090820,0.3201810836791992
0.2960741043090820,0.3201810836791992
0.2948226928710938,0.3242431640625000
0.2948226928710938,0.3242431640625000
0.2956884384155273,0.3222238540649414
0.2956884384155273,0.3222238540649414
0.2948032379150390,0.3182550430297851
0.2935014724731445,0.3182550430297851
0.2967830657958984,0.3247507095336914
0.2967830657958984,0.3247507095336914
0.2965908050537109,0.3221231460571289
0.2965908050537109,0.3221231460571289
0.3000789642333984,0.3255683898925781
0.3000789642333984,0.3255683898925781
0.2952346801757812,0.3208282470703125
0.2982799530029297,0.3208282470703125
0.2977140426635742,0.3246116638183594
0.2977140426635742,0.3246116638183594
0.2983875274658203,0.3272855758666992
0.2983875274658203,0.3272855758666992
0.2996120452880859,0.3237693786621094
0.2996120452880859,0.3237693786621094
0.2994352340698242,0.3241012573242187
0.2994352340698242,0.3241012573242187
0.2965547561645508,0.3271179199218750
0.2965547561645508,0.3271179199218750
0.2992933273315430,0.3276763916015625
0.2992933273315430,0.3276763916015625
0.3014608383178711,0.3295417785644531
0.3014608383178711,0.3295417785644531
0.2989957809448242,0.3223583221435547
0.2989957809448242,0.3223583221435547
0.3007593154907227,0.3303754806518555
0.3007593154907227,0.3303754806518555
0.2981643676757812,0.3296613693237305
0.2981643676757812,0.3296613693237305
0.3023649215698242,0.3293546676635742
0.3023649215698242,0.3293546676635742
0.3008743286132812,0.3280059814453125
0.3008743286132812,0.3280059814453125
0.3003690719604492,0.3286222457885742
0.3003690719604492,0.3286222457885742
0.3022682189941406,0.3334442138671875
0.3022682189941406,0.3334442138671875
0.3012823104858398,0.3318237304687500
0.3012823104858398,0.3318237304687500
0.3017435073852539,0.3278652191162109
0.3017435073852539,0.3278652191162109
0.3020662307739257,0.3343042373657226
0.3020662307739257,0.3343042373657226
0.3018133163452149,0.3310655593872070
0.3018133163452149,0.3310655593872070
0.3053438186645508,0.3350440979003906
0.3053438186645508,0.3350440979003906
0.3005401611328125,0.3301025390625000
0.3005401611328125,0.3301025390625000
0.3028369903564453,0.3338802337646484
0.3028369903564453,0.3338802337646484
0.3034206390380859,0.3370056152343750
0.3034206390380859,0.3370056152343750
0.3047035217285156,0.3327713012695312
0.3047035217285156,0.3327713012695312
0.3044563293457031,0.3330190658569336
