REDsignal,IRsignal
0.6300092697143554,0.7755895614624023
0.6346035003662109,0.7755895614624023
0.6371131896972656,0.7816337585449219
0.6371131896972656,0.7816337585449219
0.6307394027709960,0.7824651718139648
0.6307394027709960,0.7824651718139648
0.6340862274169922,0.7784271240234375
0.6340862274169922,0.7784271240234375
0.6374370574951171,0.7860414505004882
0.6374370574951171,0.7860414505004882
0.6321281433105469,0.7786331176757812
0.6321281433105469,0.7786331176757812
0.6398466110229492,0.7865352630615234
0.6398466110229492,0.7865352630615234
0.6336147308349609,0.7868820190429687
0.6336147308349609,0.7868820190429687
0.6371223449707031,0.7833852767944336
0.6371223449707031,0.7833852767944336
0.6404520034790039,0.7909137725830078
0.6404520034790039,0.7909137725830078
0.6350532531738281,0.7838985443115234
0.6350532531738281,0.7838985443115234
0.6425777435302734,0.7901046752929687
0.6425777435302734,0.7901046752929687
0.6361415863037109,0.7901853561401367
0.6361415863037109,0.7901853561401367
0.6392944335937499,0.7857822418212891
0.6392944335937499,0.7857822418212891
0.6424055099487305,0.7939310073852539
0.6424055099487305,0.7939310073852539
0.6367498397827148,0.7856214523315429
0.6367498397827148,0.7856214523315429
0.6440420150756836,0.7919923782348632
0.6440420150756836,0.7919923782348632
0.6371767044067382,0.7917812347412109
0.6371767044067382,0.7917812347412109
0.6401985168457031,0.7881637573242187
0.6401985168457031,0.7881637573242187
0.6430864334106445,0.7948076248168945
0.6430864334106445,0.7948076248168945
0.6371349334716797,0.7864889144897461
0.6371349334716797,0.7864889144897461
0.6443229675292969,0.7922796249389649
0.6443229675292969,0.7922796249389649
0.6374319076538085,0.7931213378906250
0.6374319076538085,0.7931213378906250
0.6403392791748047,0.7881889343261719
0.6403392791748047,0.7881889343261719
0.6432329177856445,0.7950576782226563
0.6432329177856445,0.7950576782226563
0.6374416351318359,0.7870559692382812
0.6374416351318359,0.7870559692382812
0.6444053649902344,0.7936460494995117
0.6444053649902344,0.7936460494995117
0.6375720977783202,0.7931350708007813
0.6375720977783202,0.7931350708007813
0.6403907775878906,0.7886375427246094
0.6403907775878906,0.7886375427246094
0.6433736801147460,0.7952224731445312
0.6433736801147460,0.7952224731445312
0.6373037338256836,0.7878576278686523
0.6373037338256836,0.7878576278686523
0.6443424224853516,0.7933433532714843
0.6443424224853516,0.7933433532714843
0.6375778198242187,0.7933691024780273
0.6375778198242187,0.7933691024780273
0.6400451660156250,0.7887233734130860
0.6400451660156250,0.7887233734130860
0.6432277679443359,0.7963411331176757
0.6432277679443359,0.7963411331176757
0.6372585296630859,0.7877151489257812
0.6372585296630859,0.7877151489257812
0.6443887710571289,0.7935533523559570
0.6443887710571289,0.7935533523559570
0.6373964309692383,0.7932260513305663
0.6373964309692383,0.7932260513305663
0.6399461746215820,0.7895341873168945
0.6399461746215820,0.7895341873168945
0.6431791305541992,0.7959920883178710
0.6431791305541992,0.7959920883178710
0.6371263504028321,0.7878633499145508
0.6371263504028321,0.7878633499145508
0.6440254211425781,0.7936769485473633
0.6440254211425781,0.7936769485473633
0.6373094558715821,0.7941925048828125
0.6373094558715821,0.7941925048828125
0.6398666381835937,0.7892589569091797
0.6398666381835937,0.7892589569091797
0.6431133270263671,0.7961391448974610
0.6431133270263671,0.7961391448974610
0.6370582580566406,0.7874902725219727
0.6370582580566406,0.7874902725219727
0.6440008163452148,0.7942617416381835
0.6440008163452148,0.7942617416381835
0.6372974395751952,0.7938886642456054
0.6372974395751952,0.7938886642456054
0.6396978378295898,0.7892761230468750
0.6396978378295898,0.7892761230468750
0.6427499771118164,0.7961030960083008
0.6427499771118164,0.7961030960083008
0.6367057800292969,0.7884304046630859
0.6367057800292969,0.7884304046630859
0.6437891006469726,0.7938703536987305
0.6437891006469726,0.7938703536987305
0.6371469497680664,0.7939367294311523
0.6371469497680664,0.7939367294311523
0.6395874023437500,0.7887668609619141
0.6395874023437500,0.7887668609619141
0.6427482604980469,0.7965929031372070
0.6427482604980469,0.7965929031372070
0.6364505767822265,0.7877780914306640
0.6364505767822265,0.7877780914306640
0.6433885574340820,0.7933937072753906
0.6433885574340820,0.7933937072753906
0.6364368438720703,0.7930629730224609
0.6364368438720703,0.7930629730224609
0.6385156631469726,0.7882867813110351
0.6385156631469726,0.7882867813110351
0.6413681030273437,0.7942892074584961
0.6413681030273437,0.7942892074584961
0.6349061965942383,0.7852363586425781
0.6349061965942383,0.7852363586425781
0.6411157608032226,0.7895433425903320
0.6411157608032226,0.7895433425903320
0.6339311599731445,0.7890638351440430
0.6339311599731445,0.7890638351440430
0.6352758407592773,0.7818878173828124
0.6352758407592773,0.7818878173828124
0.6377695083618163,0.7871206283569335
0.6377695083618163,0.7871206283569335
0.6306278228759765,0.7770309448242188
0.6306278228759765,0.7770309448242188
0.6371973037719726,0.7823604583740235
0.6371973037719726,0.7823604583740235
0.6303560256958007,0.7813447952270508
0.6303560256958007,0.7813447952270508
0.6326093673706055,0.7763042449951172
0.6326093673706055,0.7763042449951172
0.6359567642211914,0.7830842971801758
0.6359567642211914,0.7830842971801758
0.6300779342651367,0.7760953903198242
0.6300779342651367,0.7760953903198242
0.6374055862426757,0.7819633483886719
0.6327312469482421,0.7819633483886719
0.6312738418579101,0.7830699920654297
0.6312738418579101,0.7830699920654297
0.6340404510498047,0.7790771484375000
0.6340404510498047,0.7790771484375000
0.6380527496337890,0.7877357482910156
0.6380527496337890,0.7877357482910156
0.6323278427124023,0.7799285888671875
0.6323278427124023,0.7799285888671875
0.6399353027343749,0.7866210937500000
0.6399353027343749,0.7866210937500000
0.6337966918945312,0.7869907379150390
0.6337966918945312,0.7869907379150390
0.6365020751953124,0.7836587905883788
0.6365020751953124,0.7836587905883788
0.6400926589965820,0.7906745910644531
0.6400926589965820,0.7906745910644531
0.6341949462890625,0.7826957702636719
0.6341949462890625,0.7826957702636719
0.6413492202758789,0.7887937545776367
0.6413492202758789,0.7887937545776367
0.6349903106689453,0.7899770736694336
0.6349903106689453,0.7899770736694336
0.6373575210571288,0.7848003387451171
0.6373575210571288,0.7848003387451171
0.6410236358642578,0.7919717788696289
0.6410236358642578,0.7919717788696289
0.6346841812133789,0.7835151672363281
0.6346841812133789,0.7835151672363281
0.6418750762939452,0.7903547286987305
0.6418750762939452,0.7903547286987305
0.6351751327514649,0.7911907196044922
0.6437358856201172,0.7922063827514648
0.6437358856201172,0.7922063827514648
0.6334201812744140,0.7856466293334960
0.6418447494506836,0.7856466293334960
0.6403181076049804,0.7872785568237305
0.6403181076049804,0.7872785568237305
0.6386678695678710,0.7924907684326171
0.6386678695678710,0.7924907684326171
0.6372579574584961,0.7850652694702148
0.6372579574584961,0.7850652694702148
0.6417623519897461,0.7910161972045898
0.6417623519897461,0.7910161972045898
0.6332593917846679,0.7872190475463867
0.6332593917846679,0.7872190475463867
0.6401498794555663,0.7874530792236328
0.6401498794555663,0.7874530792236328
0.6404628753662109,0.7925502777099609
0.6404628753662109,0.7925502777099609
0.6353044509887695,0.7840347290039062
0.6353044509887695,0.7840347290039062
0.6416759490966797,0.7925399780273438
0.6416759490966797,0.7925399780273438
0.6332983016967774,0.7877363204956055
0.6332983016967774,0.7877363204956055
0.6418968200683594,0.7876899719238281
0.6418968200683594,0.7876899719238281
0.6386638641357422,0.7914516448974609
0.6386638641357422,0.7914516448974609
0.6354400634765625,0.7856214523315429
0.6354400634765625,0.7856214523315429
0.6417411804199219,0.7930149078369141
0.6366342544555664,0.7930149078369141
0.6352100372314453,0.7880441665649414
0.6352100372314453,0.7880441665649414
0.6403764724731446,0.7866405487060547
0.6403764724731446,0.7866405487060547
0.6389202117919922,0.7930830001831054
0.6389202117919922,0.7930830001831054
0.6355630874633789,0.7861118316650391
0.6355630874633789,0.7861118316650391
0.6436975479125976,0.7933937072753906
0.6436975479125976,0.7933937072753906
0.6336507797241211,0.7869867324829102
0.6336507797241211,0.7869867324829102
0.6404743194580078,0.7882049560546874
0.6404743194580078,0.7882049560546874
0.6390747070312500,0.7934749603271484
0.6390747070312500,0.7934749603271484
0.6374055862426757,0.7861513137817383
0.6374055862426757,0.7861513137817383
0.6418962478637695,0.7923088073730469
0.6366456985473633,0.7923088073730469
0.6336490631103515,0.7886117935180664
0.6336490631103515,0.7886117935180664
0.6404989242553710,0.7886993408203125
0.6404989242553710,0.7886993408203125
0.6409996032714843,0.7936437606811523
0.6409996032714843,0.7936437606811523
0.6355710983276367,0.7849147796630859
0.6355710983276367,0.7849147796630859
0.6422098159790038,0.7943155288696289
0.6422098159790038,0.7943155288696289
0.6344575881958008,0.7896108627319336
0.6344575881958008,0.7896108627319336
0.6429731369018554,0.7893287658691406
0.6429731369018554,0.7893287658691406
0.6398305892944336,0.7931928634643555
0.6398305892944336,0.7931928634643555
0.6360946655273437,0.7871509552001953
0.6360946655273437,0.7871509552001953
0.6423517227172851,0.7946508407592773
0.6423517227172851,0.7946508407592773
0.6359973907470703,0.7894088745117187
0.6359973907470703,0.7894088745117187
0.6408576965332031,0.7878988265991210
0.6408576965332031,0.7878988265991210
0.6401132583618164,0.7948144912719727
0.6401132583618164,0.7948144912719727
0.6360757827758788,0.7870822906494140
0.6360757827758788,0.7870822906494140
0.6440168380737304,0.7936363220214844
0.6440168380737304,0.7936363220214844
0.6336130142211914,0.7869363784790039
0.6336130142211914,0.7869363784790039
0.6396972656250000,0.7872556686401367
0.6396972656250000,0.7872556686401367
0.6380796432495117,0.7921056747436523
0.6395656585693359,0.7921056747436523
0.6358051300048828,0.7834413528442382
0.6358051300048828,0.7834413528442382
0.6397464752197265,0.7880418777465820
0.6397464752197265,0.7880418777465820
0.6308401107788085,0.7833795547485352
0.6308401107788085,0.7833795547485352
0.6372184753417969,0.7823587417602539
0.6372184753417969,0.7823587417602539
0.6373924255371094,0.7868007659912110
0.6373924255371094,0.7868007659912110
0.6317115783691406,0.7774589538574218
0.6317115783691406,0.7774589538574218
0.6380693435668945,0.7859315872192383
0.6380693435668945,0.7859315872192383
0.6301340103149414,0.7815198898315430
0.6301340103149414,0.7815198898315430
0.6385917663574219,0.7814695358276367
0.6385917663574219,0.7814695358276367
0.6360654830932617,0.7860385894775390
0.6360654830932617,0.7860385894775390
0.6327758789062500,0.7805992126464844
0.6327758789062500,0.7805992126464844
0.6397447586059570,0.7885654449462890
0.6397447586059570,0.7885654449462890
0.6338224411010742,0.7846607208251953
0.6338224411010742,0.7846607208251953
0.6390850067138671,0.7836061477661133
0.6390850067138671,0.7836061477661133
0.6382953643798828,0.7907981872558594
0.6382953643798828,0.7907981872558594
0.6351018905639648,0.7839820861816406
0.6351018905639648,0.7839820861816406
0.6436689376831054,0.7917943954467773
0.6436689376831054,0.7917943954467773
0.6340639114379882,0.7862096786499023
0.6340639114379882,0.7862096786499023
0.6410356521606445,0.7874794006347656
0.6410356521606445,0.7874794006347656
0.6400789260864258,0.7931665420532227
0.6400789260864258,0.7931665420532227
0.6382495880126953,0.7858737945556641
0.6382495880126953,0.7858737945556641
0.6429622650146484,0.7921920776367187
0.6429622650146484,0.7921920776367187
0.6352346420288085,0.7890838623046875
0.6352346420288085,0.7890838623046875
0.6419614791870117,0.7890872955322266
0.6419614791870117,0.7890872955322266
0.6427917480468750,0.7944311141967774
0.6427917480468750,0.7944311141967774
0.6374450683593750,0.7856306076049805
0.6374450683593750,0.7856306076049805
0.6440574645996093,0.7948602676391602
0.6440574645996093,0.7948602676391602
0.6360609054565429,0.7902666091918945
0.6360609054565429,0.7902666091918945
0.6445363998413086,0.7898414611816406
0.6445363998413086,0.7898414611816406
0.6416564941406250,0.7940374374389648
0.6416564941406250,0.7940374374389648
0.6379497528076171,0.7876527786254882
0.6379497528076171,0.7876527786254882
0.6444356918334960,0.7957151412963867
0.6444356918334960,0.7957151412963867
0.6381362915039063,0.7908514022827148
0.6381362915039063,0.7908514022827148
0.6428953170776367,0.7891136169433594
0.6428953170776367,0.7891136169433594
0.6418733596801758,0.7957735061645508
0.6418733596801758,0.7957735061645508
0.6380332946777344,0.7881031036376953
0.6380332946777344,0.7881031036376953
0.6462318420410156,0.7957008361816406
0.6462318420410156,0.7957008361816406
0.6361816406249999,0.7896852493286133
0.6361816406249999,0.7896852493286133
0.6428117752075195,0.7903964996337890
0.6428117752075195,0.7903964996337890
0.6414012908935547,0.7958639144897460
0.6414012908935547,0.7958639144897460
0.6393333435058594,0.7877820968627930
0.6393333435058594,0.7877820968627930
0.6438039779663086,0.7939607620239257
0.6438039779663086,0.7939607620239257
0.6355905532836914,0.7905052185058593
0.6355905532836914,0.7905052185058593
0.6418653488159179,0.7897888183593750
0.6418653488159179,0.7897888183593750
0.6424169540405273,0.7949655532836913
0.6424169540405273,0.7949655532836913
0.6365713119506836,0.7858325958251953
0.6365713119506836,0.7858325958251953
0.6428827285766602,0.7949609756469727
0.6428827285766602,0.7949609756469727
0.6351127624511719,0.7906007766723633
0.6351127624511719,0.7906007766723633
0.6435642242431641,0.7898609161376953
0.6435642242431641,0.7898609161376953
0.6405658721923828,0.7940443038940429
0.6405658721923828,0.7940443038940429
0.6368694305419922,0.7876110076904297
0.6368694305419922,0.7876110076904297
0.6433050155639648,0.7953523635864258
0.6433050155639648,0.7953523635864258
0.6372007369995117,0.7909423828125000
0.6435922622680664,0.7909423828125000
0.6417720794677734,0.7888578414916992
0.6417720794677734,0.7888578414916992
0.6406322479248047,0.7957242965698242
0.6406322479248047,0.7957242965698242
0.6368465423583984,0.7880384445190429
0.6368465423583984,0.7880384445190429
0.6451320648193359,0.7955417633056641
0.6451320648193359,0.7955417633056641
0.6352466583251953,0.7898311614990234
0.6352466583251953,0.7898311614990234
0.6419076919555664,0.7905447006225585
0.6419076919555664,0.7905447006225585
0.6408983230590820,0.7962450027465821
0.6408983230590820,0.7962450027465821
0.6392108917236328,0.7884956359863281
0.6392108917236328,0.7884956359863281
0.6438571929931640,0.7949672698974609
0.6438571929931640,0.7949672698974609
0.6359601974487304,0.7919923782348632
0.6359601974487304,0.7919923782348632
0.6424358367919921,0.7913635253906249
0.6424358367919921,0.7913635253906249
0.6433256149291992,0.7966192245483398
0.6433256149291992,0.7966192245483398
0.6375652313232422,0.7870296478271485
0.6375652313232422,0.7870296478271485
0.6438005447387695,0.7958175659179687
0.6438005447387695,0.7958175659179687
0.6356969833374023,0.7910287857055663
0.6356969833374023,0.7910287857055663
0.6437919616699218,0.7897470474243163
0.6437919616699218,0.7897470474243163
0.6405618667602538,0.7933839797973633
0.6405618667602538,0.7933839797973633
0.6365547180175781,0.7862451553344726
0.6365547180175781,0.7862451553344726
0.6427808761596679,0.7937541961669922
0.6427808761596679,0.7937541961669922
0.6367132186889648,0.7888492584228516
0.6367132186889648,0.7888492584228516
0.6411500930786133,0.7864397048950195
0.6421977996826171,0.7932237625122071
0.6365724563598633,0.7853525161743163
0.6365724563598633,0.7853525161743163
0.6449529647827148,0.7933273315429688
0.6449529647827148,0.7933273315429688
0.6354927062988281,0.7880498886108398
0.6354927062988281,0.7880498886108398
0.6419723510742187,0.7888818740844726
0.6419723510742187,0.7888818740844726
0.6413406372070313,0.7949220657348632
0.6413406372070313,0.7949220657348632
0.6396995544433594,0.7871864318847656
0.6396995544433594,0.7871864318847656
0.6444002151489258,0.7938297271728515
0.6444002151489258,0.7938297271728515
0.6367378234863281,0.7914018630981445
0.6450096130371094,0.7914018630981445
0.6433542251586913,0.7907592773437500
0.6433542251586913,0.7907592773437500
0.6444030761718750,0.7965522766113281
0.6444030761718750,0.7965522766113281
0.6388755798339844,0.7874616622924805
0.6388755798339844,0.7874616622924805
0.6452064514160156,0.7964406967163086
0.6452064514160156,0.7964406967163086
0.6374359130859375,0.7927768707275390
0.6374359130859375,0.7927768707275390
0.6455818176269531,0.7915071487426758
0.6455818176269531,0.7915071487426758
0.6427722930908203,0.7958078384399414
0.6427722930908203,0.7958078384399414
0.6387903213500976,0.7891307830810547
0.6387903213500976,0.7891307830810547
0.6452241897583008,0.7967405319213867
0.6452241897583008,0.7967405319213867
0.6391759872436523,0.7927900314331054
0.6391759872436523,0.7927900314331054
0.6434892654418946,0.7902688980102539
0.6434892654418946,0.7902688980102539
0.6426881790161133,0.7973167419433593
0.6426881790161133,0.7973167419433593
0.6387004852294922,0.7894775390625000
0.6387004852294922,0.7894775390625000
0.6468400955200195,0.7968332290649414
0.6468400955200195,0.7968332290649414
0.6370296478271484,0.7913984298706055
0.6370296478271484,0.7913984298706055
0.6431762695312500,0.7915643692016602
0.6431762695312500,0.7915643692016602
0.6421485900878906,0.7970026016235351
0.6421485900878906,0.7970026016235351
0.6400491714477539,0.7889659881591796
0.6400491714477539,0.7889659881591796
0.6444007873535156,0.7951309204101562
0.6444007873535156,0.7951309204101562
0.6363567352294922,0.7924318313598633
0.6363567352294922,0.7924318313598633
0.6426132202148437,0.7916170120239258
0.6426132202148437,0.7916170120239258
0.6436374664306640,0.7969104766845703
0.6436374664306640,0.7969104766845703
0.6377563476562500,0.7876253128051758
0.6377563476562500,0.7876253128051758
0.6396692276000976,0.7907089233398438
0.6396692276000976,0.7907089233398438
0.6437564849853515,0.7971467971801758
0.6437564849853515,0.7971467971801758
0.6375062942504882,0.7895811080932617
0.6375062942504882,0.7895811080932617
0.6442560195922852,0.7941535949707031
0.6442560195922852,0.7941535949707031
0.6384429931640625,0.7964086532592773
0.6384429931640625,0.7964086532592773
0.6397607803344726,0.7906883239746093
0.6397607803344726,0.7906883239746093
0.6440860748291015,0.7974786758422852
0.6440860748291015,0.7974786758422852
0.6377815246582031,0.7897647857666016
0.6377815246582031,0.7897647857666016
0.6447183609008789,0.7952064514160156
0.6447183609008789,0.7952064514160156
0.6389883041381835,0.7965597152709961
0.6389883041381835,0.7965597152709961
0.6402809143066406,0.7912982940673828
0.6402809143066406,0.7912982940673828
0.6445238113403320,0.7981372833251953
0.6445238113403320,0.7981372833251953
0.6383920669555664,0.7914007186889648
0.6383920669555664,0.7914007186889648
0.6454238891601562,0.7957174301147460
0.6454238891601562,0.7957174301147460
0.6399398803710937,0.7973373413085937
0.6399398803710937,0.7973373413085937
0.6409612655639648,0.7916490554809570
0.6409612655639648,0.7916490554809570
0.6453678131103515,0.7994195938110351
0.6453678131103515,0.7994195938110351
0.6391176223754883,0.7918739318847656
0.6391176223754883,0.7918739318847656
0.6461969375610351,0.7963371276855469
0.6392148971557617,0.7963371276855469
0.6402917861938476,0.7979473114013672
0.6402917861938476,0.7979473114013672
0.6416633605957031,0.7934251785278320
0.6416633605957031,0.7934251785278320
0.6459394454956054,0.7997755050659180
0.6459394454956054,0.7997755050659180
0.6397882461547851,0.7924741744995117
0.6397882461547851,0.7924741744995117
0.6465425491333008,0.7964366912841797
0.6465425491333008,0.7964366912841797
0.6407632827758789,0.7989721298217773
0.6407632827758789,0.7989721298217773
0.6417634963989257,0.7929193496704101
0.6417634963989257,0.7929193496704101
0.6458822250366211,0.7995981216430664
0.6458822250366211,0.7995981216430664
0.6393356323242188,0.7920896530151367
0.6393356323242188,0.7920896530151367
0.6458570480346679,0.7965065002441406
0.6458570480346679,0.7965065002441406
0.6399564743041992,0.7975181579589844
0.6399564743041992,0.7975181579589844
0.6408348083496094,0.7915546417236328
0.6408348083496094,0.7915546417236328
0.6445558547973632,0.7972143173217773
0.6445558547973632,0.7972143173217773
0.6378152847290038,0.7903690338134766
0.6378152847290038,0.7903690338134766
0.6443149566650390,0.7937101364135742
0.6443149566650390,0.7937101364135742
0.6383102416992187,0.7950433731079102
0.6383102416992187,0.7950433731079102
0.6390678405761718,0.7891267776489258
0.6390678405761718,0.7891267776489258
0.6431619644165039,0.7962232589721679
0.6431619644165039,0.7962232589721679
0.6367097854614258,0.7885437011718750
0.6367097854614258,0.7885437011718750
0.6433330535888672,0.7925582885742187
0.6433330535888672,0.7925582885742187
0.6374994277954101,0.7938125610351562
0.6374994277954101,0.7938125610351562
0.6386392593383788,0.7894031524658203
0.6386392593383788,0.7894031524658203
0.6429033279418945,0.7958335876464844
0.6429033279418945,0.7958335876464844
0.6365667343139648,0.7888446807861328
0.6365667343139648,0.7888446807861328
0.6432741165161132,0.7929983139038086
0.6432741165161132,0.7929983139038086
0.6379674911499024,0.7956808090209960
0.6379674911499024,0.7956808090209960
0.6392606735229492,0.7901172637939453
0.6392606735229492,0.7901172637939453
0.6437501907348633,0.7969585418701172
0.6437501907348633,0.7969585418701172
0.6373289108276367,0.7896875381469727
0.6373289108276367,0.7896875381469727
0.6443607330322265,0.7948282241821288
0.6443607330322265,0.7948282241821288
0.6389522552490234,0.7964218139648437
0.6389522552490234,0.7964218139648437
0.6401739120483398,0.7913732528686523
0.6401739120483398,0.7913732528686523
0.6444883346557617,0.7981824874877930
0.6444883346557617,0.7981824874877930
0.6382856369018555,0.7917045593261719
0.6382856369018555,0.7917045593261719
0.6451818466186523,0.7955657958984375
0.6451818466186523,0.7955657958984375
0.6398929595947266,0.7973934173583984
0.6398929595947266,0.7973934173583984
0.6408342361450196,0.7915752410888671
0.6408342361450196,0.7915752410888671
0.6452688217163086,0.7994705200195312
0.6452688217163086,0.7994705200195312
0.6389585494995117,0.7919580459594726
0.6389585494995117,0.7919580459594726
0.6457798004150390,0.7960950851440429
0.6457798004150390,0.7960950851440429
0.6402591705322266,0.7979885101318359
0.6402591705322266,0.7979885101318359
0.6412513732910156,0.7931247711181640
0.6412513732910156,0.7931247711181640
0.6456779479980469,0.7994390487670898
0.6456779479980469,0.7994390487670898
0.6393081665039062,0.7923500061035156
0.6393081665039062,0.7923500061035156
0.6458971023559570,0.7957752227783202
0.6458971023559570,0.7957752227783202
0.6402849197387696,0.7986625671386719
0.6402849197387696,0.7986625671386719
0.6412422180175781,0.7927391052246093
0.6412422180175781,0.7927391052246093
0.6454811096191406,0.7995311737060546
0.6429325103759765,0.7995311737060546
0.6388658523559571,0.7921125411987304
0.6388658523559571,0.7921125411987304
0.6455972671508788,0.7965414047241210
0.6455972671508788,0.7965414047241210
0.6398952484130859,0.7980594635009766
0.6398952484130859,0.7980594635009766
0.6408920288085938,0.7925365447998046
0.6408920288085938,0.7925365447998046
0.6450754165649414,0.7989686965942383
0.6425777435302734,0.7989686965942383
0.6387039184570312,0.7925090789794922
0.6387039184570312,0.7925090789794922
0.6454130172729492,0.7959863662719726
0.6454130172729492,0.7959863662719726
0.6397235870361327,0.7980537414550781
0.6448516845703125,0.7980537414550781
0.6406293869018554,0.7922990798950195
0.6406293869018554,0.7922990798950195
0.6448104858398437,0.7998538970947265
0.6448104858398437,0.7998538970947265
0.6385477066040038,0.7922750473022461
0.6385477066040038,0.7922750473022461
0.6453254699707031,0.7959663391113281
0.6453254699707031,0.7959663391113281
0.6396291732788085,0.7977310180664062
0.6396291732788085,0.7977310180664062
0.6406454086303711,0.7931648254394531
0.6406454086303711,0.7931648254394531
0.6450639724731445,0.7995689392089843
0.6450639724731445,0.7995689392089843
0.6387262344360352,0.7926074981689453
0.6387262344360352,0.7926074981689453
0.6454238891601562,0.7962123870849609
0.6454238891601562,0.7962123870849609
0.6399690628051757,0.7988433837890625
0.6399690628051757,0.7988433837890625
0.6408514022827149,0.7930572509765624
0.6408514022827149,0.7930572509765624
0.6452739715576171,0.7995483398437500
0.6452739715576171,0.7995483398437500
0.6390169143676757,0.7925205230712891
0.6390169143676757,0.7925205230712891
0.6456487655639648,0.7970323562622070
0.6456487655639648,0.7970323562622070
0.6401653289794922,0.7987667083740234
0.6401653289794922,0.7987667083740234
0.6411380767822266,0.7933055877685546
0.6411380767822266,0.7933055877685546
0.6454771041870117,0.8000427246093750
0.6454771041870117,0.8000427246093750
0.6391324996948242,0.7936626434326172
0.6391324996948242,0.7936626434326172
0.6458387374877930,0.7966512680053711
0.6458387374877930,0.7966512680053711
0.6403049468994141,0.7987186431884765
0.6403049468994141,0.7987186431884765
0.6408908843994140,0.7924495697021484
0.6408908843994140,0.7924495697021484
0.6450130462646484,0.7999265670776367
0.6450130462646484,0.7999265670776367
0.6383377075195312,0.7919935226440430
0.6383377075195312,0.7919935226440430
0.6448041915893554,0.7951332092285156
0.6448041915893554,0.7951332092285156
0.6388818740844726,0.7966426849365235
0.6388818740844726,0.7966426849365235
0.6394294738769531,0.7912565231323242
0.6394294738769531,0.7912565231323242
0.6436712265014648,0.7973241806030273
0.6436712265014648,0.7973241806030273
0.6371383666992188,0.7898065567016601
0.6371383666992188,0.7898065567016601
0.6436243057250977,0.7928770065307617
0.6436243057250977,0.7928770065307617
0.6381374359130859,0.7958026885986328
0.6381374359130859,0.7958026885986328
0.6389820098876953,0.7899421691894531
0.6389820098876953,0.7899421691894531
0.6433696746826172,0.7969339370727538
0.6433696746826172,0.7969339370727538
0.6369775772094727,0.7898197174072266
0.6369775772094727,0.7898197174072266
0.6438337326049804,0.7941020965576172
0.6438337326049804,0.7941020965576172
0.6385162353515624,0.7961162567138672
0.6385162353515624,0.7961162567138672
0.6395307540893554,0.7906808853149414
0.6395307540893554,0.7906808853149414
0.6439825057983398,0.7975198745727539
0.6439825057983398,0.7975198745727539
0.6377511978149414,0.7915643692016602
0.6377511978149414,0.7915643692016602
0.6446462631225586,0.7947561264038085
0.6446462631225586,0.7947561264038085
0.6394020080566406,0.7973144531249999
0.6394020080566406,0.7973144531249999
0.6400588989257813,0.7917097091674804
0.6400588989257813,0.7917097091674804
0.6446050643920899,0.7993137359619140
0.6446050643920899,0.7993137359619140
0.6382238388061523,0.7919620513916016
0.6382238388061523,0.7919620513916016
0.6450599670410156,0.7953981399536133
0.6450599670410156,0.7953981399536133
0.6394781112670899,0.7974855422973632
0.6394781112670899,0.7974855422973632
0.6402042388916015,0.7927007675170898
0.6402042388916015,0.7927007675170898
0.6446039199829101,0.7992427825927734
0.6446039199829101,0.7992427825927734
0.6383686065673828,0.7923196792602539
0.6383686065673828,0.7923196792602539
0.6448894500732422,0.7954639434814453
0.6448894500732422,0.7954639434814453
0.6395982742309571,0.7985389709472656
0.6395982742309571,0.7985389709472656
0.6404943466186523,0.7925788879394531
0.6404943466186523,0.7925788879394531
0.6449409484863281,0.7995780944824219
0.6449409484863281,0.7995780944824219
0.6384956359863281,0.7921594619750977
0.6384956359863281,0.7921594619750977
0.6452585220336914,0.7963811874389648
0.6452585220336914,0.7963811874389648
0.6398620605468750,0.7983621597290039
0.6398620605468750,0.7983621597290039
0.6406414031982421,0.7929513931274413
0.6406414031982421,0.7929513931274413
0.6450742721557617,0.7997743606567382
0.6450742721557617,0.7997743606567382
0.6387073516845703,0.7934640884399414
0.6387073516845703,0.7934640884399414
0.6454759597778320,0.7963153839111328
0.6454759597778320,0.7963153839111328
0.6400857925415039,0.7988777160644531
0.6400857925415039,0.7988777160644531
0.6407329559326171,0.7927688598632813
0.6407329559326171,0.7927688598632813
0.6452161788940429,0.8005771636962891
0.6452161788940429,0.8005771636962891
0.6386816024780273,0.7931779861450196
0.6386816024780273,0.7931779861450196
0.6456487655639648,0.7965328216552734
0.6456487655639648,0.7965328216552734
0.6399639129638671,0.7989933013916015
0.6399639129638671,0.7989933013916015
0.6408708572387695,0.7938514709472656
0.6408708572387695,0.7938514709472656
0.6453735351562500,0.8004644393920898
0.6453735351562500,0.8004644393920898
0.6388332366943359,0.7934326171875000
0.6388332366943359,0.7934326171875000
0.6455549240112305,0.7962564468383789
0.6455549240112305,0.7962564468383789
0.6401229858398437,0.7997062683105468
0.6401229858398437,0.7997062683105468
0.6408811569213867,0.7935997009277344
0.6408811569213867,0.7935997009277344
0.6454353332519531,0.8007625579833985
0.6454353332519531,0.8007625579833985
0.6389591217041015,0.7935390472412109
0.6389591217041015,0.7935390472412109
0.6458719253540038,0.7973871231079102
0.6458719253540038,0.7973871231079102
0.6480216979980469,0.7996490478515624
0.6404108047485352,0.7996490478515624
0.6380361557006836,0.7959045410156250
0.6461111068725586,0.7959045410156250
0.6440586090087891,0.7947275161743164
0.6440586090087891,0.7947275161743164
0.6435653686523437,0.8006956100463867
0.6449563980102538,0.8006956100463867
0.6413326263427734,0.7923900604248046
0.6413326263427734,0.7923900604248046
0.6460716247558593,0.7983856201171875
0.6460716247558593,0.7983856201171875
0.6379720687866210,0.7973745346069335
0.6379720687866210,0.7973745346069335
0.6439287185668945,0.7950925827026367
0.6439287185668945,0.7950925827026367
0.6456396102905273,0.8009033203125000
0.6456396102905273,0.8009033203125000
0.6392349243164063,0.7911615371704102
0.6392349243164063,0.7911615371704102
0.6460315704345703,0.7996828079223632
0.6460315704345703,0.7996828079223632
0.6379228591918945,0.7972669601440430
0.6379228591918945,0.7972669601440430
0.6456653594970703,0.7947446823120117
0.6456653594970703,0.7947446823120117
0.6433044433593750,0.7990665435791016
0.6433044433593750,0.7990665435791016
0.6388732910156250,0.7916255950927734
0.6388732910156250,0.7916255950927734
0.6451515197753906,0.7985240936279296
0.6451515197753906,0.7985240936279296
0.6387296676635742,0.7953100204467773
0.6387296676635742,0.7953100204467773
0.6424266815185546,0.7910190582275390
0.6424266815185546,0.7910190582275390
0.6418573379516601,0.7976640701293946
0.6418573379516601,0.7976640701293946
0.6371744155883788,0.7887599945068359
0.6371744155883788,0.7887599945068359
0.6455200195312499,0.7956579208374023
0.6455200195312499,0.7956579208374023
0.6355030059814453,0.7918029785156250
0.6355030059814453,0.7918029785156250
0.6412256240844726,0.7901847839355468
0.6412256240844726,0.7901847839355468
0.6411071777343750,0.7963880538940430
0.6411071777343750,0.7963880538940430
0.6387668609619140,0.7879577636718750
0.6391519546508789,0.7879577636718750
0.6434743881225585,0.7941204071044922
0.6434743881225585,0.7941204071044922
0.6357204437255859,0.7934274673461914
0.6357204437255859,0.7934274673461914
0.6417486190795898,0.7910476684570312
0.6417486190795898,0.7910476684570312
0.6436946868896484,0.7973196029663085
0.6436946868896484,0.7973196029663085
0.6376287460327148,0.7880292892456054
0.6376287460327148,0.7880292892456054
0.6443996429443359,0.7968286514282227
0.6443996429443359,0.7968286514282227
0.6366857528686524,0.7951086044311523
0.6366857528686524,0.7951086044311523
0.6446273803710937,0.7926343917846680
0.6446273803710937,0.7926343917846680
0.6426567077636719,0.7975250244140625
0.6426567077636719,0.7975250244140625
0.6383943557739258,0.7905069351196289
0.6383943557739258,0.7905069351196289
0.6451950073242188,0.7979152679443359
0.6451950073242188,0.7979152679443359
0.6392086029052734,0.7958976745605468
0.6392086029052734,0.7958976745605468
0.6429834365844727,0.7919483184814453
0.6429834365844727,0.7919483184814453
0.6430641174316406,0.7993886947631835
0.6430641174316406,0.7993886947631835
0.6387331008911132,0.7912925720214844
0.6387331008911132,0.7912925720214844
0.6474134445190429,0.7983987808227538
0.6474134445190429,0.7983987808227538
0.6375017166137695,0.7951000213623046
0.6375017166137695,0.7951000213623046
0.6433719635009766,0.7937782287597656
0.6433719635009766,0.7937782287597656
0.6433427810668945,0.7997343063354492
0.6433427810668945,0.7997343063354492
0.6409011840820312,0.7914402008056640
0.6409011840820312,0.7914402008056640
0.6455532073974609,0.7974420547485351
0.6455532073974609,0.7974420547485351
0.6375577926635742,0.7965053558349610
0.6375577926635742,0.7965053558349610
0.6434412002563477,0.7940923690795898
0.6434412002563477,0.7940923690795898
0.6453145980834961,0.7998865127563476
0.6453145980834961,0.7998865127563476
0.6389499664306640,0.7903535842895507
0.6389499664306640,0.7903535842895507
0.6456264495849610,0.7989864349365234
0.6456264495849610,0.7989864349365234
0.6376144409179687,0.7968584060668945
0.6376144409179687,0.7968584060668945
0.6455698013305664,0.7942611694335937
0.6455698013305664,0.7942611694335937
0.6434263229370117,0.7988988876342773
0.6434263229370117,0.7988988876342773
0.6389659881591797,0.7918201446533203
0.6389659881591797,0.7918201446533203
0.6456848144531250,0.7994029998779296
0.6456848144531250,0.7994029998779296
0.6396978378295898,0.7972085952758788
0.6396978378295898,0.7972085952758788
0.6436569213867187,0.7932798385620117
0.6436569213867187,0.7932798385620117
0.6436580657958985,0.8005130767822265
0.6436580657958985,0.8005130767822265
0.6391880035400390,0.7922286987304688
0.6391880035400390,0.7922286987304688
0.6479970932006835,0.7995718002319335
0.6479970932006835,0.7995718002319335
0.6379217147827149,0.7962455749511719
0.6379217147827149,0.7962455749511719
0.6438880920410156,0.7948070526123047
0.6438880920410156,0.7948070526123047
0.6438772201538085,0.8010211944580078
0.6438772201538085,0.8010211944580078
0.6414710998535156,0.7924701690673828
0.6414710998535156,0.7924701690673828
0.6460836410522460,0.7987112045288086
0.6460836410522460,0.7987112045288086
0.6382101058959960,0.7978820800781250
0.6382101058959960,0.7978820800781250
0.6441123962402343,0.7952138900756835
0.6441123962402343,0.7952138900756835
0.6460470199584961,0.8011625289916992
0.6460470199584961,0.8011625289916992
0.6397619247436523,0.7915260314941406
0.6397619247436523,0.7915260314941406
0.6463233947753906,0.8002784729003906
0.6463233947753906,0.8002784729003906
0.6383531570434570,0.7983650207519531
0.6383531570434570,0.7983650207519531
0.6462718963623046,0.7954862594604492
0.6462718963623046,0.7954862594604492
0.6441541671752929,0.8001319885253906
0.6441541671752929,0.8001319885253906
0.6397871017456055,0.7931253433227539
0.6421777725219726,0.7931253433227539
0.6465230941772461,0.8003980636596679
0.6465230941772461,0.8003980636596679
0.6405097961425781,0.7984754562377929
0.6405097961425781,0.7984754562377929
0.6444065093994140,0.7943927764892578
0.6444065093994140,0.7943927764892578
0.6442726135253906,0.8015007019042969
0.6442726135253906,0.8015007019042969
0.6397161483764648,0.7931476593017578
0.6397161483764648,0.7931476593017578
0.6481149673461913,0.7998350143432617
0.6481149673461913,0.7998350143432617
0.6379343032836914,0.7960052490234375
0.6379343032836914,0.7960052490234375
0.6433959960937500,0.7937341690063476
0.6433959960937500,0.7937341690063476
0.6429307937622070,0.7989652633666992
0.6429307937622070,0.7989652633666992
0.6399147033691406,0.7898231506347656
0.6399147033691406,0.7898231506347656
0.6440614700317383,0.7944408416748047
0.6440614700317383,0.7944408416748047
0.6354955673217774,0.7928106307983398
0.6354955673217774,0.7928106307983398
0.6408067703247070,0.7892246246337891
0.6408067703247070,0.7892246246337891
0.6424020767211914,0.7941936492919922
0.6424020767211914,0.7941936492919922
0.6357336044311523,0.7840072631835937
0.6357336044311523,0.7840072631835937
0.6422573089599609,0.7920289993286133
0.6422573089599609,0.7920289993286133
0.6342521667480469,0.7901910781860352
0.6342521667480469,0.7901910781860352
0.6421892166137695,0.7875446319580078
0.6421892166137695,0.7875446319580078
0.6403604507446289,0.7926527023315429
0.6403604507446289,0.7926527023315429
0.6361095428466796,0.7859590530395507
0.6361095428466796,0.7859590530395507
0.6430109024047851,0.7937273025512696
0.6430109024047851,0.7937273025512696
0.6372917175292968,0.7920879364013672
0.6372917175292968,0.7920879364013672
0.6413085937499999,0.7883554458618164
0.6413085937499999,0.7883554458618164
0.6415775299072265,0.7959617614746094
0.6415775299072265,0.7959617614746094
0.6373191833496094,0.7880086898803711
0.6373191833496094,0.7880086898803711
0.6461620330810547,0.7954954147338867
0.6461620330810547,0.7954954147338867
0.6363309860229492,0.7926658630371094
0.6363309860229492,0.7926658630371094
0.6422756195068359,0.7911432266235351
0.6422756195068359,0.7911432266235351
0.6424398422241211,0.7975667953491211
0.6424398422241211,0.7975667953491211
0.6399261474609375,0.7891719818115234
0.6399261474609375,0.7891719818115234
0.6447149276733398,0.7950416564941406
0.6447149276733398,0.7950416564941406
0.6367149353027344,0.7946805953979492
0.6367149353027344,0.7946805953979492
0.6424341201782227,0.7918270111083984
0.6424341201782227,0.7918270111083984
0.6446125030517578,0.7977836608886718
0.6446125030517578,0.7977836608886718
0.6380544662475586,0.7882867813110351
0.6380544662475586,0.7882867813110351
0.6446439743041992,0.7967090606689453
0.6446439743041992,0.7967090606689453
0.6366548538208008,0.7951160430908203
0.6366548538208008,0.7951160430908203
0.6444723129272460,0.7920043945312499
0.6444723129272460,0.7920043945312499
0.6425548553466797,0.7967611312866211
0.6425548553466797,0.7967611312866211
0.6379840850830077,0.7897104263305664
0.6379840850830077,0.7897104263305664
0.6445959091186523,0.7967479705810546
0.6445959091186523,0.7967479705810546
0.6386827468872071,0.7952396392822265
0.6386827468872071,0.7952396392822265
0.6425399780273438,0.7908845901489258
0.6425399780273438,0.7908845901489258
0.6425222396850586,0.7982454299926758
0.6425222396850586,0.7982454299926758
0.6380441665649413,0.7901063919067383
0.6380441665649413,0.7901063919067383
0.6467468261718750,0.7971250534057617
0.6467468261718750,0.7971250534057617
0.6367767333984374,0.7942388534545898
0.6367767333984374,0.7942388534545898
0.6427230834960938,0.7924827575683594
0.6427230834960938,0.7924827575683594
0.6427745819091797,0.7986299514770507
0.6427745819091797,0.7986299514770507
0.6401418685913086,0.7903759002685546
0.6401418685913086,0.7903759002685546
0.6451841354370117,0.7961860656738281
0.6451841354370117,0.7961860656738281
0.6370096206665039,0.7958724975585937
0.6370096206665039,0.7958724975585937
0.6428747177124023,0.7931161880493164
0.6380487442016601,0.7931161880493164
0.6450170516967774,0.7991706848144531
0.6450170516967774,0.7991706848144531
0.6384424209594727,0.7896005630493164
0.6384424209594727,0.7896005630493164
0.6453214645385742,0.7978088378906250
0.6453214645385742,0.7978088378906250
0.6374227523803710,0.7963857650756836
0.6374227523803710,0.7963857650756836
0.6451715469360352,0.7932935714721679
0.6451715469360352,0.7932935714721679
0.6433525085449219,0.7984004974365234
0.6433525085449219,0.7984004974365234
0.6385980606079101,0.7912387847900391
0.6385980606079101,0.7912387847900391
0.6454685211181640,0.7982242584228515
0.6454685211181640,0.7982242584228515
0.6394884109497070,0.7966260910034180
0.6394884109497070,0.7966260910034180
0.6431230545043946,0.7921806335449219
0.6431230545043946,0.7921806335449219
0.6435510635375976,0.7998882293701172
0.6435510635375976,0.7998882293701172
0.6387966156005859,0.7914779663085937
0.6387966156005859,0.7914779663085937
0.6476217269897461,0.7984834671020508
0.6476217269897461,0.7984834671020508
0.6377180099487304,0.7957042694091797
0.6377180099487304,0.7957042694091797
0.6432844161987304,0.7937828063964844
0.6432844161987304,0.7937828063964844
0.6436511993408203,0.8003202438354492
0.6436511993408203,0.8003202438354492
0.6408931732177734,0.7917263031005859
0.6408931732177734,0.7917263031005859
0.6457843780517578,0.7972000122070312
0.6457843780517578,0.7972000122070312
0.6376922607421874,0.7968263626098633
0.6376922607421874,0.7968263626098633
0.6432306289672851,0.7935081481933594
0.6432306289672851,0.7935081481933594
0.6451189041137695,0.7995861053466796
0.6451189041137695,0.7995861053466796
0.6382026672363281,0.7894638061523437
0.6382026672363281,0.7894638061523437
0.6371332168579101,0.7916198730468750
0.6363647460937499,0.7916198730468750
0.6440179824829101,0.7975708007812500
0.6440179824829101,0.7975708007812500
0.6368150711059570,0.7903610229492187
0.6368150711059570,0.7903610229492187
0.6431550979614258,0.7915082931518554
0.6431550979614258,0.7915082931518554
0.6377111434936523,0.7949031829833985
0.6377111434936523,0.7949031829833985
0.6375658035278320,0.7877008438110351
0.6375658035278320,0.7877008438110351
0.6422372817993164,0.7943492889404297
0.6422372817993164,0.7943492889404297
0.6351236343383789,0.7876510620117188
0.6351236343383789,0.7876510620117188
0.6419826507568359,0.7901985168457031
0.6419826507568359,0.7901985168457031
0.6369678497314453,0.7933221817016601
0.6369678497314453,0.7933221817016601
0.6373025894165039,0.7874399185180664
0.6373025894165039,0.7874399185180664
0.6422080993652344,0.7941375732421875
0.6422080993652344,0.7941375732421875
0.6355762481689453,0.7890993118286133
0.6355762481689453,0.7890993118286133
0.6427883148193360,0.7911117553710937
0.6380178451538085,0.7911117553710937
0.6379949569702148,0.7950342178344726
0.6379949569702148,0.7950342178344726
0.6383600234985352,0.7891410827636719
0.6383600234985352,0.7891410827636719
0.6435327529907227,0.7969179153442383
0.6435327529907227,0.7969179153442383
0.6367790222167968,0.7904777526855469
0.6367790222167968,0.7904777526855469
0.6439029693603515,0.7927608489990234
0.6439029693603515,0.7927608489990234
0.6389213562011719,0.7960327148437499
0.6389213562011719,0.7960327148437499
0.6392343521118163,0.7910202026367187
0.6392343521118163,0.7910202026367187
0.6442863464355468,0.7976606369018554
0.6442863464355468,0.7976606369018554
0.6375200271606445,0.7914293289184570
0.6375200271606445,0.7914293289184570
0.6443435668945312,0.7935441970825196
0.6443435668945312,0.7935441970825196
0.6393802642822265,0.7976806640624999
0.6393802642822265,0.7976806640624999
0.6396417617797852,0.7913137435913086
0.6396417617797852,0.7913137435913086
0.6447229385375977,0.7981367111206055
0.6447229385375977,0.7981367111206055
0.6377717971801757,0.7915832519531250
0.6377717971801757,0.7915832519531250
0.6447195053100586,0.7945152282714844
0.6447195053100586,0.7945152282714844
0.6396903991699219,0.7977355957031250
0.6396903991699219,0.7977355957031250
0.6399478912353516,0.7918190002441406
0.6399478912353516,0.7918190002441406
0.6448894500732422,0.7985904693603515
0.6448894500732422,0.7985904693603515
0.6380813598632812,0.7928838729858398
0.6380813598632812,0.7928838729858398
0.6450908660888671,0.7946416854858398
0.6450908660888671,0.7946416854858398
0.6400680541992188,0.7981842041015624
0.6400680541992188,0.7981842041015624
0.6400806427001953,0.7917629241943359
0.6400806427001953,0.7917629241943359
0.6452241897583008,0.7995889663696288
0.6452241897583008,0.7995889663696288
0.6382158279418945,0.7928306579589843
0.6382158279418945,0.7928306579589843
0.6451217651367187,0.7949884414672851
0.6451217651367187,0.7949884414672851
0.6401510238647461,0.7983455657958984
0.6401510238647461,0.7983455657958984
0.6401962280273438,0.7929176330566406
0.6401962280273438,0.7929176330566406
0.6452201843261719,0.7994453430175781
0.6452201843261719,0.7994453430175781
0.6383554458618164,0.7931968688964843
0.6383554458618164,0.7931968688964843
0.6452470779418945,0.7946943283081055
0.6452470779418945,0.7946943283081055
0.6402774810791015,0.7991020202636718
0.6402774810791015,0.7991020202636718
0.6402711868286133,0.7926332473754882
0.6402711868286133,0.7926332473754882
0.6453535079956054,0.7997549057006835
0.6453535079956054,0.7997549057006835
0.6381563186645508,0.7932329177856445
0.6381563186645508,0.7932329177856445
0.6453014373779297,0.7958227157592773
0.6453014373779297,0.7958227157592773
0.6403163909912110,0.7989881515502929
0.6403163909912110,0.7989881515502929
0.6405504226684570,0.7929164886474609
0.6405504226684570,0.7929164886474609
0.6453575134277344,0.7994802474975585
0.6453575134277344,0.7994802474975585
0.6385190963745117,0.7940849304199219
0.6385190963745117,0.7940849304199219
0.6453351974487305,0.7955514907836914
0.6453351974487305,0.7955514907836914
0.6405218124389648,0.7992118835449219
0.6405218124389648,0.7992118835449219
0.6404588699340820,0.7929101943969726
0.6404588699340820,0.7929101943969726
0.6454278945922851,0.8004524230957031
0.6454278945922851,0.8004524230957031
0.6384956359863281,0.7936540603637695
0.6384956359863281,0.7936540603637695
0.6454948425292969,0.7957191467285156
0.6454948425292969,0.7957191467285156
0.6404119491577148,0.7988622665405273
0.6404119491577148,0.7988622665405273
0.6404016494750976,0.7935304641723633
0.6404016494750976,0.7935304641723633
0.6454210281372070,0.8000478744506836
0.6454210281372070,0.8000478744506836
0.6385408401489258,0.7937587738037110
0.6385408401489258,0.7937587738037110
0.6452350616455078,0.7954668045043946
0.6452350616455078,0.7954668045043946
0.6402408599853515,0.7993978500366211
0.6402408599853515,0.7993978500366211
0.6401721954345703,0.7925806045532227
0.6401721954345703,0.7925806045532227
0.6449569702148438,0.7992759704589844
0.6449569702148438,0.7992759704589844
0.6374771118164062,0.7918762207031250
0.6374771118164062,0.7918762207031250
0.6441890716552734,0.7940093994140625
0.6441890716552734,0.7940093994140625
0.6388154983520508,0.7965974807739258
0.6388154983520508,0.7965974807739258
0.6386627197265625,0.7899753570556640
0.6386627197265625,0.7899753570556640
0.6432746887207031,0.7961357116699218
0.6432746887207031,0.7961357116699218
0.6359785079956054,0.7897813796997070
0.6359785079956054,0.7897813796997070
0.6429576873779297,0.7909795761108398
0.6429576873779297,0.7909795761108398
0.6380201339721679,0.7943595886230469
0.6380201339721679,0.7943595886230469
0.6379068374633788,0.7877260208129883
0.6359762191772461,0.7877260208129883
0.6428260803222656,0.7955778121948242
0.6428260803222656,0.7955778121948242
0.6360294342041015,0.7890764236450195
0.6360294342041015,0.7890764236450195
0.6433702468872070,0.7913698196411133
0.6433702468872070,0.7913698196411133
0.6385728836059570,0.7951738357543945
0.6432271957397461,0.7951738357543945
0.6388744354248047,0.7899616241455077
0.6388744354248047,0.7899616241455077
0.6441198348999023,0.7969465255737305
0.6441198348999023,0.7969465255737305
0.6373237609863281,0.7909852981567382
0.6373237609863281,0.7909852981567382
0.6446016311645507,0.7926870346069336
0.6446016311645507,0.7926870346069336
0.6398386001586914,0.7974718093872070
0.6398386001586914,0.7974718093872070
0.6399284362792969,0.7911031723022460
0.6399284362792969,0.7911031723022460
0.6450107574462890,0.7980720520019531
0.6450107574462890,0.7980720520019531
0.6381397247314453,0.7921577453613281
0.6381397247314453,0.7921577453613281
0.6451841354370117,0.7945661544799805
0.6451841354370117,0.7945661544799805
0.6402906417846680,0.7980131149291992
0.6402906417846680,0.7980131149291992
0.6404336929321289,0.7919082641601562
0.6404336929321289,0.7919082641601562
0.6454954147338867,0.7986436843872070
0.6454954147338867,0.7986436843872070
0.6384338378906250,0.7932289123535156
0.6384338378906250,0.7932289123535156
0.6455635070800781,0.7946851730346679
0.6455635070800781,0.7946851730346679
0.6406906127929687,0.7983890533447265
0.6406906127929687,0.7983890533447265
0.6406368255615235,0.7921422958374024
0.6406368255615235,0.7921422958374024
0.6455686569213867,0.7998252868652344
0.6455686569213867,0.7998252868652344
0.6384830474853516,0.7931665420532227
0.6384830474853516,0.7931665420532227
0.6456899642944336,0.7950273513793945
0.6456899642944336,0.7950273513793945
0.6405670166015625,0.7982122421264648
0.6405670166015625,0.7982122421264648
0.6406929016113281,0.7929079055786132
0.6406929016113281,0.7929079055786132
0.6456922531127930,0.7996147155761718
0.6456922531127930,0.7996147155761718
0.6384962081909179,0.7932226181030273
0.6384962081909179,0.7932226181030273
0.6455818176269531,0.7950485229492187
0.6455818176269531,0.7950485229492187
0.6406036376953125,0.7991489410400391
0.6406036376953125,0.7991489410400391
0.6405927658081054,0.7927368164062499
0.6405927658081054,0.7927368164062499
0.6456647872924804,0.7997863769531249
0.6456647872924804,0.7997863769531249
0.6383520126342773,0.7930784225463867
0.6383520126342773,0.7930784225463867
0.6456041336059570,0.7956396102905273
0.6456041336059570,0.7956396102905273
0.6405086517333984,0.7989761352539062
0.6405086517333984,0.7989761352539062
0.6405475616455077,0.7928718566894531
0.6405475616455077,0.7928718566894531
0.6456298828125000,0.7998447418212891
0.6456298828125000,0.7998447418212891
0.6384075164794921,0.7940294265747070
0.6384075164794921,0.7940294265747070
0.6457380294799805,0.7956058502197265
0.6457380294799805,0.7956058502197265
0.6409074783325195,0.7992536544799804
0.6409074783325195,0.7992536544799804
0.6407867431640625,0.7927883148193359
0.6407867431640625,0.7927883148193359
0.6459051132202148,0.8007287979125977
0.6459051132202148,0.8007287979125977
0.6385820388793945,0.7940305709838867
0.6385820388793945,0.7940305709838867
0.6460172653198242,0.7959955215454101
0.6460172653198242,0.7959955215454101
0.6410041809082031,0.7995883941650390
0.6410041809082031,0.7995883941650390
0.6409589767456054,0.7939229965209961
0.6409589767456054,0.7939229965209961
0.6461311340332031,0.8007265090942383
0.6461311340332031,0.8007265090942383
0.6390398025512695,0.7943040847778320
0.6390398025512695,0.7943040847778320
0.6461626052856445,0.7958147048950195
0.6461626052856445,0.7958147048950195
0.6411964416503906,0.8002258300781250
0.6411964416503906,0.8002258300781250
0.6410453796386718,0.7937599182128906
0.6410453796386718,0.7937599182128906
0.6461997985839844,0.8008781433105469
0.6461997985839844,0.8008781433105469
0.6387908935546874,0.7942600250244141
0.6387908935546874,0.7942600250244141
0.6460824966430664,0.7967090606689453
0.6460824966430664,0.7967090606689453
0.6410957336425781,0.7999214172363281
0.6476148605346680,0.7999214172363281
0.6410196304321288,0.7936677932739258
0.6410196304321288,0.7936677932739258
0.6458776473999023,0.8002080917358398
0.6458776473999023,0.8002080917358398
0.6385316848754883,0.7943922042846679
0.6385316848754883,0.7943922042846679
0.6454908370971679,0.7955892562866210
0.6454908370971679,0.7955892562866210
0.6402368545532227,0.7990470886230469
0.6402368545532227,0.7990470886230469
0.6398225784301758,0.7921571731567383
0.6398225784301758,0.7921571731567383
0.6445501327514648,0.7992204666137696
0.6445501327514648,0.7992204666137696
0.6368173599243164,0.7917984008789062
0.6368173599243164,0.7917984008789062
0.6439081192016601,0.7931842803955078
0.6439081192016601,0.7931842803955078
0.6385202407836914,0.7960275650024414
0.6385202407836914,0.7960275650024414
0.6382787704467773,0.7902671813964843
0.6382787704467773,0.7902671813964843
0.6431585311889648,0.7967548370361328
0.6431585311889648,0.7967548370361328
0.6358755111694335,0.7901933670043945
0.6358755111694335,0.7901933670043945
0.6429279327392577,0.7919809341430664
0.6429279327392577,0.7919809341430664
0.6381071090698242,0.7961339950561523
0.6381071090698242,0.7961339950561523
0.6380899429321288,0.7896743774414062
0.6380899429321288,0.7896743774414062
0.6431991577148437,0.7968463897705078
0.6431991577148437,0.7968463897705078
0.6359224319458008,0.7902997970581055
0.6359224319458008,0.7902997970581055
0.6433084487915038,0.7931613922119141
0.6433084487915038,0.7931613922119141
0.6457408905029297,0.7960086822509765
0.6457408905029297,0.7960086822509765
0.6440019607543945,0.7936134338378906
0.6436117172241210,0.7936134338378906
0.6415443420410156,0.7917709350585938
0.6415443420410156,0.7917709350585938
0.6421188354492188,0.7983415603637695
0.6421188354492188,0.7983415603637695
0.6395250320434570,0.7901664733886719
0.6395250320434570,0.7901664733886719
0.6441261291503906,0.7957197189331054
0.6441261291503906,0.7957197189331054
0.6364780426025390,0.7957883834838867
0.6364780426025390,0.7957883834838867
0.6420513153076172,0.7925291061401367
0.6420513153076172,0.7925291061401367
0.6445083618164062,0.7986997604370117
0.6445083618164062,0.7986997604370117
0.6378931045532227,0.7896686553955078
0.6378931045532227,0.7896686553955078
0.6444751739501953,0.7973957061767578
0.6444751739501953,0.7973957061767578
0.6368848800659179,0.7964355468750000
0.6368848800659179,0.7964355468750000
0.6442983627319335,0.7932003021240234
0.6442983627319335,0.7932003021240234
0.6426790237426757,0.7978025436401367
0.6426790237426757,0.7978025436401367
0.6382547378540039,0.7913085937500000
0.6382547378540039,0.7913085937500000
0.6446622848510742,0.7977865219116210
0.6446622848510742,0.7977865219116210
0.6393974304199218,0.7968595504760742
0.6393974304199218,0.7968595504760742
0.6425222396850586,0.7923442840576171
0.6425222396850586,0.7923442840576171
0.6430389404296875,0.7995002746582031
0.6430389404296875,0.7995002746582031
0.6386426925659180,0.7921211242675781
0.6386426925659180,0.7921211242675781
0.6469774246215820,0.7981819152832031
0.6469774246215820,0.7981819152832031
0.6376819610595703,0.7960361480712891
0.6376819610595703,0.7960361480712891
0.6428689956665039,0.7940872192382812
0.6428689956665039,0.7940872192382812
0.6434291839599610,0.7998470306396485
0.6434291839599610,0.7998470306396485
0.6410711288452148,0.7926240921020508
0.6410711288452148,0.7926240921020508
0.6452705383300781,0.7974197387695312
0.6452705383300781,0.7974197387695312
0.6381437301635742,0.7976898193359375
0.6381437301635742,0.7976898193359375
0.6431339263916015,0.7947126388549804
0.6431339263916015,0.7947126388549804
0.6457723617553711,0.8002355575561523
0.6457723617553711,0.8002355575561523
0.6393476486206054,0.7916604995727539
0.6393476486206054,0.7916604995727539
0.6450067520141601,0.7980829238891601
0.6450067520141601,0.7980829238891601
0.6393934249877929,0.7986951828002929
0.6393934249877929,0.7986951828002929
0.6444665908813476,0.7948419570922851
0.6444665908813476,0.7948419570922851
0.6442016601562500,0.7986745834350586
0.6398511886596679,0.7942823410034180
0.6398511886596679,0.7942823410034180
0.6446525573730468,0.7983060836791992
0.6446525573730468,0.7983060836791992
0.6417520523071288,0.7989412307739258
0.6417520523071288,0.7989412307739258
0.6423929214477538,0.7937530517578125
0.6423929214477538,0.7937530517578125
0.6444437026977539,0.8000644683837891
0.6444437026977539,0.8000644683837891
0.6400074005126953,0.7947086334228516
0.6400074005126953,0.7947086334228516
0.6468875885009765,0.7983879089355469
0.6468875885009765,0.7983879089355469
0.6398952484130859,0.7979707717895508
0.6398952484130859,0.7979707717895508
0.6427202224731445,0.7954135894775390
0.6427202224731445,0.7954135894775390
0.6444368362426758,0.8004953384399414
0.6444368362426758,0.8004953384399414
0.6420759201049805,0.7947223663330077
0.6435773849487304,0.7947223663330077
0.6448471069335937,0.7972372055053710
0.6448471069335937,0.7972372055053710
0.6398225784301758,0.7992021560668945
0.6398225784301758,0.7992021560668945
0.6426446914672851,0.7953918457031249
0.6426446914672851,0.7953918457031249
0.6463119506835937,0.8000913619995117
0.6463119506835937,0.8000913619995117
0.6399295806884765,0.7931768417358398
0.6399295806884765,0.7931768417358398
0.6443412780761718,0.7979558944702149
0.6443412780761718,0.7979558944702149
0.6390792846679687,0.7985280990600586
0.6390792846679687,0.7985280990600586
0.6437713623046875,0.7942377090454101
0.6437713623046875,0.7942377090454101
0.6430212020874023,0.7971038818359375
0.6430212020874023,0.7971038818359375
0.6385665893554687,0.7923597335815430
0.6385665893554687,0.7923597335815430
0.6428071975708007,0.7956178665161132
0.6428071975708007,0.7956178665161132
0.6397264480590820,0.7958913803100586
0.6397264480590820,0.7958913803100586
0.6402442932128906,0.7909933090209961
0.6402442932128906,0.7909933090209961
0.6416748046874999,0.7956533432006836
0.6416748046874999,0.7956533432006836
0.6384332656860351,0.7917520523071289
0.6384332656860351,0.7917520523071289
0.6434423446655273,0.7940769195556641
0.6434423446655273,0.7940769195556641
0.6381626129150391,0.7940185546874999
0.6381626129150391,0.7940185546874999
0.6403358459472656,0.7923843383789062
0.6403358459472656,0.7923843383789062
0.6418779373168945,0.7957843780517578
0.6418779373168945,0.7957843780517578
0.6410722732543945,0.7925863265991211
0.6410722732543945,0.7925863265991211
0.6420879364013672,0.7937942504882812
0.6420879364013672,0.7937942504882812
0.6390060424804688,0.7963663101196289
0.6390060424804688,0.7963663101196289
0.6411935806274414,0.7939647674560547
0.6411935806274414,0.7939647674560547
0.6447378158569336,0.7970821380615234
0.6447378158569336,0.7970821380615234
0.6400171279907226,0.7927734375000000
0.6400171279907226,0.7927734375000000
0.6428461074829102,0.7962450027465821
0.6428461074829102,0.7962450027465821
0.6398700714111328,0.7975999832153320
0.6398700714111328,0.7975999832153320
0.6438463211059570,0.7949117660522461
0.6438463211059570,0.7949117660522461
0.6433324813842773,0.7967874526977539
0.6433324813842773,0.7967874526977539
0.6404829025268555,0.7946783065795898
0.6404829025268555,0.7946783065795898
0.6431688308715821,0.7970352172851562
0.6431688308715821,0.7970352172851562
0.6421085357666015,0.7981304168701172
0.6421085357666015,0.7981304168701172
0.6418928146362305,0.7939012527465820
0.6418928146362305,0.7939012527465820
0.6434989929199219,0.7981927871704101
0.6434989929199219,0.7981927871704101
0.6403833389282226,0.7947212219238281
0.6403833389282226,0.7947212219238281
0.6452293395996094,0.7970792770385742
0.6452293395996094,0.7970792770385742
0.6400691986083984,0.7971405029296875
0.6400691986083984,0.7971405029296875
0.6418132781982422,0.7951623916625976
0.6418132781982422,0.7951623916625976
0.6434743881225585,0.7986585617065429
0.6415964126586914,0.7986585617065429
0.6423677444458008,0.7950433731079102
0.6423677444458008,0.7950433731079102
0.6431556701660156,0.7958513259887695
0.6431556701660156,0.7958513259887695
0.6401859283447265,0.7983827590942383
0.6401859283447265,0.7983827590942383
0.6418664932250976,0.7954296112060547
0.6418664932250976,0.7954296112060547
0.6454444885253906,0.7985572814941406
0.6454444885253906,0.7985572814941406
0.6405778884887695,0.7939132690429688
0.6405778884887695,0.7939132690429688
0.6431156158447265,0.7973093032836914
0.6431156158447265,0.7973093032836914
0.6402048110961914,0.7987707138061523
0.6402048110961914,0.7987707138061523
0.6439888000488281,0.7957397460937500
0.6439888000488281,0.7957397460937500
0.6435001373291015,0.7975942611694335
0.6435001373291015,0.7975942611694335
0.6408662796020508,0.7955795288085937
0.6408662796020508,0.7955795288085937
0.6434051513671875,0.7977842330932617
0.6434051513671875,0.7977842330932617
0.6425617218017577,0.7990848541259765
0.6425617218017577,0.7990848541259765
0.6424364089965821,0.7952728271484375
0.6424364089965821,0.7952728271484375
0.6435384750366211,0.7988210678100586
0.6435384750366211,0.7988210678100586
0.6414007186889649,0.7963594436645508
0.6414007186889649,0.7963594436645508
0.6452602386474610,0.7980308532714844
0.6452602386474610,0.7980308532714844
0.6408519744873047,0.7978763580322266
0.6408519744873047,0.7978763580322266
0.6426263809204101,0.7969053268432617
0.6426263809204101,0.7969053268432617
0.6437484741210937,0.7991849899291992
0.6437484741210937,0.7991849899291992
0.6437541961669921,0.7965442657470703
0.6437541961669921,0.7965442657470703
0.6435894012451172,0.7972057342529296
0.6435894012451172,0.7972057342529296
0.6410493850708008,0.7993577957153321
0.6410493850708008,0.7993577957153321
0.6427202224731445,0.7973836898803711
0.6427202224731445,0.7973836898803711
0.6459280014038086,0.7994602203369140
0.6459280014038086,0.7994602203369140
0.6417549133300781,0.7956092834472656
0.6417549133300781,0.7956092834472656
0.6437868118286133,0.7985990524291992
0.6437868118286133,0.7985990524291992
0.6411947250366211,0.7997526168823242
0.6411947250366211,0.7997526168823242
0.6449398040771485,0.7974197387695312
0.6449398040771485,0.7974197387695312
0.6439121246337890,0.7983415603637695
0.6439121246337890,0.7983415603637695
0.6417709350585937,0.7969511032104492
0.6417709350585937,0.7969511032104492
0.6436380386352539,0.7988628387451172
0.6436380386352539,0.7988628387451172
0.6432369232177734,0.7995883941650390
0.6432369232177734,0.7995883941650390
0.6427488327026367,0.7960515975952148
0.6427488327026367,0.7960515975952148
0.6437753677368164,0.7992158889770508
0.6437753677368164,0.7992158889770508
0.6414871215820312,0.7963571548461914
0.6414871215820312,0.7963571548461914
0.6451509475708007,0.7978477478027344
0.6451509475708007,0.7978477478027344
0.6403152465820312,0.7969722747802734
0.6403152465820312,0.7969722747802734
0.6416931152343750,0.7954839706420899
0.6416931152343750,0.7954839706420899
0.6424701690673827,0.7973327636718750
0.6424701690673827,0.7973327636718750
0.6421983718872070,0.7941793441772461
0.6421983718872070,0.7941793441772461
0.6418298721313477,0.7945014953613281
0.6418298721313477,0.7945014953613281
0.6394174575805663,0.7964670181274414
0.6426120758056640,0.7964670181274414
0.6409509658813476,0.7942125320434570
0.6409509658813476,0.7942125320434570
0.6441564559936523,0.7963176727294922
0.6441564559936523,0.7963176727294922
0.6401607513427734,0.7925399780273438
0.6401607513427734,0.7925399780273438
0.6419231414794921,0.7955446243286133
0.6419231414794921,0.7955446243286133
0.6397258758544921,0.7968675613403320
0.6397258758544921,0.7968675613403320
0.6434291839599610,0.7947418212890625
0.6434291839599610,0.7947418212890625
0.6425765991210938,0.7958381652832031
0.6425765991210938,0.7958381652832031
0.6407861709594727,0.7946800231933594
0.6407861709594727,0.7946800231933594
0.6426389694213867,0.7966175079345703
0.6426389694213867,0.7966175079345703
0.6425743103027344,0.7979827880859375
0.6438108444213867,0.7979827880859375
0.6420473098754883,0.7945827484130860
0.6420473098754883,0.7945827484130860
0.6434440612792969,0.7982917785644531
0.6434440612792969,0.7982917785644531
0.6415105819702148,0.7960990905761719
0.6415105819702148,0.7960990905761719
0.6453517913818360,0.7976869583129883
0.6453517913818360,0.7976869583129883
0.6410179138183594,0.7975318908691406
0.6410179138183594,0.7975318908691406
0.6425846099853515,0.7965351104736328
0.6425846099853515,0.7965351104736328
0.6436752319335938,0.7986402511596680
0.6436752319335938,0.7986402511596680
0.6438240051269531,0.7962564468383789
0.6443046569824219,0.7962564468383789
0.6434949874877930,0.7967742919921875
0.6434949874877930,0.7967742919921875
0.6416439056396485,0.7972200393676757
0.6411890029907227,0.7989017486572265
0.6440122604370117,0.7993183135986328
0.6427888870239258,0.7971387863159179
0.6416101455688477,0.7976354598999024
0.6458908081054687,0.7988840103149414
0.6437616348266602,0.7970277786254882
0.6418687820434570,0.7952699661254883
0.6425508499145508,0.7988828659057617
0.6435716629028320,0.7981332778930664
0.6419082641601562,0.7978923797607421
0.6412508010864257,0.7991420745849609
0.6439298629760742,0.7990047454833984
0.6449741363525391,0.7971233367919922
0.6417852401733398,0.7977939605712890
0.6438360214233398,0.7979633331298828
0.6437530517578125,0.7972160339355469
0.6418544769287109,0.7966627120971680
0.6426292419433594,0.7999792098999023
0.6437364578247070,0.7986751556396484
0.6420450210571289,0.7977705001831055
0.6433931350708008,0.7992576599121094
0.6441352844238281,0.7991930007934570
0.6430229187011719,0.7961196899414062
0.6416673660278320,0.7973836898803711
0.6438863754272460,0.7993114471435546
0.6437313079833984,0.7978408813476562
0.6418956756591797,0.7968046188354492
0.6426343917846680,0.7995620727539062
0.6458055496215820,0.7986328125000000
0.6420742034912109,0.7979438781738281
0.6412885665893554,0.7982614517211913
0.6440963745117188,0.7994064331054688
0.6430154800415039,0.7975095748901367
0.6418361663818359,0.7983793258666992
0.6439561843872070,0.7996931076049805
0.6439619064331055,0.7976720809936523
0.6441204071044921,0.7970403671264649
0.6428134918212890,0.7997737884521484
0.6437959671020508,0.7977035522460937
0.6420175552368164,0.7977550506591796
0.6414321899414063,0.7995935440063476
0.6441753387451171,0.8000375747680664
0.6430418014526367,0.7976325988769531
0.6417491912841796,0.7982471466064452
0.6460670471191406,0.7996644973754883
0.6439355850219727,0.7979124069213867
0.6420347213745117,0.7960172653198242
0.6427356719970703,0.7999734878540039
0.6439304351806641,0.7990957260131836
0.6421772003173828,0.7988090515136719
0.6415609359741211,0.8000123977661132
0.6443550109863281,0.7998676300048828
0.6453248977661132,0.7978208541870117
0.6420713424682617,0.7984571456909180
0.6440980911254882,0.7988067626953125
0.6440248489379883,0.7977338790893554
0.6422613143920898,0.7974225997924804
0.6427825927734375,0.8007024765014649
0.6440082550048828,0.7993675231933594
0.6422876358032227,0.7985670089721679
0.6435556411743164,0.8001714706420898
0.6444683074951172,0.8002103805541992
0.6433473587036133,0.7969533920288085
0.6419191360473633,0.7985246658325195
0.6441770553588867,0.8001371383666992
0.6440717697143554,0.7986654281616211
0.6422658920288086,0.7977006912231445
0.6429828643798828,0.8004627227783203
0.6460304260253906,0.7994539260864257
0.6422773361206054,0.7987689971923828
0.6415609359741211,0.7990665435791016
0.6442926406860351,0.7998390197753906
0.6433095932006836,0.7981904983520508
0.6419775009155273,0.7991992950439453
0.6440448760986328,0.8002109527587891
0.6440099716186524,0.7983564376831055
0.6443229675292969,0.7975690841674804
0.6428924560546875,0.8005233764648437
0.6438760757446289,0.7980445861816406
0.6420524597167968,0.7985132217407226
0.6413955688476562,0.7999591827392578
0.6441301345825196,0.8002441406249999
0.6428838729858398,0.7978872299194336
0.6415592193603515,0.7983106613159180
0.6456859588623046,0.7995374679565429
0.6434555053710938,0.7974317550659179
0.6416038513183594,0.7954124450683594
0.6420576095581054,0.7988937377929687
0.6431344985961914,0.7979913711547851
0.6412742614746093,0.7973447799682617
0.6404457092285156,0.7982311248779297
0.6430274963378906,0.7980920791625976
0.6439390182495117,0.7959554672241210
0.6406351089477539,0.7963405609130859
0.6426486968994141,0.7963977813720703
0.6424764633178711,0.7955749511718749
0.6405241012573242,0.7946949005126953
0.6412536621093750,0.7979679107666016
0.6423637390136718,0.7967971801757813
0.6405796051025391,0.7957992553710938
0.6417926788330078,0.7972578048706055
0.6427556991577148,0.7972023010253906
0.6416038513183594,0.7940666198730468
0.6402448654174805,0.7954198837280273
0.6424621582031250,0.7972835540771485
0.6425073623657226,0.7957929611206055
0.6406974792480469,0.7949083328247070
0.6413349151611328,0.7978580474853515
0.6445123672485351,0.7968229293823242
0.6409641265869140,0.7961339950561523
0.6401447296142578,0.7965723037719726
0.6430137634277343,0.7976915359497070
0.6420558929443360,0.7959497451782226
0.6407604217529297,0.7968395233154296
0.6430772781372071,0.7983604431152344
0.6430858612060547,0.7964241027832031
0.6433067321777344,0.7958518981933593
0.6420227050781250,0.7988233566284180
0.6432392120361328,0.7967182159423828
0.6415563583374023,0.7967353820800781
0.6408966064453124,0.7987031936645508
0.6437622070312500,0.7992593765258789
0.6426246643066406,0.7968372344970703
0.6413331985473633,0.7974123001098633
0.6457248687744140,0.7989543914794922
0.6436191558837890,0.7972023010253906
0.6418991088867188,0.7953054428100585
0.6424793243408203,0.7993246078491211
0.6436305999755859,0.7984891891479492
0.6419471740722656,0.7982070922851562
0.6413675308227539,0.7993961334228515
0.6440460205078125,0.7993721008300781
0.6450605392456055,0.7975009918212891
0.6418561935424805,0.7979804992675781
0.6439756393432617,0.7982036590576171
0.6438480377197265,0.7972635269165039
0.6422555923461913,0.7970735549926757
0.6428438186645508,0.8002206802368164
0.6438800811767578,0.7987489700317383
0.6422241210937499,0.7981927871704101
0.6445352554321289,0.7996519088745117
0.6442022323608398,0.7996948242187499
0.6432209014892578,0.7966278076171874
0.6419517517089843,0.7983455657958984
0.6440368652343750,0.7996868133544922
0.6440111160278320,0.7983753204345703
0.6423786163330077,0.7975318908691406
0.6429113388061524,0.8000461578369140
0.6459028244018554,0.7991174697875977
0.6425182342529296,0.7985698699951171
0.6418264389038085,0.7987529754638671
0.6442623138427734,0.7994779586791992
0.6433284759521484,0.7980577468872070
0.6422338485717773,0.7989978790283203
0.6442485809326172,0.7999809265136718
0.6440317153930664,0.7982122421264648
0.6445283889770508,0.7976835250854492
0.6431745529174805,0.8003562927246094
0.6441055297851562,0.7981264114379882
0.6423946380615234,0.7987386703491210
0.6419694900512695,0.8000793457031250
0.6444677352905274,0.8003980636596679
0.6435155868530273,0.7984989166259765
0.6424003601074219,0.7987850189208984
0.6463479995727539,0.8000656127929687
0.6443132400512696,0.7984897613525390
0.6426927566528320,0.7966478347778320
0.6431797027587890,0.7999752044677734
0.6441902160644531,0.7995294570922852
0.6426864624023437,0.7994527816772461
0.6420038223266601,0.8003465652465820
0.6444980621337890,0.8002618789672852
0.6456974029541015,0.7986145019531250
0.6426212310791015,0.7992301940917969
0.6443984985351562,0.7991214752197265
0.6442193984985352,0.7985200881958008
0.6427236557006836,0.7979776382446289
0.6433147430419922,0.8010400772094727
0.6441913604736328,0.7998596191406250
0.6427688598632812,0.7992107391357421
0.6440958023071289,0.8004890441894531
0.6446182250976562,0.8000587463378906
0.6433788299560547,0.7972463607788086
0.6424861907958984,0.7987220764160156
0.6444591522216797,0.8004186630249023
0.6441844940185547,0.7989852905273437
0.6426675796508788,0.7981561660766602
0.6431516647338867,0.8006074905395507
0.6462347030639648,0.7997005462646484
0.6425205230712890,0.7991260528564453
0.6419534683227539,0.7992610931396484
0.6442771911621094,0.8002618789672852
0.6434280395507812,0.7985624313354492
0.6421743392944336,0.7994607925415039
0.6442205429077148,0.8004352569580078
0.6439956665039063,0.7986293792724609
0.6443498611450195,0.7980583190917968
0.6430292129516602,0.8005399703979492
0.6438800811767578,0.7984794616699219
0.6422710418701172,0.7986190795898437
0.6417177200317382,0.8002595901489258
0.6415946960449218,0.8004981994628906
0.6431282043457031,0.7984279632568360
0.6418985366821289,0.7988290786743164
0.6459314346313476,0.8001708984375000
0.6436969757080078,0.7985401153564453
0.6422035217285156,0.7966043472290039
0.6426435470581054,0.8002904891967774
0.6436563491821289,0.7995168685913085
0.6420736312866211,0.7992130279541015
0.6414739608764648,0.8003574371337890
0.6439596176147461,0.8002017974853516
0.6449432373046875,0.7982151031494140
0.6417165756225586,0.7987260818481445
0.6436380386352539,0.7988250732421874
0.6434206008911133,0.7978363037109375
0.6420164108276367,0.7974020004272461
0.6424392700195313,0.8003442764282226
0.6432014465332031,0.7988965988159179
0.6416948318481445,0.7984920501708984
0.6429410934448242,0.7995042800903320
0.6434383392333984,0.7993171691894531
0.6423093795776367,0.7963645935058593
0.6409692764282227,0.7977029800415039
0.6428804397583008,0.7988599777221680
0.6426567077636719,0.7973390579223633
0.6409194946289062,0.7963033676147461
0.6414831161499023,0.7985469818115234
0.6443052291870117,0.7974403381347656
0.6408405303955078,0.7967193603515624
0.6400983810424804,0.7967348098754883
0.6425268173217773,0.7972978591918946
0.6415054321289062,0.7958433151245117
0.6403936386108399,0.7966140747070313
0.6421869277954101,0.7974437713623047
0.6419826507568359,0.7957832336425781
0.6425971984863281,0.7952287673950195
0.6411706924438476,0.7975656509399414
0.6420347213745117,0.7955486297607421
0.6406127929687500,0.7961448669433594
0.6400091171264648,0.7974340438842773
0.6423820495605469,0.7977996826171875
0.6414739608764648,0.7959697723388671
0.6404497146606445,0.7962324142456054
0.6442325592041015,0.7975198745727539
0.6423213958740234,0.7960481643676758
0.6408267974853515,0.7942148208618164
0.6414545059204101,0.7976211547851563
0.6423408508300781,0.7972600936889648
0.6410499572753906,0.7972452163696289
0.6404376983642578,0.7980669021606445
0.6429588317871093,0.7981344223022461
0.6440654754638672,0.7966054916381836
0.6409973144531250,0.7971015930175781
0.6429056167602539,0.7971839904785156
0.6427991867065429,0.7966632843017578
0.6413331985473633,0.7961832046508789
0.6419511795043945,0.7990230560302735
0.6428398132324219,0.7981555938720702
0.6414619445800781,0.7976154327392578
0.6429542541503906,0.7988679885864257
0.6434371948242187,0.7987369537353516
0.6423311233520508,0.7959348678588867
0.6412942886352538,0.7971147537231446
0.6430755615234375,0.7987386703491210
0.6429582595825195,0.7974952697753906
0.6416061401367187,0.7966684341430664
0.6420146942138671,0.7990465164184570
0.6449203491210938,0.7982231140136719
0.6415649414062500,0.7979524612426757
0.6410167694091796,0.7979404449462890
0.6433296203613281,0.7988193511962890
0.6424369812011719,0.7973876953125000
0.6414115905761718,0.7981979370117187
0.6432477951049804,0.7991186141967773
0.6431928634643554,0.7974815368652344
0.6437913894653320,0.7968864440917969
0.6422613143920898,0.7993246078491211
0.6430194854736327,0.7973562240600586
0.6417491912841796,0.7976863861083984
0.6410985946655273,0.7991895675659180
0.6434406280517578,0.7994047164916992
0.6425834655761719,0.7974357604980469
0.6413446426391601,0.7979209899902343
0.6452945709228516,0.7991729736328125
0.6431837081909180,0.7976823806762695
0.6418041229248047,0.7959159851074219
0.6421995162963867,0.7993057250976562
0.6430635452270508,0.7986162185668945
0.6416484832763671,0.7986248016357421
0.6410980224609375,0.7995117187499999
0.6434463500976563,0.7993434906005860
0.6446050643920899,0.7977201461791992
0.6414350509643555,0.7980937957763672
0.6432826995849609,0.7980617523193360
0.6432340621948242,0.7974002838134765
0.6417194366455078,0.7971845626831054
0.6422555923461913,0.8000598907470703
0.6431722640991211,0.7986694335937500
0.6417291641235351,0.7983621597290039
0.6431837081909180,0.7995615005493164
0.6435270309448242,0.7995225906372070
0.6425788879394531,0.7967416763305664
0.6414562225341797,0.7981292724609375
0.6433891296386719,0.7994155883789062
0.6432397842407226,0.7983123779296875
0.6419769287109375,0.7975433349609374
0.6423568725585938,0.7999002456665039
0.6408565521240234,0.7991460800170899
0.6419265747070312,0.7986482620239258
0.6412822723388671,0.7986454010009766
0.6435882568359375,0.7992216110229492
0.6428552627563476,0.7981424331665039
0.6415437698364258,0.7988668441772461
0.6434732437133789,0.7998413085937500
0.6434022903442382,0.7982952117919921
0.6440523147583007,0.7977006912231445
0.6425937652587891,0.8002069473266601
0.6434852600097656,0.7980817794799805
0.6419580459594726,0.7988084793090821
0.6414018630981445,0.7999568939208984
0.6437828063964843,0.8002710342407227
0.6429960250854492,0.7985515594482422
0.6417142868041992,0.7988039016723633
0.6457386016845703,0.8000576019287109
0.6436231613159179,0.7984743118286133
0.6421977996826171,0.7966798782348633
0.6426057815551758,0.8000083923339844
0.6435768127441406,0.7996009826660156
0.6421188354492188,0.7994533538818359
0.6414894104003906,0.8001611709594726
0.6440505981445312,0.8002349853515625
0.6451297760009765,0.7986505508422851
0.6419282913208008,0.7990505218505859
0.6438571929931640,0.7990465164184570
0.6435550689697266,0.7985017776489257
0.6421731948852539,0.7980022430419922
0.6426149368286133,0.8009508132934570
0.6436254501342773,0.7999071121215821
0.6422166824340820,0.7992061614990235
0.6435104370117187,0.8004146575927734
0.6439458847045898,0.8002418518066406
0.6429044723510742,0.7974895477294922
0.6416170120239257,0.7986448287963867
0.6421113967895508,0.8003013610839843
0.6435728073120117,0.7990030288696289
0.6420244216918946,0.7979730606079102
0.6426023483276367,0.8005479812622071
0.6455028533935546,0.7998252868652344
0.6420890808105468,0.7991901397705078
0.6413858413696288,0.7992095947265625
0.6436443328857422,0.8001457214355469
0.6428323745727539,0.7982969284057617
0.6415288925170898,0.7992227554321288
0.6435361862182617,0.8002349853515625
0.6434062957763672,0.7976114273071289
0.6423425674438477,0.8000598907470703
0.6421588897705078,0.7975410461425781
0.6431419372558593,0.7980125427246093
0.6415775299072265,0.7980342864990234
0.6408971786499024,0.7994630813598632
0.6431619644165039,0.7997085571289062
0.6421022415161133,0.7974740982055664
0.6408411026000976,0.7977888107299804
0.6447893142700195,0.7989109039306640
0.6425434112548828,0.7972320556640625
0.6409595489501952,0.7951709747314453
0.6412954330444336,0.7985372543334961
0.6421703338623047,0.7976016998291016
0.6406471252441406,0.7972692489624024
0.6400588989257813,0.7981092453002929
0.6423511505126953,0.7979398727416992
0.6433410644531250,0.7960756301879882
0.6402883529663086,0.7964527130126953
0.6421777725219726,0.7965505599975585
0.6419586181640625,0.7956333160400391
0.6405567169189453,0.7955354690551758
0.6411100387573242,0.7983003616333008
0.6420307159423828,0.7972177505493164
0.6405727386474609,0.7967622756958007
0.6421159744262696,0.7979284286499023
0.6425748825073242,0.7975971221923828
0.6414218902587890,0.7948259353637696
0.6404285430908203,0.7965694427490234
0.6424055099487305,0.7979541778564453
0.6421257019042969,0.7968772888183594
0.6409074783325195,0.7960052490234375
0.6413280487060546,0.7984519958496094
0.6442783355712890,0.7975816726684570
0.6409091949462891,0.7971759796142578
0.6403535842895508,0.7971828460693359
0.6428083419799805,0.7979764938354492
0.6419357299804688,0.7968446731567382
0.6406328201293945,0.7974615097045898
0.6427951812744140,0.7984508514404297
0.6424472808837890,0.7969900131225586
0.6431642532348633,0.7964921951293945
0.6418670654296875,0.7989921569824219
0.6425834655761719,0.7970157623291015
0.6411798477172851,0.7976491928100585
0.6406894683837890,0.7987529754638671
0.6430166244506835,0.7991500854492187
0.6421051025390625,0.7972852706909179
0.6408456802368164,0.7976743698120117
0.6448894500732422,0.7988502502441406
0.6428152084350586,0.7973196029663085
0.6413549423217774,0.7956550598144531
0.6419048309326172,0.7988147735595703
0.6428060531616211,0.7984514236450195
0.6413480758666992,0.7982460021972656
0.6408376693725586,0.7990682601928710
0.6432048797607421,0.7990121841430664
0.6442783355712890,0.7973922729492188
0.6410007476806641,0.7978923797607421
0.6430074691772460,0.7978815078735352
0.6427442550659179,0.7974163055419922
0.6413349151611328,0.7967885971069336
0.6419826507568359,0.7997291564941406
0.6428541183471680,0.7987964630126952
0.6413417816162109,0.7980051040649414
0.6428306579589843,0.7992422103881835
0.6434000015258788,0.7993577957153321
0.6422784805297851,0.7964469909667968
0.6408433914184570,0.7975410461425781
0.6432323455810547,0.7992485046386718
0.6429525375366211,0.7980394363403320
0.6414207458496094,0.7971490859985352
0.6421148300170898,0.7997766494750976
0.6449300765991210,0.7988908767700195
0.6415151596069336,0.7984262466430664
0.6410905838012695,0.7984628677368164
0.6434091567993164,0.7993886947631835
0.6423711776733398,0.7978855133056640
0.6411855697631835,0.7987598419189453
0.6433616638183594,0.7996833801269531
0.6429948806762695,0.7980388641357422
0.6438274383544922,0.7976932525634766
0.6425050735473633,0.7999099731445313
0.6428987503051757,0.7977075576782227
0.6417566299438476,0.7984313964843750
0.6416444778442383,0.7999734878540039
0.6434343338012695,0.7996627807617187
0.6424163818359375,0.7981092453002929
0.6416164398193359,0.7990007400512695
0.6455257415771484,0.7997869491577149
0.6429187774658203,0.7981155395507812
0.6432111740112304,0.7989257812500000
0.6432111740112304,0.7989257812500000
0.6416862487792968,0.8006343841552734
0.6416862487792968,0.8006343841552734
0.6444854736328125,0.7981304168701172
0.6444854736328125,0.7981304168701172
0.6443012237548827,0.8005811691284179
0.6443012237548827,0.8005811691284179
0.6400571823120117,0.7954599380493164
0.6400571823120117,0.7954599380493164
0.6459285736083984,0.8011854171752929
0.6459285736083984,0.8011854171752929
0.6412788391113281,0.8002635955810546
0.6412788391113281,0.8002635955810546
0.6437067031860352,0.7959457397460937
0.6437067031860352,0.7959457397460937
0.6444019317626953,0.8027034759521484
0.6444019317626953,0.8027034759521484
0.6399576187133789,0.7957494735717773
0.6399576187133789,0.7957494735717773
0.6481744766235351,0.8013175964355469
0.6481744766235351,0.8013175964355469
0.6391199111938476,0.7992662429809571
0.6391199111938476,0.7992662429809571
0.6437524795532227,0.7971393585205078
0.6437524795532227,0.7971393585205078
0.6444631576538086,0.8029249191284179
0.6444631576538086,0.8029249191284179
0.6418939590454101,0.7957838058471679
0.6418939590454101,0.7957838058471679
0.6460098266601563,0.8002893447875976
0.6460098266601563,0.8002893447875976
0.6390037536621094,0.8003814697265624
0.6390037536621094,0.8003814697265624
0.6436643600463867,0.7972772598266601
0.6436643600463867,0.7972772598266601
0.6463794708251953,0.8029666900634765
0.6463794708251953,0.8029666900634765
0.6398803710937500,0.7945833206176758
0.6398803710937500,0.7945833206176758
0.6460453033447265,0.8014228820800781
0.6460453033447265,0.8014228820800781
0.6390598297119140,0.8004020690917969
0.6458868026733399,0.8004020690917969
0.6455709457397460,0.7970220565795898
0.6455709457397460,0.7970220565795898
0.6442308425903320,0.8014291763305664
0.6442308425903320,0.8014291763305664
0.6393276214599609,0.7951938629150390
0.6393276214599609,0.7951938629150390
0.6455240249633789,0.8009542465209961
0.6455240249633789,0.8009542465209961
0.6403816223144531,0.7996742248535156
0.6403816223144531,0.7996742248535156
0.6428546905517578,0.7948780059814453
0.6428546905517578,0.7948780059814453
0.6436094284057617,0.8017095565795899
0.6436094284057617,0.8017095565795899
0.6388246536254882,0.7942028045654297
0.6388246536254882,0.7942028045654297
0.6469757080078125,0.7998304367065430
0.6469757080078125,0.7998304367065430
0.6379360198974610,0.7975261688232421
0.6379360198974610,0.7975261688232421
0.6424541473388672,0.7951395034790039
0.6424541473388672,0.7951395034790039
0.6433908462524414,0.8013221740722656
0.6433908462524414,0.8013221740722656
0.6407140731811524,0.7938514709472656
0.6407140731811524,0.7938514709472656
0.6449043273925781,0.7985292434692383
0.6449043273925781,0.7985292434692383
0.6380807876586914,0.7987781524658203
0.6380807876586914,0.7987781524658203
0.6426017761230468,0.7954387664794922
0.6426017761230468,0.7954387664794922
0.6457122802734375,0.8015115737915038
0.6457122802734375,0.8015115737915038
0.6390323638916016,0.7931768417358398
0.6390323638916016,0.7931768417358398
0.6451869964599609,0.7999168395996094
0.6451869964599609,0.7999168395996094
0.6383251190185547,0.7993801116943359
0.6383251190185547,0.7993801116943359
0.6447275161743163,0.7958255767822265
0.6447275161743163,0.7958255767822265
0.6436981201171875,0.8006687164306641
0.6436981201171875,0.8006687164306641
0.6390918731689453,0.7945833206176758
0.6390918731689453,0.7945833206176758
0.6453277587890625,0.8002264022827148
0.6453277587890625,0.8002264022827148
0.6405017852783202,0.7994848251342773
0.6405017852783202,0.7994848251342773
0.6429691314697266,0.7948591232299804
0.6429691314697266,0.7948591232299804
0.6438589096069336,0.8021055221557617
0.6438589096069336,0.8021055221557617
0.6391822814941406,0.7950525283813477
0.6391822814941406,0.7950525283813477
0.6474918365478516,0.8005943298339844
0.6474918365478516,0.8005943298339844
0.6387182235717773,0.7987112045288086
0.6387182235717773,0.7987112045288086
0.6431831359863281,0.7963966369628906
0.6431831359863281,0.7963966369628906
0.6442188262939453,0.8023126602172851
0.6442188262939453,0.8023126602172851
0.6415071487426758,0.7952024459838867
0.6415071487426758,0.7952024459838867
0.6458713531494140,0.7998367309570312
0.6458713531494140,0.7998367309570312
0.6390106201171875,0.8001600265502929
0.6390106201171875,0.8001600265502929
0.6433021545410156,0.7968652725219726
0.6433021545410156,0.7968652725219726
0.6464595794677734,0.8027143478393555
0.6464595794677734,0.8027143478393555
0.6396171569824218,0.7943338394165039
0.6396171569824218,0.7943338394165039
0.6459594726562500,0.8010881423950195
0.6459594726562500,0.8010881423950195
0.6388681411743163,0.8002183914184570
0.6388681411743163,0.8002183914184570
0.6453100204467773,0.7966827392578125
0.6453100204467773,0.7966827392578125
0.6443801879882812,0.8015750885009766
0.6443801879882812,0.8015750885009766
0.6394426345825195,0.7951995849609375
0.6394426345825195,0.7951995849609375
0.6458341598510742,0.8011957168579101
0.6458341598510742,0.8011957168579101
0.6410264968872070,0.8005846023559570
0.6410264968872070,0.8005846023559570
0.6435024261474609,0.7957706451416016
0.6435024261474609,0.7957706451416016
0.6449615478515625,0.8030645370483398
0.6449615478515625,0.8030645370483398
0.6398225784301758,0.7957460403442382
0.6398225784301758,0.7957460403442382
0.6483478546142578,0.8014921188354492
0.6483478546142578,0.8014921188354492
0.6392171859741210,0.7997789382934570
0.6392171859741210,0.7997789382934570
0.6436368942260742,0.7970472335815429
0.6436368942260742,0.7970472335815429
0.6449272155761718,0.8035675048828125
0.6449272155761718,0.8035675048828125
0.6416175842285156,0.7960041046142577
0.6434698104858398,0.7960041046142577
0.6466100692749023,0.8009696960449219
0.6466100692749023,0.8009696960449219
0.6394815444946289,0.8013576507568360
0.6394815444946289,0.8013576507568360
0.6438051223754883,0.7975147247314452
0.6438051223754883,0.7975147247314452
0.6472269058227539,0.8039514541625976
0.6472269058227539,0.8039514541625976
0.6400382995605468,0.7952590942382812
0.6400382995605468,0.7952590942382812
0.6412319183349610,0.7977350234985351
0.6412319183349610,0.7977350234985351
0.6468515396118164,0.8040126800537110
0.6451303482055664,0.8040126800537110
0.6393007278442383,0.7986717224121094
0.6393007278442383,0.7986717224121094
0.6462821960449219,0.7994768142700195
0.6462821960449219,0.7994768142700195
0.6427145004272461,0.8044006347656250
0.6427145004272461,0.8044006347656250
0.6415203094482421,0.7977281570434570
0.6415203094482421,0.7977281570434570
0.6472143173217774,0.8043571472167969
0.6472143173217774,0.8043571472167969
0.6393836975097656,0.7987461090087891
0.6393836975097656,0.7987461090087891
0.6464344024658203,0.8003208160400390
0.6464344024658203,0.8003208160400390
0.6429302215576171,0.8041236877441406
0.6429302215576171,0.8041236877441406
0.6418533325195312,0.7976451873779297
0.6418533325195312,0.7976451873779297
0.6473659515380860,0.8038639068603516
0.6473659515380860,0.8038639068603516
0.6396114349365234,0.7989166259765624
0.6396114349365234,0.7989166259765624
0.6467016220092773,0.7997148513793945
0.6467016220092773,0.7997148513793945
0.6431550979614258,0.8037631988525390
0.6431550979614258,0.8037631988525390
0.6417743682861328,0.7969144821166992
0.6417743682861328,0.7969144821166992
0.6475009918212891,0.8039651870727539
0.6475009918212891,0.8039651870727539
0.6396846771240234,0.7980216979980469
0.6396846771240234,0.7980216979980469
0.6469385147094726,0.7991409301757812
0.6469385147094726,0.7991409301757812
0.6433650970458984,0.8029254913330078
0.6433650970458984,0.8029254913330078
0.6422492980957031,0.7973316192626952
0.6422492980957031,0.7973316192626952
0.6480125427246094,0.8037151336669922
0.6480125427246094,0.8037151336669922
0.6402786254882812,0.7982711791992188
0.6402786254882812,0.7982711791992188
0.6474649429321289,0.7993829727172851
0.6474649429321289,0.7993829727172851
0.6437719345092773,0.8040109634399414
0.6437719345092773,0.8040109634399414
0.6427883148193360,0.7973613739013672
0.6427883148193360,0.7973613739013672
0.6484617233276367,0.8040904998779297
0.6484617233276367,0.8040904998779297
0.6404205322265625,0.7982168197631836
0.6404205322265625,0.7982168197631836
0.6476623535156250,0.8000335693359375
0.6476623535156250,0.8000335693359375
0.6439109802246094,0.8039806365966796
0.6439109802246094,0.8039806365966796
0.6427991867065429,0.7974472045898438
0.6427991867065429,0.7974472045898438
0.6481235504150390,0.8039863586425781
0.6481235504150390,0.8039863586425781
0.6401916503906250,0.7988817214965820
0.6401916503906250,0.7988817214965820
0.6473459243774414,0.7995729446411133
0.6473459243774414,0.7995729446411133
0.6435424804687500,0.8036138534545898
0.6435424804687500,0.8036138534545898
0.6422378540039062,0.7967250823974609
0.6422378540039062,0.7967250823974609
0.6476898193359375,0.8040538787841797
0.6476898193359375,0.8040538787841797
0.6397527694702149,0.7980468749999999
0.6397527694702149,0.7980468749999999
0.6467880249023438,0.7992845535278320
0.6467880249023438,0.7992845535278320
0.6430292129516602,0.8031326293945312
0.6430292129516602,0.8031326293945312
0.6417995452880859,0.7971576690673828
0.6417995452880859,0.7971576690673828
0.6473356246948242,0.8035572052001952
0.6473356246948242,0.8035572052001952
0.6395524978637696,0.7981023788452148
0.6395524978637696,0.7981023788452148
0.6465333938598633,0.7987993240356445
0.6465333938598633,0.7987993240356445
0.6430349349975586,0.8037271499633789
0.6430349349975586,0.8037271499633789
0.6418796539306640,0.7970123291015625
0.6418796539306640,0.7970123291015625
0.6474929809570312,0.8038759231567383
0.6474929809570312,0.8038759231567383
0.6395290374755859,0.7982059478759765
0.6395290374755859,0.7982059478759765
0.6467697143554687,0.7998098373413086
0.6467697143554687,0.7998098373413086
0.6432775497436524,0.8037574768066406
0.6432775497436524,0.8037574768066406
0.6420730590820313,0.7973190307617187
0.6420730590820313,0.7973190307617187
0.6476560592651367,0.8038055419921875
0.6476560592651367,0.8038055419921875
0.6398414611816406,0.7989715576171875
0.6398414611816406,0.7989715576171875
0.6469247817993163,0.7997800827026367
0.6469247817993163,0.7997800827026367
0.6435464859008789,0.8042449951171875
0.6435464859008789,0.8042449951171875
0.6421548843383789,0.7975828170776367
0.6421548843383789,0.7975828170776367
0.6478740692138671,0.8048212051391601
0.6478740692138671,0.8048212051391601
0.6400548934936523,0.7991580963134766
0.6400548934936523,0.7991580963134766
0.6472909927368163,0.8001640319824218
0.6472909927368163,0.8001640319824218
0.6437061309814452,0.8040378570556640
0.6437061309814452,0.8040378570556640
0.6424186706542968,0.7983558654785156
0.6424186706542968,0.7983558654785156
0.6481447219848633,0.8047416687011718
0.6481447219848633,0.8047416687011718
0.6402591705322266,0.7992731094360351
0.6402591705322266,0.7992731094360351
0.6472246170043945,0.8003156661987304
0.6472246170043945,0.8003156661987304
0.6437770843505859,0.8050952911376953
0.6437770843505859,0.8050952911376953
0.6424346923828125,0.7981229782104492
0.6424346923828125,0.7981229782104492
0.6482975006103515,0.8049510955810547
0.6482975006103515,0.8049510955810547
0.6401052474975586,0.7990962982177734
0.6401052474975586,0.7990962982177734
0.6472887039184571,0.8008071899414062
0.6472887039184571,0.8008071899414062
0.6437187194824219,0.8047182083129882
0.6437187194824219,0.8047182083129882
0.6423751831054687,0.7981533050537110
0.6423751831054687,0.7981533050537110
0.6478986740112305,0.8048160552978515
0.6478986740112305,0.8048160552978515
0.6398654937744140,0.7995185852050781
0.6398654937744140,0.7995185852050781
0.6469522476196289,0.8002681732177734
0.6469522476196289,0.8002681732177734
0.6434183120727539,0.8043794631958008
0.6434183120727539,0.8043794631958008
0.6419368743896484,0.7973888397216796
0.6412433624267578,0.7973888397216796
0.6474592208862304,0.8047725677490234
0.6474592208862304,0.8047725677490234
0.6394758224487305,0.7988262176513672
0.6394758224487305,0.7988262176513672
0.6462209701538085,0.8035451889038085
0.6470941543579102,0.8020145416259765
0.6456905364990234,0.7964035034179687
0.6456905364990234,0.7978277206420898
0.6396783828735352,0.7978277206420898
0.6464561462402344,0.8007671356201171
0.6402585983276367,0.8007671356201171
0.6465253829956055,0.8019401550292968
0.6423700332641601,0.8019401550292968
0.6450914382934571,0.7949563980102539
0.6435218811035156,0.8027778625488281
0.6485006332397460,0.8006418228149413
0.6413721084594727,0.8007179260253906
0.6470615386962890,0.8032625198364257
0.6439573287963867,0.7969001770019531
0.6390398025512695,0.7976566314697265
0.6476612091064453,0.8029232025146484
0.6400531768798828,0.8009084701538086
0.6429616928100585,0.7966501235961914
0.6419837951660156,0.8024271011352538
0.6472692489624023,0.8032934188842773
0.6439922332763671,0.8032934188842773
0.6403741836547852,0.7992427825927734
0.6403741836547852,0.8038387298583984
0.6430183410644531,0.8032299041748047
0.6491872787475585,0.8008260726928711
0.6423408508300781,0.7960887908935547
0.6423408508300781,0.8038610458374024
0.6470581054687500,0.8014772415161132
0.6472108840942382,0.8037969589233398
0.6440872192382813,0.7982007980346679
0.6392034530639649,0.8035074234008789
0.6429428100585938,0.8034084320068359
0.6429428100585938,0.8034084320068359
0.6460155487060547,0.7972103118896484
0.6460155487060547,0.7972103118896484
0.6460155487060547,0.7976182937622071
0.6429931640625000,0.8040000915527343
0.6471302032470703,0.8040000915527343
0.6473276138305664,0.8040676116943359
0.6431974411010742,0.8040676116943359
0.6464406967163085,0.8043416976928711
0.6464406967163085,0.7993286132812499
0.6494235992431641,0.8026067733764648
0.6418498992919922,0.7975582122802735
0.6443492889404296,0.7979015350341797
0.6443492889404296,0.7979015350341797
0.6426630020141602,0.7975175857543945
0.6426630020141602,0.7975175857543945
0.6426630020141602,0.7969299316406250
0.6474403381347656,0.8022674560546875
0.6474403381347656,0.8047531127929687
0.6474403381347656,0.7983060836791992
0.6443504333496094,0.7983060836791992
0.6406431198120117,0.8000215530395508
0.6406431198120117,0.7959377288818359
0.6473711013793945,0.8022720336914062
0.6473533630371093,0.8043897628784179
0.6473533630371093,0.8043897628784179
0.6459932327270508,0.8034633636474610
0.6451343536376953,0.7994613647460938
0.6461574554443359,0.7994613647460938
0.6411890029907227,0.7969974517822266
0.6411890029907227,0.7969974517822266
0.6383193969726563,0.7972898483276367
0.6383193969726563,0.7972898483276367
0.6393894195556641,0.7950279235839843
0.6393894195556641,0.7950279235839843
0.6425771713256836,0.8015619277954101
0.6425771713256836,0.7952911376953125
0.6379337310791016,0.7952911376953125
0.6457283020019531,0.8012357711791992
0.6457283020019531,0.7987924575805664
0.6457283020019531,0.7944322586059570
0.6399948120117187,0.7944322586059570
0.6377815246582031,0.7962953567504882
0.6467691421508789,0.8015956878662109
0.6420953750610351,0.8016792297363281
0.6420953750610351,0.8016792297363281
0.6464252471923828,0.8023057937622070
0.6464252471923828,0.8023057937622070
0.6451864242553711,0.8016340255737304
0.6444923400878906,0.8016340255737304
0.6397773742675781,0.7950222015380859
0.6397773742675781,0.7950222015380859
0.6465740203857422,0.8008930206298828
0.6465740203857422,0.8008930206298828
0.6416736602783203,0.8005319595336914
0.6416736602783203,0.8005319595336914
0.6433971405029296,0.7954290390014648
0.6433971405029296,0.7954290390014648
0.6454359054565429,0.8030948638916016
0.6454359054565429,0.8030948638916016
0.6398351669311523,0.7954845428466797
0.6398351669311523,0.7954845428466797
0.6486631393432617,0.8011859893798828
0.6486631393432617,0.8011859893798828
0.6397224426269531,0.7997039794921875
0.6397224426269531,0.7997039794921875
0.6435550689697266,0.7965642929077148
0.6435550689697266,0.7965642929077148
0.6454828262329101,0.8032745361328125
0.6454828262329101,0.8032745361328125
0.6419792175292969,0.7955423355102539
0.6419792175292969,0.7955423355102539
0.6467393875122071,0.8003208160400390
0.6467393875122071,0.8003208160400390
0.6398288726806640,0.8008747100830078
0.6466844558715820,0.8008747100830078
0.6434514999389648,0.7968212127685547
0.6434514999389648,0.7968212127685547
0.6475341796874999,0.8034004211425781
0.6475341796874999,0.8034004211425781
0.6399833679199218,0.7946113586425781
0.6399833679199218,0.7946113586425781
0.6467771530151367,0.8014165878295898
0.6467771530151367,0.8014165878295898
0.6399301528930664,0.8010829925537110
0.6399301528930664,0.8010829925537110
0.6456876754760742,0.7971090316772461
0.6456876754760742,0.7971090316772461
0.6456132888793945,0.8026170730590820
0.6456132888793945,0.8026170730590820
0.6400102615356446,0.7958330154418946
0.6400102615356446,0.7958330154418946
0.6468080520629883,0.8017021179199219
0.6468080520629883,0.8017021179199219
0.6417938232421875,0.8012071609497070
0.6417938232421875,0.8012071609497070
0.6434497833251953,0.7960184097290038
0.6434497833251953,0.7960184097290038
0.6457340240478515,0.8038084030151367
0.6457340240478515,0.8038084030151367
0.6400417327880860,0.7960475921630860
0.6400417327880860,0.7960475921630860
0.6489360809326171,0.8018789291381836
0.6489360809326171,0.8018789291381836
0.6400880813598633,0.8004329681396484
0.6400880813598633,0.8004329681396484
0.6436700820922852,0.7974025726318359
0.6436700820922852,0.7974025726318359
0.6458496093750000,0.8040647506713867
0.6458496093750000,0.8040647506713867
0.6421972274780273,0.7962232589721679
0.6421972274780273,0.7962232589721679
0.6470483779907227,0.8009445190429687
0.6470483779907227,0.8009445190429687
0.6401012420654296,0.8017805099487304
0.6401012420654296,0.8017805099487304
0.6438211441040039,0.7975570678710937
0.6438211441040039,0.7975570678710937
0.6480319976806640,0.8044424057006836
0.6480319976806640,0.8044424057006836
0.6404216766357421,0.7954977035522460
0.6404216766357421,0.7954977035522460
0.6471416473388671,0.8022480010986328
0.6471416473388671,0.8022480010986328
0.6403696060180664,0.8022216796875000
0.6403696060180664,0.8022216796875000
0.6460338592529297,0.7979690551757812
0.6460338592529297,0.7979690551757812
0.6461997985839844,0.8035812377929688
0.6461997985839844,0.8035812377929688
0.6406396865844727,0.7968555450439453
0.6406396865844727,0.7968555450439453
0.6473241806030273,0.8025403976440429
0.6473241806030273,0.8025403976440429
0.6424798965454102,0.8023275375366211
0.6424798965454102,0.8023275375366211
0.6440717697143554,0.7969734191894531
0.6440717697143554,0.7969734191894531
0.6461225509643554,0.8046667098999023
0.6461225509643554,0.8046667098999023
0.6405292510986328,0.7968704223632812
0.6405292510986328,0.7968704223632812
0.6491449356079101,0.8025266647338867
0.6491449356079101,0.8025266647338867
0.6402322769165039,0.8007877349853515
0.6402322769165039,0.8007877349853515
0.6436786651611328,0.7975164413452148
0.6436786651611328,0.7975164413452148
0.6456790924072265,0.8039142608642578
0.6456790924072265,0.8039142608642578
0.6419277191162109,0.7959051132202148
0.6419277191162109,0.7959051132202148
0.6464813232421874,0.8000467300415038
0.6464813232421874,0.8000467300415038
0.6393436431884766,0.8002532958984375
0.6393436431884766,0.8002532958984375
0.6425794601440430,0.7959136962890625
0.6425794601440430,0.7959136962890625
0.6465705871582031,0.8019750595092773
0.6465705871582031,0.8019750595092773
0.6390346527099610,0.7930418014526367
0.6390346527099610,0.7930418014526367
0.6457237243652344,0.7997005462646484
0.6457237243652344,0.7997005462646484
0.6388526916503906,0.7992650985717773
0.6388526916503906,0.7992650985717773
0.6441822052001953,0.7950668334960938
0.6441822052001953,0.7950668334960938
0.6446388244628906,0.8006269454956054
0.6446388244628906,0.8006269454956054
0.6389585494995117,0.7939538955688477
0.6389585494995117,0.7939538955688477
0.6457374572753906,0.7998630523681640
0.6457374572753906,0.7998630523681640
0.6410882949829101,0.7996467590332031
0.6410882949829101,0.7996467590332031
0.6425268173217773,0.7944900512695312
0.6425268173217773,0.7944900512695312
0.6449266433715820,0.8023017883300781
0.6449266433715820,0.8023017883300781
0.6393327713012695,0.7946130752563476
0.6393327713012695,0.7946130752563476
0.6481206893920898,0.8005079269409180
0.6481206893920898,0.8005079269409180
0.6397167205810547,0.7992742538452148
0.6397167205810547,0.7992742538452148
0.6429376602172852,0.7961259841918945
0.6429376602172852,0.7961259841918945
0.6453506469726562,0.8028814315795898
0.6453506469726562,0.8028814315795898
0.6417137145996094,0.7951040267944336
0.6417137145996094,0.7951040267944336
0.6464344024658203,0.7998149871826171
0.6464344024658203,0.7998149871826171
0.6396732330322266,0.8005851745605469
0.6396732330322266,0.8005851745605469
0.6430921554565430,0.7964475631713867
0.6430921554565430,0.7964475631713867
0.6473962783813476,0.8031995773315429
0.6473962783813476,0.8031995773315429
0.6399032592773437,0.7943750381469726
0.6399032592773437,0.7943750381469726
0.6464773178100586,0.8010738372802734
0.6464773178100586,0.8010738372802734
0.6398626327514648,0.8009199142456055
0.6398626327514648,0.8009199142456055
0.6451789855957031,0.7966873168945312
0.6451789855957031,0.7966873168945312
0.6455028533935546,0.8022216796875000
0.6444648742675781,0.8022216796875000
0.6399507522583008,0.7955778121948242
0.6399507522583008,0.7955778121948242
0.6465419769287110,0.8011430740356446
0.6465419769287110,0.8011430740356446
0.6419219970703125,0.8010211944580078
0.6419219970703125,0.8010211944580078
0.6431562423706054,0.7957992553710938
0.6431562423706054,0.7957992553710938
0.6455629348754882,0.8034313201904296
0.6455629348754882,0.8034313201904296
0.6399576187133789,0.7959417343139649
0.6399576187133789,0.7959417343139649
0.6486677169799805,0.8014154434204102
0.6486677169799805,0.8014154434204102
0.6399667739868163,0.8000301361083985
0.6399667739868163,0.8000301361083985
0.6432254791259765,0.7970163345336914
0.6432254791259765,0.7970163345336914
0.6456407546997071,0.8036075592041015
0.6456407546997071,0.8036075592041015
0.6420616149902344,0.7959909439086914
0.6420616149902344,0.7959909439086914
0.6468744277954102,0.8006343841552734
0.6468744277954102,0.8006343841552734
0.6402614593505859,0.8013496398925781
0.6402614593505859,0.8013496398925781
0.6435098648071289,0.7974523544311524
0.6435098648071289,0.7974523544311524
0.6477619171142578,0.8038902282714844
0.6477619171142578,0.8038902282714844
0.6401905059814453,0.7951108932495117
0.6401905059814453,0.7951108932495117
0.6468544006347656,0.8018634796142577
0.6468544006347656,0.8018634796142577
0.6401704788208008,0.8016363143920898
0.6401704788208008,0.8016363143920898
0.6454553604125977,0.7974271774291992
0.6454553604125977,0.7974271774291992
0.6459463119506835,0.8029649734497070
0.6459463119506835,0.8029649734497070
0.6402528762817382,0.7962844848632812
0.6402528762817382,0.7962844848632812
0.6468984603881835,0.8022617340087891
0.6468984603881835,0.8022617340087891
0.6422933578491211,0.8018686294555664
0.6422933578491211,0.8018686294555664
0.6434492111206055,0.7965030670166016
0.6434492111206055,0.7965030670166016
0.6459154129028321,0.8042255401611328
0.6459154129028321,0.8042255401611328
0.6403198242187500,0.7964590072631835
0.6403198242187500,0.7964590072631835
0.6491043090820312,0.8023584365844726
0.6491043090820312,0.8023584365844726
0.6405086517333984,0.8010343551635742
0.6405086517333984,0.8010343551635742
0.6436906814575195,0.7977865219116210
0.6436906814575195,0.7977865219116210
0.6461900711059571,0.8048400878906250
0.6461900711059571,0.8048400878906250
0.6426218032836913,0.7968149185180664
0.6426218032836913,0.7968149185180664
0.6473516464233399,0.8014314651489257
0.6473516464233399,0.8014314651489257
0.6407964706420898,0.8022651672363281
0.6473751068115234,0.8022651672363281
0.6438709259033203,0.7979913711547851
0.6438709259033203,0.7979913711547851
0.6483644485473633,0.8046129226684570
0.6483644485473633,0.8046129226684570
0.6406774520874023,0.7957162857055664
0.6406774520874023,0.7957162857055664
0.6472841262817383,0.8022216796875000
0.6472841262817383,0.8022216796875000
0.6405824661254883,0.8019178390502929
0.6405824661254883,0.8019178390502929
0.6456110000610351,0.7971662521362305
0.6456110000610351,0.7971662521362305
0.6459194183349609,0.8023447036743164
0.6459194183349609,0.8023447036743164
0.6401092529296875,0.7950359344482422
0.6401092529296875,0.7950359344482422
0.6465665817260742,0.8004856109619141
0.6465665817260742,0.8004856109619141
0.6418802261352539,0.8000661849975585
0.6418802261352539,0.8000661849975585
0.6428798675537110,0.7944013595581054
0.6428798675537110,0.7944013595581054
0.6454679489135742,0.8021392822265625
0.6454679489135742,0.8021392822265625
0.6399175643920898,0.7944454193115235
0.6399175643920898,0.7944454193115235
0.6486379623413085,0.8000850677490234
0.6486379623413085,0.8000850677490234
0.6400823593139648,0.7988576889038086
0.6400823593139648,0.7988576889038086
0.6432729721069336,0.7956521987915038
0.6432729721069336,0.7956521987915038
0.6458393096923828,0.8023738861083984
0.6447229385375977,0.8023738861083984
0.6421308517456055,0.7947120666503906
0.6421308517456055,0.7947120666503906
0.6471261978149414,0.7996078491210937
0.6471261978149414,0.7996078491210937
0.6404067993164062,0.8006109237670899
0.6404067993164062,0.8006109237670899
0.6438417434692383,0.7966953277587890
0.6438417434692383,0.7966953277587890
0.6484565734863281,0.8034158706665039
0.6484565734863281,0.8034158706665039
0.6408760070800781,0.7945730209350585
0.6408760070800781,0.7945730209350585
0.6418733596801758,0.7968950271606445
0.6418733596801758,0.7968950271606445
0.6455223083496093,0.8035268783569336
0.6463565826416016,0.8035268783569336
0.6397287368774414,0.7983816146850585
0.6397287368774414,0.7983816146850585
0.6466867446899414,0.7989063262939453
0.6466867446899414,0.7989063262939453
0.6441347122192382,0.8037174224853515
0.6441347122192382,0.8037174224853515
0.6419820785522461,0.7969070434570312
0.6419820785522461,0.7969070434570312
0.6479307174682617,0.8036396026611328
0.6479307174682617,0.8036396026611328
0.6395364761352539,0.7979690551757812
0.6395364761352539,0.7979690551757812
0.6466461181640625,0.7992811203002930
0.6466461181640625,0.7992811203002930
0.6441427230834961,0.8034461975097656
0.6441427230834961,0.8034461975097656
0.6419952392578124,0.7968692779541016
0.6419952392578124,0.7968692779541016
0.6476989746093750,0.8034719467163086
0.6476989746093750,0.8034719467163086
0.6393024444580078,0.7985612869262695
0.6393024444580078,0.7985612869262695
0.6464561462402344,0.7988788604736328
0.6464561462402344,0.7988788604736328
0.6440116882324218,0.8033775329589844
0.6440116882324218,0.8033775329589844
0.6415563583374023,0.7964235305786133
0.6415563583374023,0.7964235305786133
0.6474832534790039,0.8038387298583984
0.6474832534790039,0.8038387298583984
0.6391233444213867,0.7982660293579101
0.6391233444213867,0.7982660293579101
0.6464229583740234,0.7988805770874023
0.6464229583740234,0.7988805770874023
0.6437891006469726,0.8034135818481445
0.6437891006469726,0.8034135818481445
0.6415100097656250,0.7970741271972656
0.6415100097656250,0.7970741271972656
0.6475879669189453,0.8038558959960938
0.6475879669189453,0.8038558959960938
0.6392618179321289,0.7984004974365234
0.6392618179321289,0.7984004974365234
0.6464120864868164,0.7988554000854492
0.6464120864868164,0.7988554000854492
0.6440168380737304,0.8040927886962891
0.6440168380737304,0.8040927886962891
0.6417938232421875,0.7972904205322265
0.6417938232421875,0.7972904205322265
0.6480079650878906,0.8043943405151367
0.6480079650878906,0.8043943405151367
0.6394317626953124,0.7989063262939453
0.6394317626953124,0.7989063262939453
0.6468172073364258,0.8000799179077148
0.6468172073364258,0.8000799179077148
0.6445072174072265,0.8043542861938476
0.6445072174072265,0.8043542861938476
0.6423946380615234,0.7978746414184570
0.6423946380615234,0.7978746414184570
0.6482305526733398,0.8045139312744141
0.6482305526733398,0.8045139312744141
0.6398717880249023,0.7997652053833008
0.6398717880249023,0.7997652053833008
0.6472652435302734,0.8002000808715820
0.6472652435302734,0.8002000808715820
0.6449420928955077,0.8048046112060546
0.6449420928955077,0.8048046112060546
0.6425010681152343,0.7980863571166992
0.6425010681152343,0.7980863571166992
0.6485086441040039,0.8055250167846679
0.6485086441040039,0.8055250167846679
0.6401247024536133,0.7997863769531249
0.6401247024536133,0.7997863769531249
0.6476079940795898,0.8004564285278321
0.6476079940795898,0.8004564285278321
0.6450599670410156,0.8047719955444336
0.6450599670410156,0.8047719955444336
0.6427808761596679,0.7987770080566406
0.6427808761596679,0.7987770080566406
0.6487707138061524,0.8053853988647460
0.6487707138061524,0.8053853988647460
0.6404846191406249,0.8000902175903321
0.6404846191406249,0.8000902175903321
0.6475925445556641,0.8006172180175781
0.6475925445556641,0.8006172180175781
0.6449855804443360,0.8055370330810546
0.6449855804443360,0.8055370330810546
0.6426841735839843,0.7983959197998046
0.6426841735839843,0.7983959197998046
0.6485847473144531,0.8051851272583007
0.6438978195190429,0.8051851272583007
0.6398900985717774,0.7992336273193359
0.6398900985717774,0.7992336273193359
0.6469327926635742,0.8001960754394531
0.6469327926635742,0.8001960754394531
0.6441278457641602,0.8042375564575195
0.6441278457641602,0.8042375564575195
0.6418865203857421,0.7970832824707031
0.6418865203857421,0.7970832824707031
0.6471971511840821,0.8033380508422852
0.6471971511840821,0.8033380508422852
0.6384916305541992,0.7976280212402344
0.6384916305541992,0.7976280212402344
0.6456916809082031,0.7977750778198242
0.6456916809082031,0.7977750778198242
0.6429576873779297,0.8019802093505859
0.6457637786865235,0.8019802093505859
0.6464338302612305,0.8021306991577148
0.6464338302612305,0.8021306991577148
0.6454404830932617,0.7971210479736328
0.6454404830932617,0.7971210479736328
0.6404273986816406,0.7951692581176758
0.6404273986816406,0.7951692581176758
0.6447566986083985,0.7955801010131835
0.6447566986083985,0.7955801010131835
0.6455371856689452,0.7966363906860351
0.6398351669311523,0.7950204849243164
0.6398351669311523,0.7950204849243164
0.6398351669311523,0.7946783065795898
0.6469476699829101,0.8007493972778320
0.6469476699829101,0.8007493972778320
0.6422372817993164,0.8008054733276367
0.6422372817993164,0.8008054733276367
0.6436271667480469,0.7955017089843750
0.6436271667480469,0.7955017089843750
0.6462312698364258,0.8036521911621094
0.6462312698364258,0.8036521911621094
0.6405092239379883,0.7957431793212890
0.6405092239379883,0.7957431793212890
0.6495117187500000,0.8015665054321289
0.6495117187500000,0.8015665054321289
0.6408891677856445,0.8004341125488281
0.6408891677856445,0.8004341125488281
0.6440740585327148,0.7971050262451171
0.6440740585327148,0.7971050262451171
0.6467067718505859,0.8041128158569336
0.6467067718505859,0.8041128158569336
0.6429553985595703,0.7960435867309570
0.6429553985595703,0.7960435867309570
0.6479467391967774,0.8010492324829102
0.6479467391967774,0.8010492324829102
0.6413063049316406,0.8018703460693359
0.6413063049316406,0.8018703460693359
0.6443126678466796,0.7976755142211914
0.6443126678466796,0.7976755142211914
0.6492370605468750,0.8046712875366211
0.6492370605468750,0.8046712875366211
0.6414533615112304,0.7956905364990234
0.6414533615112304,0.7956905364990234
0.6486248016357422,0.8025781631469726
0.6486248016357422,0.8025781631469726
0.6420078277587891,0.8025306701660156
0.6420078277587891,0.8025306701660156
0.6471405029296875,0.7982311248779297
0.6471405029296875,0.7982311248779297
0.6480176925659179,0.8043273925781250
0.6480176925659179,0.8043273925781250
0.6421846389770508,0.7971639633178711
0.6421846389770508,0.7971639633178711
0.6493057250976563,0.8033185958862304
0.6493057250976563,0.8033185958862304
0.6445318222045898,0.8030147552490234
0.6445318222045898,0.8030147552490234
0.6454456329345702,0.7974958419799805
0.6454456329345702,0.7974958419799805
0.6482191085815430,0.8055908203125000
0.6482191085815430,0.8055908203125000
0.6421794891357422,0.7975152969360352
0.6421794891357422,0.7975152969360352
0.6511224746704102,0.8031595230102538
0.6511224746704102,0.8031595230102538
0.6423465728759765,0.8019750595092773
0.6423465728759765,0.8019750595092773
0.6452630996704102,0.7985206604003906
0.6452630996704102,0.7985206604003906
0.6480680465698242,0.8056554794311523
0.6480680465698242,0.8056554794311523
0.6440837860107421,0.7976039886474610
0.6440837860107421,0.7976039886474610
0.6490379333496094,0.8022439956665038
0.6490379333496094,0.8022439956665038
0.6424146652221679,0.8032316207885742
0.6424146652221679,0.8032316207885742
0.6451652526855468,0.7987907409667968
0.6451652526855468,0.7987907409667968
0.6500255584716796,0.8057624816894531
0.6500255584716796,0.8057624816894531
0.6421743392944336,0.7967033386230469
0.6421743392944336,0.7967033386230469
0.6489395141601563,0.8034347534179688
0.6489395141601563,0.8034347534179688
0.6424123764038085,0.8035497665405273
0.6424123764038085,0.8035497665405273
0.6472349166870117,0.7989652633666992
0.6472349166870117,0.7989652633666992
0.6480611801147461,0.8048154830932617
0.6480611801147461,0.8048154830932617
0.6422527313232421,0.7979707717895508
0.6422527313232421,0.7979707717895508
0.6490013122558593,0.8036149978637696
0.6490013122558593,0.8036149978637696
0.6444992065429688,0.8037260055541992
0.6444992065429688,0.8037260055541992
0.6454015731811523,0.7980909347534180
0.6454015731811523,0.7980909347534180
0.6480789184570312,0.8061595916748047
0.6480789184570312,0.8061595916748047
0.6423368453979492,0.7984308242797852
0.6423368453979492,0.7984308242797852
0.6513971328735352,0.8039817810058594
0.6513971328735352,0.8039817810058594
0.6426137924194336,0.8029151916503906
0.6426137924194336,0.8029151916503906
0.6455675125122070,0.7992576599121094
0.6455675125122070,0.7992576599121094
0.6482797622680664,0.8062665939331054
0.6482797622680664,0.8062665939331054
0.6443407058715820,0.7980937957763672
0.6443407058715820,0.7980937957763672
0.6490591049194335,0.8026880264282227
0.6490591049194335,0.8026880264282227
0.6422842025756835,0.8035034179687500
0.6422842025756835,0.8035034179687500
0.6449975967407227,0.7990482330322265
0.6449975967407227,0.7990482330322265
0.6496541976928710,0.8055856704711913
0.6496541976928710,0.8055856704711913
0.6416433334350585,0.7962444305419921
0.6416433334350585,0.7962444305419921
0.6484416961669922,0.8028316497802734
0.6484416961669922,0.8028316497802734
0.6417142868041992,0.8023269653320312
0.6417142868041992,0.8023269653320312
0.6463874816894531,0.7976211547851563
0.6463874816894531,0.7976211547851563
0.6470878601074218,0.8032894134521484
0.6470878601074218,0.8032894134521484
0.6410482406616210,0.7958604812622070
0.6410482406616210,0.7958604812622070
0.6480159759521484,0.8018526077270508
0.6480159759521484,0.8018526077270508
0.6433553695678711,0.8015985488891602
0.6433553695678711,0.8015985488891602
0.6443487167358398,0.7959548950195312
0.6443487167358398,0.7959548950195312
0.6472154617309570,0.8039932250976562
0.6472154617309570,0.8039932250976562
0.6413148880004883,0.7960710525512695
0.6413148880004883,0.7960710525512695
0.6504604339599609,0.8020345687866210
0.6504604339599609,0.8020345687866210
0.6420415878295899,0.8010011672973633
0.6420415878295899,0.8010011672973633
0.6449392318725585,0.7977613449096680
0.6449392318725585,0.7977613449096680
0.6479742050170898,0.8051519393920898
0.6479742050170898,0.8051519393920898
0.6443355560302734,0.7972068786621094
0.6443355560302734,0.7972068786621094
0.6494487762451172,0.8020368576049804
0.6494487762451172,0.8020368576049804
0.6429473876953125,0.8032001495361328
0.6429473876953125,0.8032001495361328
0.6458021163940429,0.7987277984619140
0.6458021163940429,0.7987277984619140
0.6508089065551758,0.8058637619018555
0.6508089065551758,0.8058637619018555
0.6428369522094727,0.7967205047607422
0.6428369522094727,0.7967205047607422
0.6497142791748046,0.8034130096435547
0.6497142791748046,0.8034130096435547
0.6430246353149414,0.8036682128906250
0.6430246353149414,0.8036682128906250
0.6477653503417968,0.7989543914794922
0.6477653503417968,0.7989543914794922
0.6486728668212890,0.8048830032348633
0.6486728668212890,0.8048830032348633
0.6426080703735352,0.7977991104125977
0.6426080703735352,0.7977991104125977
0.6495655059814452,0.8035594940185546
0.6495655059814452,0.8035594940185546
0.6448139190673828,0.8035028457641601
0.6448139190673828,0.8035028457641601
0.6455932617187500,0.7979564666748047
0.6455932617187500,0.7979564666748047
0.6485630035400390,0.8060005187988281
0.6485630035400390,0.8060005187988281
0.6426172256469727,0.7980680465698242
0.6426172256469727,0.7980680465698242
0.6516025543212890,0.8036407470703125
0.6434103012084961,0.7986419677734374
0.6454891204833985,0.8052520751953125
0.6454891204833985,0.7982740402221680
0.6408514022827149,0.8005886077880859
0.6492610931396484,0.8005886077880859
0.6479598999023437,0.8007528305053710
0.6479598999023437,0.8007528305053710
0.6461402893066406,0.8056720733642578
0.6461402893066406,0.8056720733642578
0.6431293487548828,0.7985498428344726
0.6431293487548828,0.7985498428344726
0.6491832733154297,0.8056463241577149
0.6491832733154297,0.8056463241577149
0.6406911849975586,0.8002189636230469
0.6406911849975586,0.8002189636230469
0.6476108551025390,0.8006687164306641
0.6476108551025390,0.8006687164306641
0.6455217361450195,0.8051136016845702
0.6455217361450195,0.8051136016845702
0.6426012039184570,0.7987501144409179
0.6426012039184570,0.7987501144409179
0.6489435195922851,0.8054414749145508
0.6489435195922851,0.8054414749145508
0.6406002044677734,0.8002086639404297
0.6406002044677734,0.8002086639404297
0.6473991394042968,0.8006000518798828
0.6473991394042968,0.8006000518798828
0.6454439163208008,0.8058523178100586
0.6454439163208008,0.8058523178100586
0.6428266525268554,0.7988285064697266
0.6428266525268554,0.7988285064697266
0.6491025924682617,0.8056394577026367
0.6491025924682617,0.8056394577026367
0.6405910491943360,0.8000873565673828
0.6405910491943360,0.8000873565673828
0.6477109909057617,0.8012884140014648
0.6477109909057617,0.8012884140014648
0.6458204269409179,0.8059370040893554
0.6458204269409179,0.8059370040893554
0.6434343338012695,0.7991867065429688
0.6434343338012695,0.7991867065429688
0.6495615005493164,0.8061801910400390
0.6495615005493164,0.8061801910400390
0.6409440994262695,0.8013244628906250
0.6409440994262695,0.8013244628906250
0.6482706069946289,0.8016059875488281
0.6482706069946289,0.8016059875488281
0.6464183807373046,0.8064542770385742
0.6464183807373046,0.8064542770385742
0.6435991287231445,0.7992656707763671
0.6435991287231445,0.7992656707763671
0.6498573303222656,0.8068044662475585
0.6498573303222656,0.8068044662475585
0.6413658142089843,0.8013204574584961
0.6413658142089843,0.8013204574584961
0.6486219406127930,0.8018926620483399
0.6486219406127930,0.8018926620483399
0.6464796066284180,0.8066957473754882
0.6464796066284180,0.8066957473754882
0.6436557769775391,0.8000576019287109
0.6436557769775391,0.8000576019287109
0.6499425888061523,0.8066911697387695
0.6499425888061523,0.8066911697387695
0.6413578033447266,0.8015047073364258
0.6413578033447266,0.8015047073364258
0.6482013702392578,0.8014080047607421
0.6482013702392578,0.8014080047607421
0.6462038040161132,0.8066253662109375
0.6462038040161132,0.8066253662109375
0.6433301925659179,0.7993577957153321
0.6433301925659179,0.7993577957153321
0.6496078491210937,0.8057727813720703
0.6496078491210937,0.8057727813720703
0.6408405303955078,0.8004175186157226
0.6408405303955078,0.8004175186157226
0.6473402023315430,0.8008787155151367
0.6473402023315430,0.8008787155151367
0.6454113006591796,0.8050449371337890
0.6454113006591796,0.8050449371337890
0.6423591613769531,0.7975502014160156
0.6423591613769531,0.7975502014160156
0.6484148025512695,0.8038181304931641
0.6484148025512695,0.8038181304931641
0.6396360397338867,0.7991146087646485
0.6396360397338867,0.7991146087646485
0.6466157913208007,0.7991563796997070
