REDsignal,IRsignal
0.6095386505126953,0.8269329071044922
0.6198343276977539,0.8269329071044922
0.6171266555786132,0.8252174377441406
0.6102167129516601,0.8252174377441406
0.6165618896484375,0.8325948715209961
0.6189954757690429,0.8325948715209961
0.6110315322875977,0.8214391708374024
0.6134485244750977,0.8214391708374024
0.6209856033325195,0.8313314437866210
0.6132471084594726,0.8313314437866210
0.6093961715698242,0.8291473388671875
0.6202955245971680,0.8291473388671875
0.6176593780517577,0.8252969741821289
0.6105257034301758,0.8252969741821289
0.6166368484497070,0.8334428787231445
0.6188684463500976,0.8334428787231445
0.6121644973754883,0.8222156524658203
0.6139715194702148,0.8222156524658203
0.6206674575805664,0.8330308914184570
0.6133335113525390,0.8330308914184570
0.6096307754516601,0.8288303375244140
0.6205135345458984,0.8288303375244140
0.6177904129028320,0.8257043838500976
0.6106441497802734,0.8257043838500976
0.6178436279296875,0.8339567184448242
0.6196186065673828,0.8339567184448242
0.6115945816040039,0.8236787796020507
0.6140916824340820,0.8236787796020507
0.6207859039306640,0.8325016021728515
0.6133666992187500,0.8325016021728515
0.6094682693481445,0.8293418884277344
0.6202737808227539,0.8293418884277344
0.6186040878295899,0.8262239456176758
0.6109994888305664,0.8262239456176758
0.6174350738525390,0.8353162765502929
0.6196140289306641,0.8353162765502929
0.6116598129272460,0.8231575012207031
0.6141998291015625,0.8231575012207031
0.6208854675292969,0.8328432083129883
0.6134805679321289,0.8328432083129883
0.6106012344360351,0.8298110961914062
0.6211652755737305,0.8298110961914062
0.6181045532226562,0.8276750564575195
0.6111717224121094,0.8276750564575195
0.6175638198852539,0.8349517822265625
0.6197078704833984,0.8349517822265625
0.6116134643554687,0.8236003875732422
0.6140035629272461,0.8236003875732422
0.6217912673950196,0.8335309982299804
0.6138032913208008,0.8335309982299804
0.6103031158447265,0.8312376022338867
0.6211172103881836,0.8312376022338867
0.6183465957641602,0.8271068572998047
0.6114320755004883,0.8271068572998047
0.6177646636962890,0.8354393005371094
0.6198984146118164,0.8354393005371094
0.6128396987915039,0.8241399765014649
0.6149980545043945,0.8241399765014649
0.6214925765991210,0.8349409103393555
0.6138719558715821,0.8349409103393555
0.6104192733764648,0.8308359146118164
0.6213975906372070,0.8308359146118164
0.6181446075439453,0.8276927947998046
0.6112060546875000,0.8276927947998046
0.6188552856445312,0.8359920501708984
0.6202743530273437,0.8359920501708984
0.6123682022094726,0.8256019592285156
0.6149139404296875,0.8256019592285156
0.6216167449951172,0.8342033386230469
0.6141294479370117,0.8342033386230469
0.6105915069580078,0.8313394546508789
0.6213895797729492,0.8313394546508789
0.6193731307983398,0.8281476974487304
0.6120140075683593,0.8281476974487304
0.6182950973510742,0.8372955322265625
0.6203722000122071,0.8372955322265625
0.6124019622802734,0.8249971389770507
0.6150003433227539,0.8249971389770507
0.6213438034057617,0.8347332000732421
0.6137437820434570,0.8347332000732421
0.6113811492919922,0.8317062377929687
0.6216304779052734,0.8317062377929687
0.6187597274780273,0.8294803619384765
0.6119293212890625,0.8294803619384765
0.6183191299438476,0.8366586685180664
0.6204935073852539,0.8366586685180664
0.6124414443969727,0.8252958297729492
0.6150335311889649,0.8252958297729492
0.6224670410156250,0.8349443435668945
0.6144865036010742,0.8349443435668945
0.6106945037841797,0.8329439163208008
0.6215194702148438,0.8329439163208008
0.6184799194335937,0.8283376693725586
0.6115516662597656,0.8283376693725586
0.6176593780517577,0.8361757278442382
0.6195785522460937,0.8361757278442382
0.6126720428466796,0.8245971679687499
0.6145631790161132,0.8245971679687499
0.6210245132446289,0.8345890045166016
0.6133077621459960,0.8345890045166016
0.6097097396850586,0.8300199508666992
0.6203676223754883,0.8300199508666992
0.6172748565673828,0.8258222579956055
0.6101148605346679,0.8258222579956055
0.6172496795654296,0.8333330154418945
0.6187889099121093,0.8333330154418945
0.6105022430419922,0.8224033355712891
0.6130628585815430,0.8224033355712891
0.6195842742919921,0.8304519653320312
0.6119647979736328,0.8304519653320312
0.6079833984374999,0.8271617889404297
0.6188135147094727,0.8271617889404297
0.6169836044311523,0.8234115600585937
0.6094310760498046,0.8234115600585937
0.6159553527832031,0.8326286315917969
0.6179609298706055,0.8326286315917969
0.6100273132324219,0.8203113555908202
0.6127264022827148,0.8203113555908202
0.6193502426147460,0.8298151016235351
0.6119173049926757,0.8298151016235351
0.6091896057128906,0.8271028518676757
0.6197267532348633,0.8271028518676757
0.6165653228759765,0.8248249053955078
0.6096685409545898,0.8248249053955078
0.6164651870727539,0.8321634292602539
0.6184902191162109,0.8321634292602539
0.6102510452270508,0.8211135864257812
0.6129781723022460,0.8211135864257812
0.6206583023071289,0.8309984207153320
0.6126886367797851,0.8309984207153320
0.6092977523803711,0.8295352935791015
0.6201782226562500,0.8295352935791015
0.6173040390014648,0.8250961303710938
0.6104026794433594,0.8250961303710938
0.6170539855957031,0.8335945129394531
0.6190647125244141,0.8335945129394531
0.6119745254516601,0.8225927352905273
0.6143434524536132,0.8225927352905273
0.6207550048828124,0.8332489013671874
0.6131698608398437,0.8332489013671874
0.6098796844482421,0.8295467376708984
0.6207624435424804,0.8295467376708984
0.6109451293945313,0.8253799438476562
0.6195796966552735,0.8253799438476562
0.6205701828002930,0.8291416168212891
0.6205701828002930,0.8291416168212891
0.6133432388305664,0.8332860946655273
0.6133432388305664,0.8332860946655273
0.6124900817871094,0.8251550674438476
0.6124900817871094,0.8251550674438476
0.6205106735229492,0.8347246170043945
0.6205106735229492,0.8347246170043945
0.6113948822021484,0.8258354187011718
0.6113948822021484,0.8258354187011718
0.6207017898559570,0.8297098159790038
0.6207017898559570,0.8297098159790038
0.6118755340576172,0.8337541580200195
0.6118755340576172,0.8337541580200195
0.6143245697021484,0.8255773544311523
0.6143245697021484,0.8255773544311523
0.6206336975097656,0.8351818084716797
0.6206336975097656,0.8351818084716797
0.6111780166625976,0.8264001846313477
0.6111780166625976,0.8264001846313477
0.6192089080810547,0.8300222396850586
0.6192089080810547,0.8300222396850586
0.6137231826782227,0.8341083526611328
0.6137231826782227,0.8341083526611328
0.6146295547485351,0.8259332656860351
0.6146295547485351,0.8259332656860351
0.6207727432250977,0.8355726242065430
0.6207727432250977,0.8355726242065430
0.6097789764404297,0.8268024444580078
0.6097789764404297,0.8268024444580078
0.6209415435791016,0.8303775787353516
0.6209415435791016,0.8303775787353516
0.6139091491699219,0.8346050262451171
0.6139091491699219,0.8346050262451171
0.6145128250122071,0.8263195037841796
0.6111454010009766,0.8263195037841796
0.6192380905151367,0.8359577178955078
0.6192380905151367,0.8359577178955078
0.6114068984985351,0.8271984100341797
0.6114068984985351,0.8271984100341797
0.6214227676391602,0.8308256149291992
0.6214227676391602,0.8308256149291992
0.6140275955200195,0.8350673675537109
0.6140275955200195,0.8350673675537109
0.6130720138549804,0.8268081665039062
0.6130720138549804,0.8268081665039062
0.6211212158203124,0.8364274978637695
0.6211212158203124,0.8364274978637695
0.6117078781127929,0.8275382995605468
0.6117078781127929,0.8275382995605468
0.6212888717651367,0.8311632156372070
0.6212888717651367,0.8311632156372070
0.6126462936401367,0.8354879379272461
0.6126462936401367,0.8354879379272461
0.6149236679077148,0.8272178649902343
0.6149236679077148,0.8272178649902343
0.6214897155761718,0.8366941452026367
0.6214897155761718,0.8366941452026367
0.6118057250976562,0.8281763076782226
0.6118057250976562,0.8281763076782226
0.6198629379272461,0.8314785003662110
0.6198629379272461,0.8314785003662110
0.6144235610961913,0.8359748840332031
0.6144235610961913,0.8359748840332031
0.6149700164794921,0.8277288436889648
0.6149700164794921,0.8277288436889648
0.6213758468627929,0.8372652053833007
0.6213758468627929,0.8372652053833007
0.6103248596191406,0.8285854339599609
0.6103248596191406,0.8285854339599609
0.6215921401977539,0.8320701599121093
0.6215921401977539,0.8320701599121093
0.6148418426513672,0.8363056182861328
0.6148418426513672,0.8363056182861328
0.6151571273803711,0.8281711578369141
0.6151571273803711,0.8281711578369141
0.6199155807495117,0.8373716354370117
0.6199155807495117,0.8373716354370117
0.6118978500366211,0.8288446426391601
0.6118978500366211,0.8288446426391601
0.6216115951538086,0.8320261001586914
0.6216115951538086,0.8320261001586914
0.6144258499145507,0.8360652923583984
0.6144258499145507,0.8360652923583984
0.6132207870483398,0.8274324417114257
0.6132207870483398,0.8274324417114257
0.6209672927856446,0.8365579605102539
0.6209672927856446,0.8365579605102539
0.6114343643188477,0.8274524688720702
0.6114343643188477,0.8274524688720702
0.6204597473144531,0.8301441192626953
0.6204597473144531,0.8301441192626953
0.6115402221679688,0.8337633132934570
0.6115402221679688,0.8337633132934570
0.6133249282836913,0.8247322082519531
0.6133249282836913,0.8247322082519531
0.6197393417358398,0.8336969375610351
0.6197393417358398,0.8336969375610351
0.6098339080810546,0.8248615264892578
0.6098339080810546,0.8248615264892578
0.6179368972778320,0.8278541564941406
0.6179368972778320,0.8278541564941406
0.6125530242919922,0.8321216583251952
0.6125530242919922,0.8321216583251952
0.6132551193237304,0.8236289978027344
0.6132551193237304,0.8236289978027344
0.6194618225097656,0.8331167221069335
0.6194618225097656,0.8331167221069335
0.6083198547363281,0.8245244979858398
0.6083198547363281,0.8245244979858398
0.6196352005004883,0.8278907775878906
0.6196352005004883,0.8278907775878906
0.6128150939941406,0.8325925827026367
0.6128150939941406,0.8325925827026367
0.6133987426757812,0.8243762969970703
0.6133987426757812,0.8243762969970703
0.6184244155883789,0.8340471267700195
0.6184244155883789,0.8340471267700195
0.6104375839233398,0.8258325576782226
0.6104375839233398,0.8258325576782226
0.6206531524658203,0.8291799545288085
0.6206531524658203,0.8291799545288085
0.6135503768920898,0.8338737487792969
0.6135503768920898,0.8338737487792969
0.6124460220336914,0.8254257202148437
0.6124460220336914,0.8254257202148437
0.6205953598022461,0.8351182937622070
0.6205953598022461,0.8351182937622070
0.6110527038574218,0.8266565322875976
0.6110527038574218,0.8266565322875976
0.6208734512329102,0.8298688888549804
0.6208734512329102,0.8298688888549804
0.6122915267944335,0.8343938827514649
0.6122915267944335,0.8343938827514649
0.6144041061401367,0.8260951995849609
0.6144041061401367,0.8260951995849609
0.6212121963500976,0.8355834960937499
0.6212121963500976,0.8355834960937499
0.6112026214599610,0.8273586273193360
0.6112026214599610,0.8273586273193360
0.6193113327026367,0.8303392410278320
0.6101074218750000,0.8303392410278320
0.6140939712524414,0.8349935531616210
0.6140939712524414,0.8349935531616210
0.6145151138305663,0.8264923095703125
0.6145151138305663,0.8264923095703125
0.6210674285888672,0.8358930587768555
0.6210674285888672,0.8358930587768555
0.6097515106201171,0.8275400161743164
0.6097515106201171,0.8275400161743164
0.6212081909179688,0.8306648254394531
0.6212081909179688,0.8306648254394531
0.6145528793334961,0.8352430343627929
0.6145528793334961,0.8352430343627929
0.6146032333374023,0.8268711090087890
0.6146032333374023,0.8268711090087890
0.6195882797241211,0.8360813140869140
0.6195882797241211,0.8360813140869140
0.6113336563110351,0.8278861999511719
0.6113336563110351,0.8278861999511719
0.6211824417114258,0.8310173034667968
0.6211824417114258,0.8310173034667968
0.6143932342529297,0.8355142593383789
0.6143932342529297,0.8355142593383789
0.6129518508911133,0.8270524978637696
0.6129518508911133,0.8270524978637696
0.6212070465087890,0.8364921569824219
0.6212070465087890,0.8364921569824219
0.6118057250976562,0.8281305313110351
0.6118057250976562,0.8281305313110351
0.6213008880615234,0.8313371658325195
0.6213008880615234,0.8313371658325195
0.6127944946289062,0.8358621597290039
0.6127944946289062,0.8358621597290039
0.6147462844848632,0.8274066925048827
0.6147462844848632,0.8274066925048827
0.6215126037597656,0.8368841171264648
0.6215126037597656,0.8368841171264648
0.6115940093994140,0.8286352157592773
0.6115940093994140,0.8286352157592773
0.6197525024414062,0.8315237045288085
0.6197525024414062,0.8315237045288085
0.6146753311157226,0.8362449645996094
0.6146753311157226,0.8362449645996094
0.6151542663574219,0.8278432846069336
0.6151542663574219,0.8278432846069336
0.6215944290161133,0.8373006820678711
0.6215944290161133,0.8373006820678711
0.6101428985595703,0.8289224624633789
0.6101428985595703,0.8289224624633789
0.6214857101440430,0.8319305419921875
0.6214857101440430,0.8319305419921875
0.6148927688598632,0.8365230560302734
0.6148927688598632,0.8365230560302734
0.6149768829345703,0.8281156539916992
0.6149768829345703,0.8281156539916992
0.6201290130615235,0.8374471664428711
0.6201290130615235,0.8374471664428711
0.6117897033691406,0.8293138504028320
0.6117897033691406,0.8293138504028320
0.6218736648559570,0.8321720123291015
0.6218736648559570,0.8321720123291015
0.6148452758789062,0.8370712280273437
0.6148452758789062,0.8370712280273437
0.6134645462036132,0.8284366607666015
0.6134645462036132,0.8284366607666015
0.6218736648559570,0.8378877639770508
0.6218736648559570,0.8378877639770508
0.6119585037231445,0.8295902252197266
0.6119585037231445,0.8295902252197266
0.6216453552246094,0.8323934555053710
0.6216453552246094,0.8323934555053710
0.6131635665893554,0.8369327545166015
0.6131635665893554,0.8369327545166015
0.6147554397583007,0.8281196594238281
0.6147554397583007,0.8281196594238281
0.6217329025268554,0.8371072769165039
0.6217329025268554,0.8371072769165039
0.6112930297851562,0.8286426544189452
0.6112930297851562,0.8286426544189452
0.6192798614501953,0.8309000015258788
0.6192798614501953,0.8309000015258788
0.6140253067016601,0.8349540710449218
0.6140253067016601,0.8349540710449218
0.6138353347778320,0.8257673263549804
0.6138353347778320,0.8257673263549804
0.6203659057617187,0.8345209121704101
0.6203659057617187,0.8345209121704101
0.6085945129394531,0.8260499954223632
0.6085945129394531,0.8260499954223632
0.6200134277343750,0.8286294937133789
0.6200134277343750,0.8286294937133789
0.6135583877563476,0.8330966949462890
0.6135583877563476,0.8330966949462890
0.6133249282836913,0.8245634078979492
0.6133249282836913,0.8245634078979492
0.6184432983398437,0.8337043762207031
0.6184432983398437,0.8337043762207031
0.6100233078002929,0.8256626129150391
0.6100233078002929,0.8256626129150391
0.6200666427612305,0.8284337997436523
0.6200666427612305,0.8284337997436523
0.6134817123413085,0.8333496093750000
0.6134817123413085,0.8333496093750000
0.6119470596313477,0.8249387741088867
0.6119470596313477,0.8249387741088867
0.6204700469970703,0.8344533920288085
0.6204700469970703,0.8344533920288085
0.6108598709106445,0.8266027450561523
0.6108598709106445,0.8266027450561523
0.6206497192382813,0.8296274185180664
0.6206497192382813,0.8296274185180664
0.6125278472900391,0.8344682693481446
0.6125278472900391,0.8344682693481446
0.6141054153442382,0.8259166717529297
0.6141054153442382,0.8259166717529297
0.6211120605468750,0.8353380203247071
0.6211120605468750,0.8353380203247071
0.6111310958862305,0.8272956848144531
0.6111310958862305,0.8272956848144531
0.6193330764770507,0.8300474166870117
0.6193330764770507,0.8300474166870117
0.6143995285034179,0.8350656509399413
0.6143995285034179,0.8350656509399413
0.6146965026855469,0.8264087677001953
0.6146965026855469,0.8264087677001953
0.6212516784667969,0.8359153747558593
0.6212516784667969,0.8359153747558593
0.6095363616943359,0.8276933670043946
0.6095363616943359,0.8276933670043946
0.6210193634033203,0.8305057525634766
0.6210193634033203,0.8305057525634766
0.6145866394042968,0.8354112625122070
0.6145866394042968,0.8354112625122070
0.6144956588745117,0.8267503738403320
0.6144956588745117,0.8267503738403320
0.6197942733764649,0.8360532760620117
0.6197942733764649,0.8360532760620117
0.6112077713012695,0.8280017852783202
0.6112077713012695,0.8280017852783202
0.6212808609008789,0.8307449340820312
0.6212808609008789,0.8307449340820312
0.6145717620849609,0.8356910705566406
0.6145717620849609,0.8356910705566406
0.6128860473632812,0.8270238876342774
0.6128860473632812,0.8270238876342774
0.6214347839355469,0.8364372253417969
0.6214347839355469,0.8364372253417969
0.6113525390625000,0.8284229278564453
0.6113525390625000,0.8284229278564453
0.6210519790649414,0.8310247421264648
0.6210519790649414,0.8310247421264648
0.6130044937133788,0.8358249664306641
0.6130044937133788,0.8358249664306641
0.6145277023315430,0.8272750854492187
0.6145277023315430,0.8272750854492187
0.6184507369995117,0.8297069549560546
0.6112478256225585,0.8297069549560546
0.6190721511840820,0.8372428894042968
0.6201524734497070,0.8372428894042968
0.6118875503540039,0.8263463973999023
0.6154375076293945,0.8263463973999023
0.6224733352661133,0.8350662231445313
0.6138948440551758,0.8350662231445313
0.6111253738403321,0.8344264984130859
0.6219400405883789,0.8344264984130859
0.6184392929077148,0.8286661148071289
0.6114561080932617,0.8286661148071289
0.6191179275512695,0.8375484466552734
0.6201633453369141,0.8375484466552734
0.6131612777709960,0.8268041610717773
0.6164188385009766,0.8268041610717773
0.6220750808715820,0.8365825653076172
0.6141082763671875,0.8365825653076172
0.6113410949707031,0.8337387084960938
0.6221059799194336,0.8337387084960938
0.6182430267333984,0.8291484832763671
0.6112667083740234,0.8291484832763671
0.6201684951782226,0.8380914688110351
0.6205873489379883,0.8380914688110351
0.6127641677856445,0.8284967422485351
0.6164337158203125,0.8284967422485351
0.6224407196044922,0.8359302520751953
0.6144624710083008,0.8359302520751953
0.6115728378295898,0.8342885971069336
0.6222484588623046,0.8342885971069336
0.6196180343627929,0.8297967910766602
0.6121021270751953,0.8297967910766602
0.6197977066040039,0.8398023605346679
0.6208631515502929,0.8398023605346679
0.6130828857421875,0.8277528762817382
0.6166368484497070,0.8277528762817382
0.6222038269042969,0.8364257812500000
0.6142313003540039,0.8364257812500000
0.6125490188598632,0.8346639633178711
0.6225774765014648,0.8346639633178711
0.6189365386962891,0.8310779571533203
0.6118160247802734,0.8310779571533203
0.6196014404296875,0.8384948730468750
0.6205112457275390,0.8384948730468750
0.6125650405883789,0.8273895263671874
0.6162059783935546,0.8273895263671874
0.6226953506469727,0.8356813430786133
0.6141746520996093,0.8356813430786133
0.6111116409301758,0.8348344802856446
0.6216539382934571,0.8348344802856446
0.6179706573486328,0.8284503936767578
0.6107116699218750,0.8284503936767578
0.6181995391845703,0.8363994598388672
0.6188323974609374,0.8363994598388672
0.6119499206542969,0.8247116088867187
0.6148675918579102,0.8247116088867187
0.6206245422363281,0.8336442947387696
0.6123865127563476,0.8336442947387696
0.6095947265625000,0.8302597045898438
0.6201913833618163,0.8302597045898438
0.6163764953613281,0.8251853942871094
0.6092142105102539,0.8251853942871094
0.6178956985473633,0.8334978103637695
0.6182687759399413,0.8334978103637695
0.6103242874145508,0.8235757827758788
0.6140075683593750,0.8235757827758788
0.6198429107666016,0.8307804107666016
0.6116878509521484,0.8307804107666016
0.6085292816162109,0.8289676666259765
0.6192192077636719,0.8289676666259765
0.6167226791381836,0.8241989135742187
0.6089372634887695,0.8241989135742187
0.6169624328613281,0.8342376708984375
0.6178190231323242,0.8342376708984375
0.6100679397583008,0.8221910476684570
0.6138782501220703,0.8221910476684570
0.6195573806762695,0.8307100296020508
0.6115373611450196,0.8307100296020508
0.6097137451171875,0.8294094085693359
0.6200569152832031,0.8294094085693359
0.6163232803344726,0.8259281158447266
0.6092021942138671,0.8259281158447266
0.6173606872558594,0.8338216781616211
0.6181440353393555,0.8338216781616211
0.6101131439208984,0.8232089996337890
0.6139612197875977,0.8232089996337890
0.6209049224853516,0.8319459915161133
0.6122509002685547,0.8319459915161133
0.6095798492431640,0.8316621780395508
0.6203052520751953,0.8316621780395508
0.6167804718017578,0.8258188247680663
0.6097829818725585,0.8258188247680663
0.6177349090576172,0.8348281860351562
0.6185268402099610,0.8348281860351562
0.6116025924682617,0.8241067886352539
0.6150409698486328,0.8241067886352539
0.6206291198730468,0.8339269638061523
0.6124580383300781,0.8339269638061523
0.6099534988403320,0.8311254501342773
0.6206228256225585,0.8311254501342773
0.6165378570556640,0.8265867233276367
0.6094608306884766,0.8265867233276367
0.6187511444091797,0.8354742050170898
0.6188123703002929,0.8354742050170898
0.6111980438232422,0.8258789062499999
0.6150260925292969,0.8258789062499999
0.6207841873168946,0.8331075668334961
0.6125902175903321,0.8331075668334961
0.6099889755249023,0.8317045211791992
0.6206560134887695,0.8317045211791992
0.6178430557250977,0.8269729614257812
0.6104141235351562,0.8269729614257812
0.6183420181274414,0.8370969772338867
0.6190813064575195,0.8370969772338867
0.6114526748657226,0.8252025604248047
0.6154335021972656,0.8252025604248047
0.6205770492553710,0.8337821960449219
0.6126377105712890,0.8337821960449219
0.6112895965576172,0.8324575424194336
0.6211801528930664,0.8324575424194336
0.6175214767456054,0.8288309097290039
0.6105251312255859,0.8288309097290039
0.6186704635620117,0.8364549636840820
0.6193811416625976,0.8364549636840820
0.6117273330688476,0.8259550094604492
0.6156852722167968,0.8259550094604492
0.6221345901489258,0.8343206405639648
0.6136997222900390,0.8343206405639648
0.6109073638916015,0.8340351104736328
0.6215148925781250,0.8340351104736328
0.6179391860961914,0.8281843185424804
0.6109159469604492,0.8281843185424804
0.6185377120971679,0.8370586395263672
0.6192317962646484,0.8370586395263672
0.6127424240112305,0.8264442443847656
0.6161218643188476,0.8264442443847656
0.6216550827026367,0.8359525680541992
0.6136201858520508,0.8359525680541992
0.6112575531005859,0.8333415985107422
0.6217231750488281,0.8333415985107422
0.6180273056030273,0.8284852981567382
0.6109594345092774,0.8284852981567382
0.6199407577514648,0.8374414443969727
0.6200403213500977,0.8374414443969727
0.6122594833374023,0.8279937744140625
0.6161973953247070,0.8279937744140625
0.6217168807983399,0.8351709365844726
0.6137598037719726,0.8351709365844726
0.6108787536621093,0.8337026596069336
0.6214044570922851,0.8337026596069336
0.6187522888183593,0.8288949966430664
0.6111299514770507,0.8288949966430664
0.6192615509033202,0.8389863967895508
0.6199058532714844,0.8389863967895508
0.6124494552612304,0.8271120071411132
0.6163415908813477,0.8271120071411132
0.6219354629516601,0.8355274200439453
0.6136814117431640,0.8355274200439453
0.6119567871093750,0.8340768814086914
0.6221906661987304,0.8340768814086914
0.6182910919189453,0.8304176330566406
0.6112735748291015,0.8304176330566406
0.6195430755615234,0.8380685806274414
0.6199573516845703,0.8380685806274414
0.6119235992431641,0.8274599075317383
0.6159873962402344,0.8274599075317383
0.6227439880371094,0.8357345581054687
0.6139211654663086,0.8357345581054687
0.6114852905273437,0.8354181289672852
0.6219629287719727,0.8354181289672852
0.6181692123413086,0.8293304443359375
0.6110258102416992,0.8293304443359375
0.6192930221557617,0.8379873275756836
0.6196683883666992,0.8379873275756836
0.6127103805541992,0.8270570755004882
0.6163862228393554,0.8270570755004882
0.6215972900390625,0.8362552642822265
0.6131755828857421,0.8362552642822265
0.6108089447021484,0.8329971313476562
0.6210639953613281,0.8329971313476562
0.6165618896484375,0.8273059844970703
0.6093532562255859,0.8273059844970703
0.6186738967895508,0.8353099822998047
0.6183385848999023,0.8353099822998047
0.6105480194091797,0.8250560760498047
0.6144887924194335,0.8250560760498047
0.6198841094970703,0.8313354492187500
0.6114995956420898,0.8313354492187500
0.6090923309326172,0.8292188644409180
0.6194177627563476,0.8292188644409180
0.6161510467529296,0.8238910675048828
0.6086608886718750,0.8238910675048828
0.6167604446411132,0.8335744857788085
0.6170396804809570,0.8335744857788085
0.6094877243041992,0.8214025497436523
0.6136201858520508,0.8214025497436523
0.6187122344970702,0.8296680450439453
0.6104742050170898,0.8296680450439453
0.6092920303344727,0.8281019210815429
0.6190652847290039,0.8281019210815429
0.6152761459350585,0.8244998931884765
0.6083936691284180,0.8244998931884765
0.6168050765991211,0.8323247909545898
0.6172405242919922,0.8323247909545898
0.6097394943237304,0.8218111038208008
0.6137855529785156,0.8218111038208008
0.6201072692871094,0.8302751541137695
0.6115510940551757,0.8302751541137695
0.6091907501220702,0.8303180694580078
0.6196952819824219,0.8303180694580078
0.6158420562744140,0.8244380950927734
0.6090454101562500,0.8244380950927734
0.6169979095458984,0.8335081100463867
0.6174396514892578,0.8335081100463867
0.6110183715820312,0.8231689453125000
0.6147085189819336,0.8231689453125000
0.6201770782470702,0.8329490661621094
0.6120346069335937,0.8329490661621094
0.6099409103393555,0.8304622650146484
0.6203372955322265,0.8304622650146484
0.6164794921875000,0.8256076812744141
0.6095500946044922,0.8256076812744141
0.6185909271240234,0.8348035812377930
0.6185886383056640,0.8348035812377930
0.6110195159912110,0.8253387451171875
0.6151679992675781,0.8253387451171875
0.6206617355346680,0.8323797225952149
0.6123985290527344,0.8323797225952149
0.6098167419433593,0.8311855316162109
0.6201787948608398,0.8311855316162109
0.6174488067626953,0.8263006210327148
0.6098768234252929,0.8263006210327148
0.6183689117431640,0.8365917205810547
0.6186693191528320,0.8365917205810547
0.6111562728881835,0.8245948791503906
0.6153608322143554,0.8245948791503906
0.6207670211791992,0.8329931259155273
0.6125352859497070,0.8329931259155273
0.6110841751098632,0.8315889358520507
0.6210405349731445,0.8315889358520507
0.6169836044311523,0.8280429840087891
0.6099592208862304,0.8280429840087891
0.6185222625732422,0.8358066558837890
0.6188198089599609,0.8358066558837890
0.6108661651611328,0.8251075744628906
0.6152383804321289,0.8251075744628906
0.6216733932495117,0.8334875106811523
0.6128786087036132,0.8334875106811523
0.6106412887573242,0.8334291458129882
0.6210136413574219,0.8334291458129882
0.6171838760375976,0.8271440505981446
0.6101331710815430,0.8271440505981446
0.6187013626098633,0.8362981796264648
0.6188398361206054,0.8362981796264648
0.6121610641479492,0.8255784988403320
0.6212327957153320,0.8351474761962890
0.6130353927612304,0.8351474761962890
0.6108346939086914,0.8326080322265624
0.6211658477783203,0.8326080322265624
0.6169589996337891,0.8275880813598633
0.6099185943603516,0.8275880813598633
0.6196100234985351,0.8367370605468750
0.6191579818725585,0.8367370605468750
0.6117696762084961,0.8272533416748047
0.6160692214965821,0.8272533416748047
0.6215417861938476,0.8343652725219727
0.6132802963256836,0.8343652725219727
0.6110961914062499,0.8331230163574218
0.6214513778686523,0.8331230163574218
0.6181720733642578,0.8282930374145507
0.6109165191650391,0.8282930374145507
0.6192844390869140,0.8384811401367187
0.6195001602172852,0.8384811401367187
0.6120597839355468,0.8265277862548828
0.6164257049560546,0.8265277862548828
0.6213987350463867,0.8347698211669922
0.6130336761474610,0.8347698211669922
0.6120626449584960,0.8335430145263671
0.6217472076416015,0.8335430145263671
0.6177543640136719,0.8299020767211914
0.6108409881591796,0.8299020767211914
0.6194480895996094,0.8375970840454101
0.6197427749633789,0.8375970840454101
0.6121959686279297,0.8267744064331054
0.6164056777954101,0.8267744064331054
0.6225202560424804,0.8352390289306640
0.6137746810913086,0.8352390289306640
0.6114309310913085,0.8351881027221679
0.6217260360717773,0.8351881027221679
0.6178104400634765,0.8289258956909179
0.6108798980712891,0.8289258956909179
0.6190109252929688,0.8379032135009765
0.6191036224365234,0.8379032135009765
0.6127681732177734,0.8270507812500000
0.6164760589599609,0.8270507812500000
0.6217100143432617,0.8365825653076172
0.6134342193603516,0.8365825653076172
0.6112312316894531,0.8337524414062499
0.6214817047119140,0.8337524414062499
0.6207784652709961,0.8293155670166016
0.6196386337280273,0.8293155670166016
0.6201965332031250,0.8310768127441406
0.6201965332031250,0.8310768127441406
0.6145053863525390,0.8359685897827148
0.6145053863525390,0.8359685897827148
0.6113742828369141,0.8264362335205078
0.6113742828369141,0.8264362335205078
0.6200792312622070,0.8351394653320312
0.6200792312622070,0.8351394653320312
0.6087833404541015,0.8265535354614257
0.6087833404541015,0.8265535354614257
0.6181320190429688,0.8277666091918945
0.6181320190429688,0.8277666091918945
0.6109651565551758,0.8322624206542969
0.6109651565551758,0.8322624206542969
0.6110034942626953,0.8226104736328125
0.6110034942626953,0.8226104736328125
0.6184043884277344,0.8314710617065429
0.6184043884277344,0.8314710617065429
0.6071565628051757,0.8234001159667969
0.6071565628051757,0.8234001159667969
0.6152549743652344,0.8250354766845703
0.6065774917602539,0.8250354766845703
0.6115533828735351,0.8302602767944336
0.6115533828735351,0.8302602767944336
0.6103174209594726,0.8211524963378906
0.6103174209594726,0.8211524963378906
0.6176919937133789,0.8305475234985351
0.6176919937133789,0.8305475234985351
0.6052534103393554,0.8229726791381836
0.6052534103393554,0.8229726791381836
0.6168977737426757,0.8252317428588867
0.6168977737426757,0.8252317428588867
0.6120632171630859,0.8307186126708984
0.6120632171630859,0.8307186126708984
0.6106716156005859,0.8220336914062499
0.6106716156005859,0.8220336914062499
0.6167495727539062,0.8315254211425781
0.6167495727539062,0.8315254211425781
0.6075313568115234,0.8243545532226563
0.6075313568115234,0.8243545532226563
0.6176645278930664,0.8265861511230469
0.6176645278930664,0.8265861511230469
0.6125759124755860,0.8322046279907226
0.6125759124755860,0.8322046279907226
0.6098390579223633,0.8234642028808593
0.6098390579223633,0.8234642028808593
0.6191053390502930,0.8329816818237304
0.6191053390502930,0.8329816818237304
0.6085212707519531,0.8256294250488281
0.6085212707519531,0.8256294250488281
0.6182315826416015,0.8278793334960938
0.6182315826416015,0.8278793334960938
0.6116981506347656,0.8332855224609375
0.6174093246459961,0.8332855224609375
0.6119876861572265,0.8244586944580078
0.6119876861572265,0.8244586944580078
0.6196100234985351,0.8340436935424804
0.6196100234985351,0.8340436935424804
0.6086791992187500,0.8266050338745117
0.6086791992187500,0.8266050338745117
0.6171981811523437,0.8286930084228515
0.6171981811523437,0.8286930084228515
0.6137472152709961,0.8342233657836914
0.6137472152709961,0.8342233657836914
0.6126182556152343,0.8252815246582031
0.6126182556152343,0.8252815246582031
0.6199522018432617,0.8347858428955078
0.6199522018432617,0.8347858428955078
0.6075662612915039,0.8271726608276367
0.6075662612915039,0.8271726608276367
0.6189926147460937,0.8291090011596679
0.6189926147460937,0.8291090011596679
0.6142215728759766,0.8346914291381836
0.6142215728759766,0.8346914291381836
0.6126405715942382,0.8258428573608398
0.6126405715942382,0.8258428573608398
0.6187660217285156,0.8351835250854492
0.6187660217285156,0.8351835250854492
0.6093606948852539,0.8276350021362304
0.6093606948852539,0.8276350021362304
0.6195178985595703,0.8296194076538086
0.6195178985595703,0.8296194076538086
0.6142679214477539,0.8351898193359375
0.6142679214477539,0.8351898193359375
0.6112037658691406,0.8261112213134766
0.6112037658691406,0.8261112213134766
0.6203601837158202,0.8354965209960937
0.6203601837158202,0.8354965209960937
0.6093549728393555,0.8281225204467774
0.6093549728393555,0.8281225204467774
0.6193519592285156,0.8300628662109375
0.6193519592285156,0.8300628662109375
0.6128025054931641,0.8354982376098633
0.6128025054931641,0.8354982376098633
0.6128540039062500,0.8264442443847656
0.6128540039062500,0.8264442443847656
0.6206743240356445,0.8359422683715820
0.6206743240356445,0.8359422683715820
0.6094459533691406,0.8285894393920898
0.6196804046630859,0.8285894393920898
0.6179151535034180,0.8303901672363281
0.6179151535034180,0.8303901672363281
0.6145099639892578,0.8358541488647461
0.6145099639892578,0.8358541488647461
0.6130559921264648,0.8270233154296874
0.6130559921264648,0.8270233154296874
0.6206771850585937,0.8363983154296875
0.6206771850585937,0.8363983154296875
0.6081813812255860,0.8288429260253906
0.6081813812255860,0.8288429260253906
0.6196266174316406,0.8308536529541015
0.6196266174316406,0.8308536529541015
0.6149797439575195,0.8364526748657226
0.6149797439575195,0.8364526748657226
0.6131887435913086,0.8273855209350586
0.6131887435913086,0.8273855209350586
0.6192358016967773,0.8367891311645508
0.6192358016967773,0.8367891311645508
0.6098464965820313,0.8293081283569336
0.6098464965820313,0.8293081283569336
0.6197708129882812,0.8312215805053711
0.6197708129882812,0.8312215805053711
0.6148601531982422,0.8367296218872070
0.6148601531982422,0.8367296218872070
0.6117668151855469,0.8275188446044922
0.6117668151855469,0.8275188446044922
0.6208608627319335,0.8368497848510742
0.6208608627319335,0.8368497848510742
0.6100330352783203,0.8290958404541016
0.6100330352783203,0.8290958404541016
0.6194440841674804,0.8309268951416016
0.6194440841674804,0.8309268951416016
0.6128494262695312,0.8358684539794922
0.6128494262695312,0.8358684539794922
0.6124734878540039,0.8263469696044922
0.6124734878540039,0.8263469696044922
0.6197622299194335,0.8348716735839844
0.6197622299194335,0.8348716735839844
0.6084182739257812,0.8265398025512695
0.6084182739257812,0.8265398025512695
0.6164165496826172,0.8276046752929688
0.6164165496826172,0.8276046752929688
0.6129415512084960,0.8323991775512695
0.6129415512084960,0.8323991775512695
0.6113313674926758,0.8228199005126953
0.6113313674926758,0.8228199005126953
0.6184072494506836,0.8319391250610352
0.6184072494506836,0.8319391250610352
0.6059514999389648,0.8239225387573242
0.6059514999389648,0.8239225387573242
0.6172010421752929,0.8256265640258789
0.6172010421752929,0.8256265640258789
0.6123928070068360,0.8310636520385742
0.6123928070068360,0.8310636520385742
0.6107975006103515,0.8220159530639648
0.6107975006103515,0.8220159530639648
0.6169715881347656,0.8314115524291992
0.6169715881347656,0.8314115524291992
0.6075788497924804,0.8240604400634766
0.6182710647583007,0.8240604400634766
0.6177103042602539,0.8261358261108398
0.6177103042602539,0.8261358261108398
0.6127744674682617,0.8319093704223632
0.6127744674682617,0.8319093704223632
0.6098682403564453,0.8230178833007812
0.6098682403564453,0.8230178833007812
0.6190727233886718,0.8325725555419922
0.6190727233886718,0.8325725555419922
0.6083238601684570,0.8254199981689453
0.6083238601684570,0.8254199981689453
0.6182573318481445,0.8275314331054687
0.6182573318481445,0.8275314331054687
0.6121713638305664,0.8331264495849610
0.6121713638305664,0.8331264495849610
0.6119373321533202,0.8243110656738281
0.6119373321533202,0.8243110656738281
0.6200008392333984,0.8339532852172852
0.6200008392333984,0.8339532852172852
0.6088096618652343,0.8265117645263672
0.6088096618652343,0.8265117645263672
0.6171461105346679,0.8283760070800781
0.6171461105346679,0.8283760070800781
0.6139944076538085,0.8339778900146484
0.6139944076538085,0.8339778900146484
0.6123796463012695,0.8251464843749999
0.6123796463012695,0.8251464843749999
0.6200889587402344,0.8345529556274414
0.6200889587402344,0.8345529556274414
0.6075021743774414,0.8270679473876953
0.6075021743774414,0.8270679473876953
0.6189428329467773,0.8290323257446289
0.6189428329467773,0.8290323257446289
0.6145792007446289,0.8346010208129883
0.6145792007446289,0.8346010208129883
0.6126308441162109,0.8257043838500976
0.6126308441162109,0.8257043838500976
0.6187110900878906,0.8350278854370117
0.6187110900878906,0.8350278854370117
0.6093492507934570,0.8275554656982421
0.6093492507934570,0.8275554656982421
0.6192626953125000,0.8295118331909179
0.6192626953125000,0.8295118331909179
0.6144870758056641,0.8349437713623047
0.6144870758056641,0.8349437713623047
0.6113811492919922,0.8259532928466796
0.6113811492919922,0.8259532928466796
0.6205106735229492,0.8354965209960937
0.6205106735229492,0.8354965209960937
0.6097183227539062,0.8280355453491210
0.6097183227539062,0.8280355453491210
0.6193943023681641,0.8299982070922851
0.6193943023681641,0.8299982070922851
0.6132757186889648,0.8354564666748047
0.6132757186889648,0.8354564666748047
0.6130130767822265,0.8265003204345703
0.6130130767822265,0.8265003204345703
0.6207784652709961,0.8359113693237304
0.6207784652709961,0.8359113693237304
0.6097978591918946,0.8285087585449219
0.6097978591918946,0.8285087585449219
0.6181737899780273,0.8304405212402344
0.6181737899780273,0.8304405212402344
0.6149671554565429,0.8360137939453125
0.6149671554565429,0.8360137939453125
0.6136013031005859,0.8270645141601562
0.6136013031005859,0.8270645141601562
0.6210039138793945,0.8365528106689453
0.6210039138793945,0.8365528106689453
0.6084068298339843,0.8291009902954102
0.6084068298339843,0.8291009902954102
0.6198348999023438,0.8309640884399414
0.6198348999023438,0.8309640884399414
0.6153751373291015,0.8365116119384766
0.6153751373291015,0.8365116119384766
0.6135829925537110,0.8275989532470703
0.6135829925537110,0.8275989532470703
0.6196866989135742,0.8370140075683593
0.6196866989135742,0.8370140075683593
0.6101938247680664,0.8295530319213867
0.6101938247680664,0.8295530319213867
0.6203916549682617,0.8314155578613281
0.6203916549682617,0.8314155578613281
0.6156400680541992,0.8370403289794922
0.6156400680541992,0.8370403289794922
0.6121696472167969,0.8279920578002929
0.6121696472167969,0.8279920578002929
0.6214296340942382,0.8374259948730468
0.6214296340942382,0.8374259948730468
0.6104444503784180,0.8297847747802735
0.6104444503784180,0.8297847747802735
0.6202428817749023,0.8317708969116211
0.6202428817749023,0.8317708969116211
0.6141603469848632,0.8371885299682617
0.6141603469848632,0.8371885299682617
0.6137254714965820,0.8280755996704101
0.6137254714965820,0.8280755996704101
0.6214948654174804,0.8373241424560547
0.6214948654174804,0.8373241424560547
0.6100553512573242,0.8296394348144531
0.6201753616333008,0.8296394348144531
0.6181463241577149,0.8307678222656250
0.6181463241577149,0.8307678222656250
0.6148223876953125,0.8357173919677734
0.6148223876953125,0.8357173919677734
0.6126720428466796,0.8257198333740234
0.6126720428466796,0.8257198333740234
0.6197725296020508,0.8340785980224609
0.6197725296020508,0.8340785980224609
0.6068784713745117,0.8258119583129883
0.6068784713745117,0.8258119583129883
0.6179700851440429,0.8267726898193359
0.6179700851440429,0.8267726898193359
0.6134359359741210,0.8315929412841797
0.6134359359741210,0.8315929412841797
0.6109960556030273,0.8220920562744141
0.6109960556030273,0.8220920562744141
0.6170236587524414,0.8308032989501953
0.6170236587524414,0.8308032989501953
0.6072217941284179,0.8230230331420898
0.6072217941284179,0.8230230331420898
0.6171112060546875,0.8246114730834960
0.6171112060546875,0.8246114730834960
0.6125095367431640,0.8300748825073242
0.6125095367431640,0.8300748825073242
0.6092130661010742,0.8210752487182617
0.6092130661010742,0.8210752487182617
0.6184398651123046,0.8307037353515625
0.6184398651123046,0.8307037353515625
0.6076635360717774,0.8234401702880859
0.6076635360717774,0.8234401702880859
0.6175123214721679,0.8254920959472656
0.6175123214721679,0.8254920959472656
0.6116106033325195,0.8312782287597656
0.6116106033325195,0.8312782287597656
0.6114795684814452,0.8225011825561523
0.6114795684814452,0.8225011825561523
0.6192106246948242,0.8254068374633788
0.6152235031127929,0.8254068374633788
0.6173372268676758,0.8332735061645508
0.6168571472167969,0.8332735061645508
0.6102178573608398,0.8226791381835937
0.6150953292846679,0.8226791381835937
0.6206153869628906,0.8309778213500977
0.6117439270019531,0.8309778213500977
0.6101675033569336,0.8316301345825196
0.6200283050537109,0.8316301345825196
0.6157693862915039,0.8250646591186523
0.6091775894165039,0.8250646591186523
0.6177761077880859,0.8342885971069336
0.6173555374145507,0.8342885971069336
0.6113943099975586,0.8237297058105468
0.6155719757080078,0.8237297058105468
0.6204019546508789,0.8332723617553711
0.6119482040405273,0.8332723617553711
0.6105640411376952,0.8309572219848632
0.6203407287597656,0.8309572219848632
0.6160594940185546,0.8257593154907227
0.6093435287475586,0.8257593154907227
0.6190687179565429,0.8349369049072265
0.6183168411254882,0.8349369049072265
0.6109920501708984,0.8256425857543945
0.6158575057983399,0.8256425857543945
0.6206937789916992,0.8323923110961914
0.6122629165649414,0.8323923110961914
0.6103523254394531,0.8314790725708008
0.6201581954956055,0.8314790725708008
0.6168045043945313,0.8263561248779296
0.6095975875854492,0.8263561248779296
0.6186344146728515,0.8368452072143554
0.6181983947753906,0.8368452072143554
0.6111917495727539,0.8247196197509765
0.6159902572631836,0.8247196197509765
0.6206743240356445,0.8328569412231445
0.6122995376586914,0.8328569412231445
0.6114606857299805,0.8319105148315430
0.6208980560302734,0.8319105148315430
0.6163650512695312,0.8281894683837890
0.6097629547119140,0.8281894683837890
0.6188879013061523,0.8357448577880859
0.6184730529785156,0.8357448577880859
0.6109685897827148,0.8250698089599610
0.6158060073852539,0.8250698089599610
0.6216585159301757,0.8333267211914063
0.6126422882080078,0.8333267211914063
0.6111110687255860,0.8337043762207031
0.6209953308105468,0.8337043762207031
0.6166969299316406,0.8272687911987304
0.6099237442016602,0.8272687911987304
0.6190446853637696,0.8363279342651367
0.6185565948486328,0.8363279342651367
0.6121850967407226,0.8256082534790039
0.6167690277099609,0.8256082534790039
0.6212940216064453,0.8352121353149414
0.6129083633422852,0.8352121353149414
0.6113948822021484,0.8329542160034179
0.6212688446044922,0.8329542160034179
0.6164989471435547,0.8278352737426757
0.6097892761230469,0.8278352737426757
0.6198738098144531,0.8368314743041992
0.6189868927001952,0.8368314743041992
0.6118051528930664,0.8276578903198242
0.6166677474975586,0.8276578903198242
0.6214204788208008,0.8342782974243164
0.6130611419677734,0.8342782974243164
0.6114727020263672,0.8333827972412109
0.6213741302490234,0.8333827972412109
0.6175420761108398,0.8282564163208007
0.6106515884399414,0.8282564163208007
0.6196020126342773,0.8387546539306641
0.6190973281860351,0.8387546539306641
0.6120185852050781,0.8266416549682617
0.6168582916259765,0.8266416549682617
0.6212917327880859,0.8348556518554687
0.6128271102905273,0.8348556518554687
0.6123430252075195,0.8339481353759766
0.6216665267944336,0.8339481353759766
0.6172788619995117,0.8301876068115234
0.6106733322143555,0.8301876068115234
0.6197839736938476,0.8377893447875976
0.6192861557006836,0.8377893447875976
0.6121112823486328,0.8269952774047852
0.6169996261596680,0.8269952774047852
0.6224676132202148,0.8350570678710937
0.6135395050048827,0.8350570678710937
0.6118074417114258,0.8353265762329102
0.6214776992797851,0.8353265762329102
0.6170459747314453,0.8283634185791016
0.6102939605712890,0.8283634185791016
0.6188289642333984,0.8370901107788086
0.6182430267333984,0.8370901107788086
0.6120208740234375,0.8258628845214844
0.6161539077758789,0.8258628845214844
0.6207710266113281,0.8344940185546875
0.6120391845703125,0.8344940185546875
0.6103992462158203,0.8309789657592773
0.6198709487915038,0.8309789657592773
0.6153602600097656,0.8250194549560547
0.6153602600097656,0.8250194549560547
0.6181417465209961,0.8335161209106445
0.6171529769897460,0.8335161209106445
0.6097732543945312,0.8234132766723633
0.6145774841308593,0.8234132766723633
0.6192249298095703,0.8295450210571289
0.6106195449829102,0.8295450210571289
0.6087524414062500,0.8280321121215820
0.6184186935424805,0.8280321121215820
0.6149625778198242,0.8226459503173827
0.6149625778198242,0.8226459503173827
0.6168136596679688,0.8330217361450195
0.6162557601928711,0.8330217361450195
0.6091541290283203,0.8207885742187500
0.6142581939697266,0.8207885742187500
0.6189107894897461,0.8288715362548827
0.6104473114013672,0.8288715362548827
0.6097429275512695,0.8281866073608398
0.6191688537597656,0.8281866073608398
0.6146833419799804,0.8244684219360351
0.6081058502197265,0.8244684219360351
0.6172760009765624,0.8323928833007812
0.6168479919433594,0.8323928833007812
0.6093120574951172,0.8216829299926758
0.6144561767578125,0.8216829299926758
0.6202148437500000,0.8301212310791015
0.6112461090087891,0.8301212310791015
0.6098814010620117,0.8308748245239258
0.6197118759155273,0.8308748245239258
0.6154077529907226,0.8244621276855468
0.6087341308593750,0.8244621276855468
0.6179391860961914,0.8337135314941406
0.6179391860961914,0.8337135314941406
0.6111722946166992,0.8232095718383788
0.6158174514770508,0.8232095718383788
0.6203836441040039,0.8329181671142578
0.6118532180786133,0.8329181671142578
0.6104959487915039,0.8305944442749024
0.6202966690063476,0.8305944442749024
0.6154317855834961,0.8255212783813476
0.6087730407714843,0.8255212783813476
0.6190681457519531,0.8347709655761718
0.6190681457519531,0.8347709655761718
0.6108324050903320,0.8253959655761719
0.6159358978271484,0.8253959655761719
0.6205358505249023,0.8320295333862304
0.6120649337768554,0.8320295333862304
0.6106201171875000,0.8312353134155274
0.6203950881958008,0.8312353134155274
0.6166671752929688,0.8260145187377930
0.6166671752929688,0.8260145187377930
0.6185926437377930,0.8366849899291992
0.6181337356567382,0.8366849899291992
0.6110887527465820,0.8244215011596679
0.6160995483398437,0.8244215011596679
0.6201656341552734,0.8325822830200195
0.6117553710937500,0.8325822830200195
0.6114721298217773,0.8318435668945312
0.6207138061523437,0.8318435668945312
0.6161642074584961,0.8279439926147460
0.6161642074584961,0.8279439926147460
0.6188306808471680,0.8356435775756835
0.6181852340698242,0.8356435775756835
0.6110137939453125,0.8247465133666992
0.6110137939453125,0.8247465133666992
0.6213912963867188,0.8330263137817383
0.6124923706054687,0.8330263137817383
0.6110120773315429,0.8336076736450195
0.6110120773315429,0.8336076736450195
0.6162672042846680,0.8269214630126953
0.6096033096313477,0.8269214630126953
0.6184364318847656,0.8360103607177735
0.6179082870483398,0.8360103607177735
0.6118417739868164,0.8253026962280273
0.6163759231567383,0.8253026962280273
0.6210542678833008,0.8349477767944335
0.6210542678833008,0.8349477767944335
0.6111717224121094,0.8325868606567383
0.6208986282348633,0.8325868606567383
0.6163616180419922,0.8273483276367187
0.6163616180419922,0.8273483276367187
0.6196752548217773,0.8365293502807617
0.6196752548217773,0.8365293502807617
0.6115316390991211,0.8271457672119140
0.6165309906005859,0.8271457672119140
0.6212099075317382,0.8338823318481445
0.6212099075317382,0.8338823318481445
0.6109170913696289,0.8331178665161133
0.6205947875976562,0.8331178665161133
0.6171529769897460,0.8278678894042969
0.6171529769897460,0.8278678894042969
0.6193336486816406,0.8385086059570312
0.6193336486816406,0.8385086059570312
0.6116048812866210,0.8262096405029297
0.6116048812866210,0.8262096405029297
0.6213272094726562,0.8344001770019531
0.6213272094726562,0.8344001770019531
0.6121570587158203,0.8334726333618164
0.6215595245361328,0.8334726333618164
0.6167615890502930,0.8297309875488281
0.6167615890502930,0.8297309875488281
0.6195173263549805,0.8374082565307617
0.6195173263549805,0.8374082565307617
0.6114509582519531,0.8266147613525391
0.6164566040039062,0.8266147613525391
0.6221111297607421,0.8347795486450195
0.6221111297607421,0.8347795486450195
0.6117679595947265,0.8355228424072265
0.6213838577270507,0.8355228424072265
0.6169069290161132,0.8285631179809571
0.6102527618408203,0.8285631179809571
0.6195219039916992,0.8377956390380860
0.6195219039916992,0.8377956390380860
0.6124162673950195,0.8268144607543945
0.6124162673950195,0.8268144607543945
0.6216133117675781,0.8363931655883788
0.6216133117675781,0.8363931655883788
0.6115333557128906,0.8336729049682617
0.6211584091186523,0.8336729049682617
0.6161550521850586,0.8280944824218750
0.6093933105468750,0.8280944824218750
0.6195837020874023,0.8369190216064453
0.6195837020874023,0.8369190216064453
0.6110549926757812,0.8269849777221679
0.6110549926757812,0.8269849777221679
0.6204116821289062,0.8327470779418945
0.6204116821289062,0.8327470779418945
0.6101835250854492,0.8309566497802734
0.6101835250854492,0.8309566497802734
0.6155445098876953,0.8249473571777344
0.6155445098876953,0.8249473571777344
0.6174659729003906,0.8348567962646484
0.6174659729003906,0.8348567962646484
0.6095088958740235,0.8220874786376953
0.6095088958740235,0.8220874786376953
0.6187374114990234,0.8297286987304687
0.6187374114990234,0.8297286987304687
0.6096496582031250,0.8286443710327148
0.6188409805297851,0.8286443710327148
0.6142942428588867,0.8246681213378906
0.6077287673950195,0.8246681213378906
0.6169069290161132,0.8323007583618164
0.6169069290161132,0.8323007583618164
0.6092811584472656,0.8214609146118164
0.6143663406372070,0.8214609146118164
0.6195653915405274,0.8296062469482421
0.6108003616333008,0.8296062469482421
0.6093595504760742,0.8304800033569336
0.6191190719604492,0.8304800033569336
0.6145998001098633,0.8237411499023437
0.6145998001098633,0.8237411499023437
0.6171146392822265,0.8331235885620117
0.6171146392822265,0.8331235885620117
0.6105085372924804,0.8225452423095703
0.6105085372924804,0.8225452423095703
0.6198291778564453,0.8323820114135742
0.6198291778564453,0.8323820114135742
0.6100988388061523,0.8301858901977539
0.6198886871337891,0.8301858901977539
0.6153099060058593,0.8250909805297851
0.6153099060058593,0.8250909805297851
0.6187568664550781,0.8344911575317383
0.6187568664550781,0.8344911575317383
0.6106801986694336,0.8252826690673828
0.6106801986694336,0.8252826690673828
0.6203487396240234,0.8319540023803711
0.6203487396240234,0.8319540023803711
0.6102453231811523,0.8313806533813476
0.6198085784912110,0.8313806533813476
0.6163742065429687,0.8261049270629882
0.6163742065429687,0.8261049270629882
0.6185760498046875,0.8366392135620117
0.6179574966430664,0.8366392135620117
0.6109342575073242,0.8244815826416015
0.6109342575073242,0.8244815826416015
0.6206377029418945,0.8326583862304687
0.6206377029418945,0.8326583862304687
0.6115287780761719,0.8318304061889649
0.6207452774047851,0.8318304061889649
0.6160348892211914,0.8280750274658203
0.6160348892211914,0.8280750274658203
0.6188764572143555,0.8357814788818360
0.6188764572143555,0.8357814788818360
0.6106561660766602,0.8249811172485352
0.6106561660766602,0.8249811172485352
0.6213323593139648,0.8330480575561523
0.6213323593139648,0.8330480575561523
0.6109560012817382,0.8336723327636718
0.6109560012817382,0.8336723327636718
0.6161293029785156,0.8268671035766602
0.6161293029785156,0.8268671035766602
0.6188461303710937,0.8361156463623046
0.6188461303710937,0.8361156463623046
0.6117382049560547,0.8253398895263672
0.6117382049560547,0.8253398895263672
0.6208700180053711,0.8349128723144531
0.6208700180053711,0.8349128723144531
0.6111608505249023,0.8326097488403320
0.6208482742309570,0.8326097488403320
0.6095924377441406,0.8273117065429687
0.6095924377441406,0.8295633316040039
0.6197015762329101,0.8364875793457031
0.6184970855712890,0.8364875793457031
0.6114933013916015,0.8271966934204101
0.6114933013916015,0.8271966934204101
0.6211217880249024,0.8339475631713867
0.6211217880249024,0.8339475631713867
0.6112672805786132,0.8331098556518555
0.6112672805786132,0.8331098556518555
0.6170946121215820,0.8278678894042969
0.6170946121215820,0.8278678894042969
0.6193428039550781,0.8385246276855468
0.6193428039550781,0.8385246276855468
0.6116323471069336,0.8262193679809570
0.6116323471069336,0.8262193679809570
0.6209495544433593,0.8343503952026367
0.6209495544433593,0.8343503952026367
0.6122005462646484,0.8336465835571288
0.6212711334228516,0.8336465835571288
0.6167364120483398,0.8298093795776367
0.6167364120483398,0.8298093795776367
0.6195705413818359,0.8374992370605469
0.6195705413818359,0.8374992370605469
0.6117164611816406,0.8266033172607422
0.6169607162475585,0.8266033172607422
0.6220945358276367,0.8348579406738281
0.6220945358276367,0.8348579406738281
0.6118446350097656,0.8355646133422852
0.6118446350097656,0.8355646133422852
0.6169132232666016,0.8287118911743164
0.6169132232666016,0.8287118911743164
0.6192884445190430,0.8379478454589844
0.6192884445190430,0.8379478454589844
0.6125873565673828,0.8271297454833985
0.6125873565673828,0.8271297454833985
0.6217781066894531,0.8367942810058594
0.6217781066894531,0.8367942810058594
0.6119607925415039,0.8344888687133789
0.6119607925415039,0.8344888687133789
0.6168989181518555,0.8289241790771484
0.6168989181518555,0.8289241790771484
0.6203104019165039,0.8381950378417968
0.6203104019165039,0.8381950378417968
0.6120071411132812,0.8287067413330078
0.6120071411132812,0.8287067413330078
0.6215829849243164,0.8350141525268554
0.6215829849243164,0.8350141525268554
0.6111940383911133,0.8339899063110351
0.6111940383911133,0.8339899063110351
0.6170173645019531,0.8282220840454101
0.6170173645019531,0.8282220840454101
0.6190029144287109,0.8381738662719727
0.6190029144287109,0.8381738662719727
0.6108283996582031,0.8249015808105469
0.6108283996582031,0.8249015808105469
0.6201164245605468,0.8320478439331055
0.6201164245605468,0.8320478439331055
0.6106967926025391,0.8305898666381836
0.6106967926025391,0.8305898666381836
0.6148509979248047,0.8260105133056640
0.6148509979248047,0.8260105133056640
0.6175271987915039,0.8331304550170898
0.6175271987915039,0.8331304550170898
0.6091398239135742,0.8216480255126953
0.6091398239135742,0.8216480255126953
0.6197788238525390,0.8293676376342773
0.6197788238525390,0.8293676376342773
0.6094167709350585,0.8299867630004882
0.6094167709350585,0.8299867630004882
0.6143068313598633,0.8230001449584960
0.6143068313598633,0.8230001449584960
0.6172187805175781,0.8321771621704102
0.6172187805175781,0.8321771621704102
0.6102006912231445,0.8215312957763672
0.6102006912231445,0.8215312957763672
0.6194320678710937,0.8311483383178710
0.6194320678710937,0.8311483383178710
0.6097806930541992,0.8292961120605469
0.6097806930541992,0.8292961120605469
0.6143829345703125,0.8239665985107422
0.6143829345703125,0.8239665985107422
0.6184913635253906,0.8333341598510742
0.6184913635253906,0.8333341598510742
0.6104152679443359,0.8241680145263671
0.6104152679443359,0.8241680145263671
0.6200614929199219,0.8310190200805664
0.6200614929199219,0.8310190200805664
0.6103225708007812,0.8303581237792969
0.6103225708007812,0.8303581237792969
0.6160326004028320,0.8252197265625000
0.6160326004028320,0.8252197265625000
0.6184610366821289,0.8360246658325196
0.6184610366821289,0.8360246658325196
0.6108919143676758,0.8237886428833008
0.6108919143676758,0.8237886428833008
0.6200998306274413,0.8320438385009765
0.6200998306274413,0.8320438385009765
0.6114933013916015,0.8314682006835937
0.6206548690795898,0.8314682006835937
0.6158735275268554,0.8276641845703124
0.6158735275268554,0.8276641845703124
0.6188592910766602,0.8353763580322265
0.6188592910766602,0.8353763580322265
0.6110876083374023,0.8246852874755859
0.6110876083374023,0.8246852874755859
0.6215183258056640,0.8328020095825195
0.6215183258056640,0.8328020095825195
0.6112466812133789,0.8335189819335938
0.6112466812133789,0.8335189819335938
0.6161842346191406,0.8266971588134765
0.6161842346191406,0.8266971588134765
0.6185989379882812,0.8359045028686524
0.6185989379882812,0.8359045028686524
0.6119047164916992,0.8251945495605468
0.6119047164916992,0.8251945495605468
0.6211395263671875,0.8348190307617187
0.6211395263671875,0.8348190307617187
0.6114830017089844,0.8324335098266601
0.6114830017089844,0.8324335098266601
0.6162443161010742,0.8271543502807617
0.6162443161010742,0.8271543502807617
0.6198211669921875,0.8362220764160156
0.6198211669921875,0.8362220764160156
0.6115745544433594,0.8269569396972656
0.6115745544433594,0.8269569396972656
0.6212608337402343,0.8335412979125977
0.6212608337402343,0.8335412979125977
0.6110692977905273,0.8329656600952148
0.6110692977905273,0.8329656600952148
0.6169630050659179,0.8274971008300781
0.6169630050659179,0.8274971008300781
0.6193948745727539,0.8382328033447265
0.6193948745727539,0.8382328033447265
0.6115802764892578,0.8257999420166016
0.6168233871459960,0.8257999420166016
0.6212282180786133,0.8340459823608398
0.6212282180786133,0.8340459823608398
0.6122657775878906,0.8334583282470703
0.6122657775878906,0.8334583282470703
0.6166225433349609,0.8295186996459961
0.6166225433349609,0.8295186996459961
0.6197181701660156,0.8372640609741211
0.6197181701660156,0.8372640609741211
0.6114171981811524,0.8264110565185546
0.6166883468627929,0.8264110565185546
0.6220321655273438,0.8344757080078125
0.6220321655273438,0.8344757080078125
0.6118417739868164,0.8353643417358398
0.6118417739868164,0.8353643417358398
0.6167427062988281,0.8283817291259765
0.6167427062988281,0.8283817291259765
0.6197496414184570,0.8377201080322265
0.6197496414184570,0.8377201080322265
0.6125478744506836,0.8269231796264648
0.6125478744506836,0.8269231796264648
0.6217672348022460,0.8366054534912110
0.6217672348022460,0.8366054534912110
0.6120786666870117,0.8343801498413086
0.6120786666870117,0.8343801498413086
0.6165618896484375,0.8288251876831054
0.6165618896484375,0.8288251876831054
0.6205472946166992,0.8381349563598632
0.6205472946166992,0.8381349563598632
0.6122337341308594,0.8288343429565429
0.6122337341308594,0.8288343429565429
0.6219228744506836,0.8353174209594726
0.6219228744506836,0.8353174209594726
0.6120929718017578,0.8345684051513672
0.6120929718017578,0.8345684051513672
0.6174716949462891,0.8289590835571289
0.6174716949462891,0.8289590835571289
0.6197376251220703,0.8394767761230468
0.6197376251220703,0.8394767761230468
0.6118246078491211,0.8267171859741210
0.6118246078491211,0.8267171859741210
0.6208482742309570,0.8345420837402343
0.6120798110961914,0.8345420837402343
0.6119562149047851,0.8332031249999999
0.6119562149047851,0.8332031249999999
0.6156841278076172,0.8284503936767578
0.6156841278076172,0.8284503936767578
0.6183609008789063,0.8351663589477539
0.6183609008789063,0.8351663589477539
0.6100971221923828,0.8234264373779296
0.6100971221923828,0.8234264373779296
0.6200820922851562,0.8306161880493164
0.6200820922851562,0.8306161880493164
0.6095340728759765,0.8308427810668945
0.6095340728759765,0.8308427810668945
0.6140693664550781,0.8231117248535156
0.6140693664550781,0.8231117248535156
0.6165378570556640,0.8319316864013672
0.6165378570556640,0.8319316864013672
0.6095386505126953,0.8207633972167968
0.6095386505126953,0.8207633972167968
0.6186836242675781,0.8301452636718750
0.6186836242675781,0.8301452636718750
0.6088937759399414,0.8278575897216797
0.6088937759399414,0.8278575897216797
0.6137895584106445,0.8225315093994140
0.6137895584106445,0.8225315093994140
0.6175003051757812,0.8318555831909179
0.6175003051757812,0.8318555831909179
0.6093091964721680,0.8227563858032226
0.6093091964721680,0.8227563858032226
0.6190166473388672,0.8295324325561523
0.6190166473388672,0.8295324325561523
0.6091106414794921,0.8290466308593750
0.6091106414794921,0.8290466308593750
0.6149585723876952,0.8238733291625976
0.6149585723876952,0.8238733291625976
0.6177726745605469,0.8348121643066406
0.6177726745605469,0.8348121643066406
0.6100358963012695,0.8226110458374023
0.6100358963012695,0.8226110458374023
0.6197090148925781,0.8310487747192382
0.6197090148925781,0.8310487747192382
0.6108861923217773,0.8306076049804687
0.6108861923217773,0.8306076049804687
0.6152612686157226,0.8267526626586914
0.6152612686157226,0.8267526626586914
0.6183139801025390,0.8346736907958984
0.6183139801025390,0.8346736907958984
0.6101995468139648,0.8238384246826171
0.6101995468139648,0.8238384246826171
0.6208797454833984,0.8320598602294922
0.6208797454833984,0.8320598602294922
0.6107608795166015,0.8330463409423828
0.6107608795166015,0.8330463409423828
0.6154827117919922,0.8260763168334960
0.6154827117919922,0.8260763168334960
0.6185176849365234,0.8353179931640625
0.6185176849365234,0.8353179931640625
0.6113433837890625,0.8244667053222656
0.6113433837890625,0.8244667053222656
0.6204809188842774,0.8341272354125976
0.6204809188842774,0.8341272354125976
0.6108879089355469,0.8319316864013672
0.6108879089355469,0.8319316864013672
0.6151657104492188,0.8263790130615234
0.6151657104492188,0.8263790130615234
0.6192661285400390,0.8356218338012695
0.6192661285400390,0.8356218338012695
0.6108713150024414,0.8262353897094726
0.6108713150024414,0.8262353897094726
0.6205307006835937,0.8327459335327149
0.6205307006835937,0.8327459335327149
0.6108976364135742,0.8321010589599609
0.6108976364135742,0.8321010589599609
0.6160892486572266,0.8266714096069335
0.6160892486572266,0.8266714096069335
0.6186555862426758,0.8374248504638672
0.6186555862426758,0.8374248504638672
0.6107637405395507,0.8249530792236328
0.6107637405395507,0.8249530792236328
0.6200946807861328,0.8331556320190430
0.6200946807861328,0.8331556320190430
0.6115407943725586,0.8325462341308594
0.6115407943725586,0.8325462341308594
0.6156263351440430,0.8285436630249023
0.6156263351440430,0.8285436630249023
0.6187711715698242,0.8361831665039062
0.6187711715698242,0.8361831665039062
0.6107603073120117,0.8253564834594727
0.6107603073120117,0.8253564834594727
0.6211378097534179,0.8334880828857422
0.6211378097534179,0.8334880828857422
0.6109342575073242,0.8344631195068359
0.6109342575073242,0.8344631195068359
0.6156263351440430,0.8273557662963867
0.6156263351440430,0.8273557662963867
0.6184461593627929,0.8366827011108399
0.6184461593627929,0.8366827011108399
0.6114366531372070,0.8258096694946289
0.6114366531372070,0.8258096694946289
0.6206697463989258,0.8355405807495117
0.6120431900024413,0.8355405807495117
0.6110670089721679,0.8333404541015624
0.6110670089721679,0.8333404541015624
0.6157396316528320,0.8277437210083007
0.6157396316528320,0.8277437210083007
0.6195419311523437,0.8370637893676758
0.6195419311523437,0.8370637893676758
0.6111923217773437,0.8277288436889648
0.6111923217773437,0.8277288436889648
0.6208105087280273,0.8343652725219727
0.6208105087280273,0.8343652725219727
0.6109348297119140,0.8338108062744141
0.6109348297119140,0.8338108062744141
0.6164239883422852,0.8282964706420898
0.6164239883422852,0.8282964706420898
0.6191659927368164,0.8391620635986328
0.6191659927368164,0.8391620635986328
0.6112649917602538,0.8265832901000977
0.6112649917602538,0.8265832901000977
0.6209232330322265,0.8347240447998047
0.6209232330322265,0.8347240447998047
0.6119173049926757,0.8340831756591797
0.6119173049926757,0.8340831756591797
0.6092817306518554,0.8305114746093750
0.6092817306518554,0.8295507431030273
0.6092817306518554,0.8295507431030273
0.6173595428466797,0.8303215026855468
0.6092113494873047,0.8303215026855468
0.6151628494262695,0.8359273910522461
0.6151628494262695,0.8359273910522461
0.6121015548706055,0.8261701583862304
0.6121015548706055,0.8261701583862304
0.6195888519287109,0.8348442077636719
0.6195888519287109,0.8348442077636719
0.6065414428710937,0.8266822814941406
0.6065414428710937,0.8266822814941406
0.6173824310302735,0.8272813796997071
0.6173824310302735,0.8272813796997071
0.6138387680053711,0.8325714111328125
0.6138387680053711,0.8325714111328125
0.6106246948242188,0.8230070114135742
0.6106246948242188,0.8230070114135742
0.6169326782226562,0.8319894790649414
0.6169326782226562,0.8319894790649414
0.6069002151489258,0.8245416641235351
0.6069002151489258,0.8245416641235351
0.6167673110961914,0.8257118225097656
0.6167673110961914,0.8257118225097656
0.6131961822509765,0.8316467285156249
0.6131961822509765,0.8316467285156249
0.6090585708618164,0.8225257873535156
0.6090585708618164,0.8225257873535156
0.6185085296630859,0.8321296691894531
0.6185085296630859,0.8321296691894531
0.6075284957885742,0.8248300552368164
0.6075284957885742,0.8248300552368164
0.6171226501464844,0.8264413833618164
0.6171226501464844,0.8264413833618164
0.6122697830200196,0.8324501037597656
0.6122697830200196,0.8324501037597656
0.6109617233276367,0.8236169815063477
0.6109617233276367,0.8236169815063477
0.6191665649414062,0.8333353042602539
0.6135337829589843,0.8333353042602539
0.6079851150512695,0.8262434005737305
0.6079851150512695,0.8262434005737305
0.6163690567016601,0.8277397155761719
0.6163690567016601,0.8277397155761719
0.6143892288208007,0.8338331222534180
0.6143892288208007,0.8338331222534180
0.6117828369140624,0.8246921539306641
0.6117828369140624,0.8246921539306641
0.6196289062500000,0.8344144821166992
0.6196289062500000,0.8344144821166992
0.6069585800170898,0.8271732330322266
0.6069585800170898,0.8271732330322266
0.6181909561157226,0.8283880233764648
0.6181909561157226,0.8283880233764648
0.6147594451904297,0.8344636917114258
0.6147594451904297,0.8344636917114258
0.6119201660156249,0.8254491806030273
0.6119201660156249,0.8254491806030273
0.6184473037719727,0.8348001480102539
0.6184473037719727,0.8348001480102539
0.6085395812988281,0.8277379989624023
0.6085395812988281,0.8277379989624023
0.6185932159423828,0.8289081573486328
0.6185932159423828,0.8289081573486328
0.6149110794067383,0.8350885391235351
0.6149110794067383,0.8350885391235351
0.6105531692504883,0.8257095336914062
0.6105531692504883,0.8257095336914062
0.6199533462524414,0.8353105545043945
0.6199533462524414,0.8353105545043945
0.6087776184082031,0.8280109405517578
0.6087776184082031,0.8280109405517578
0.6184535980224609,0.8294237136840820
0.6184535980224609,0.8294237136840820
0.6135509490966796,0.8353036880493164
0.6135509490966796,0.8353036880493164
0.6120300292968750,0.8262016296386718
0.6120300292968750,0.8262016296386718
0.6203109741210937,0.8357076644897461
0.6203109741210937,0.8357076644897461
0.6088771820068359,0.8285448074340820
0.6101686477661132,0.8259109497070313
0.6150775909423828,0.8357213973999024
0.6200895309448242,0.8357213973999024
0.6122428894042968,0.8265769958496093
0.6122428894042968,0.8265769958496093
0.6202857971191406,0.8360704421997071
0.6202857971191406,0.8360704421997071
0.6076217651367187,0.8287399291992187
0.6076217651367187,0.8287399291992187
0.6187465667724609,0.8301567077636719
0.6187465667724609,0.8301567077636719
0.6155204772949219,0.8360509872436523
0.6155204772949219,0.8360509872436523
0.6125301361083985,0.8270988464355469
0.6125301361083985,0.8270988464355469
0.6190578460693359,0.8365859985351562
0.6190578460693359,0.8365859985351562
0.6092102050781250,0.8293001174926757
0.6092102050781250,0.8293001174926757
0.6190166473388672,0.8306510925292968
0.6190166473388672,0.8306510925292968
0.6155605316162109,0.8366861343383789
0.6155605316162109,0.8366861343383789
0.6112289428710938,0.8273591995239258
0.6112289428710938,0.8273591995239258
0.6205610275268555,0.8369922637939453
0.6205610275268555,0.8369922637939453
0.6095489501953125,0.8297653198242188
0.6095489501953125,0.8297653198242188
0.6190807342529296,0.8311157226562500
0.6190807342529296,0.8311157226562500
0.6142089843749999,0.8369504928588867
0.6142089843749999,0.8369504928588867
0.6127658843994140,0.8278335571289063
0.6127658843994140,0.8278335571289063
0.6207927703857422,0.8372171401977538
0.6207927703857422,0.8372171401977538
0.6094161987304687,0.8299747467041015
0.6094161987304687,0.8299747467041015
0.6175626754760742,0.8311031341552734
0.6175626754760742,0.8311031341552734
0.6154684066772461,0.8369201660156250
0.6154684066772461,0.8369201660156250
0.6126623153686523,0.8274066925048827
0.6126623153686523,0.8274066925048827
0.6202222824096679,0.8366346359252930
0.6202222824096679,0.8366346359252930
0.6072252273559570,0.8285476684570312
0.6072252273559570,0.8285476684570312
0.6179059982299805,0.8288091659545899
0.6179059982299805,0.8288091659545899
0.6141334533691406,0.8338371276855469
0.6141334533691406,0.8338371276855469
0.6107975006103515,0.8238515853881836
0.6107975006103515,0.8238515853881836
0.6169847488403321,0.8324169158935547
0.6169847488403321,0.8324169158935547
0.6067960739135742,0.8244541168212890
0.6067960739135742,0.8244541168212890
0.6164497375488281,0.8250383377075196
0.6164497375488281,0.8250383377075196
0.6126245498657227,0.8306156158447265
0.6126245498657227,0.8306156158447265
0.6080583572387696,0.8209939956665039
0.6080583572387696,0.8209939956665039
0.6173578262329101,0.8303936004638671
0.6173578262329101,0.8303936004638671
0.6061489105224609,0.8229600906372070
0.6061489105224609,0.8229600906372070
0.6159067153930664,0.8243997573852538
0.6159067153930664,0.8243997573852538
0.6112174987792969,0.8303415298461914
0.6112174987792969,0.8303415298461914
0.6097160339355469,0.8213504791259766
0.6097160339355469,0.8213504791259766
0.6181394577026367,0.8311311721801757
0.6181394577026367,0.8311311721801757
0.6068040847778320,0.8242252349853515
0.6068040847778320,0.8242252349853515
0.6150650024414063,0.8255516052246094
0.6150650024414063,0.8255516052246094
0.6134227752685547,0.8319505691528321
0.6134227752685547,0.8319505691528321
0.6106098175048827,0.8230939865112304
0.6106098175048827,0.8230939865112304
0.6188535690307617,0.8328495025634766
0.6188535690307617,0.8328495025634766
0.6061574935913085,0.8256809234619140
0.6169933319091797,0.8256809234619140
0.6174482345581055,0.8270982742309571
0.6174482345581055,0.8270982742309571
0.6144235610961913,0.8332855224609375
0.6144235610961913,0.8332855224609375
0.6112546920776367,0.8243968963623046
0.6112546920776367,0.8243968963623046
0.6179689407348633,0.8338932037353516
0.6179689407348633,0.8338932037353516
0.6081670761108399,0.8266651153564453
0.6081670761108399,0.8266651153564453
0.6178682327270507,0.8278684616088867
0.6099054336547851,0.8278684616088867
0.6145883560180664,0.8340562820434571
0.6145883560180664,0.8340562820434571
0.6101657867431640,0.8248569488525390
0.6101657867431640,0.8248569488525390
0.6196386337280273,0.8344848632812499
0.6196386337280273,0.8344848632812499
0.6085035324096679,0.8272018432617188
0.6085035324096679,0.8272018432617188
0.6180233001708985,0.8285121917724609
0.6180233001708985,0.8285121917724609
0.6131595611572266,0.8343601226806641
0.6131595611572266,0.8343601226806641
0.6116632461547852,0.8253599166870117
0.6116632461547852,0.8253599166870117
0.6198434829711914,0.8349128723144531
0.6198434829711914,0.8349128723144531
0.6084280014038086,0.8278078079223633
0.6084280014038086,0.8278078079223633
0.6167558670043946,0.8289087295532226
0.6167558670043946,0.8289087295532226
0.6148200988769531,0.8350318908691406
0.6148200988769531,0.8350318908691406
0.6120603561401367,0.8258245468139648
0.6120603561401367,0.8258245468139648
0.6199813842773437,0.8354970932006835
0.6199813842773437,0.8354970932006835
0.6072315216064453,0.8280944824218750
0.6072315216064453,0.8280944824218750
0.6182647705078125,0.8293710708618164
0.6182647705078125,0.8293710708618164
0.6151405334472656,0.8355102539062500
0.6151405334472656,0.8355102539062500
0.6120815277099609,0.8263195037841796
0.6120815277099609,0.8263195037841796
0.6187717437744140,0.8358495712280273
0.6187717437744140,0.8358495712280273
0.6088525772094726,0.8285671234130859
0.6088525772094726,0.8285671234130859
0.6187677383422852,0.8298717498779297
0.6187677383422852,0.8298717498779297
0.6152292251586914,0.8360378265380859
0.6152292251586914,0.8360378265380859
0.6108695983886718,0.8267709732055664
0.6108695983886718,0.8267709732055664
0.6202772140502929,0.8362409591674804
0.6202772140502929,0.8362409591674804
0.6090002059936523,0.8289482116699218
0.6090002059936523,0.8289482116699218
0.6187019348144531,0.8302116394042969
0.6187019348144531,0.8302116394042969
0.6140052795410156,0.8363348007202148
0.6140052795410156,0.8363348007202148
0.6124111175537109,0.8272041320800781
0.6124111175537109,0.8272041320800781
0.6206920623779296,0.8367925643920898
0.6206920623779296,0.8367925643920898
0.6092256546020508,0.8297636032104492
0.6092256546020508,0.8297636032104492
0.6174076080322265,0.8307821273803710
0.6174076080322265,0.8307821273803710
0.6156303405761718,0.8368309020996093
0.6156303405761718,0.8368309020996093
0.6126119613647460,0.8274993896484375
0.6126119613647460,0.8274993896484375
0.6205123901367188,0.8370214462280273
0.6205123901367188,0.8370214462280273
0.6077018737792969,0.8293476104736328
0.6077018737792969,0.8293476104736328
0.6186338424682617,0.8302511215209961
0.6186338424682617,0.8302511215209961
0.6153007507324219,0.8357517242431640
0.6153007507324219,0.8357517242431640
0.6115602493286133,0.8255922317504882
0.6115602493286133,0.8255922317504882
0.6178333282470703,0.8339859008789062
0.6178333282470703,0.8339859008789062
0.6075336456298828,0.8258216857910156
0.6075336456298828,0.8258216857910156
0.6168285369873047,0.8259126663208007
0.6168285369873047,0.8259126663208007
0.6131206512451172,0.8311597824096679
0.6131206512451172,0.8311597824096679
0.6083187103271485,0.8209596633911133
0.6083187103271485,0.8209596633911133
0.6174962997436523,0.8299106597900391
0.6174962997436523,0.8299106597900391
0.6062124252319335,0.8220016479492187
0.6062124252319335,0.8220016479492187
0.6156143188476563,0.8228193283081054
0.6156143188476563,0.8228193283081054
0.6110012054443359,0.8287525177001953
0.6110012054443359,0.8287525177001953
0.6092622756958007,0.8195302963256835
0.6092622756958007,0.8195302963256835
0.6175472259521484,0.8293149948120117
0.6175472259521484,0.8293149948120117
0.6063022613525391,0.8221601486206055
0.6063022613525391,0.8221601486206055
0.6147222518920898,0.8235723495483398
0.6147222518920898,0.8235723495483398
0.6130828857421875,0.8300800323486328
0.6130828857421875,0.8300800323486328
0.6102842330932617,0.8212715148925781
0.6102842330932617,0.8212715148925781
0.6183248519897461,0.8311197280883789
0.6125764846801758,0.8311197280883789
0.6059183120727539,0.8240793228149413
0.6059183120727539,0.8240793228149413
0.6170379638671875,0.8254280090332031
0.6170379638671875,0.8254280090332031
0.6140859603881835,0.8318241119384765
0.6140859603881835,0.8318241119384765
0.6109188079833984,0.8229423522949219
0.6109188079833984,0.8229423522949219
0.6178424835205077,0.8325284957885742
0.6178424835205077,0.8325284957885742
0.6184278488159179,0.8330978393554688
0.6184278488159179,0.8330978393554688
0.6184278488159179,0.8334211349487305
0.6098642349243164,0.8243705749511718
0.6098642349243164,0.8243705749511718
0.6196111679077149,0.8308256149291992
0.6196111679077149,0.8308256149291992
0.6099792480468750,0.8304885864257813
0.6099792480468750,0.8304885864257813
0.6151720046997070,0.8248838424682617
0.6151720046997070,0.8248838424682617
0.6182516098022460,0.8359228134155273
0.6182516098022460,0.8359228134155273
0.6102756500244141,0.8233949661254882
0.6102756500244141,0.8233949661254882
0.6198560714721679,0.8314968109130859
0.6198560714721679,0.8314968109130859
0.6110795974731446,0.8311031341552734
0.6110795974731446,0.8311031341552734
0.6149351119995117,0.8270193099975586
0.6149351119995117,0.8270193099975586
0.6184844970703125,0.8347137451171874
0.6184844970703125,0.8347137451171874
0.6099987030029297,0.8237434387207031
0.6099987030029297,0.8237434387207031
0.6205919265747070,0.8318761825561524
0.6205919265747070,0.8318761825561524
0.6108409881591796,0.8332603454589843
0.6108409881591796,0.8332603454589843
0.6150970458984375,0.8258359909057617
0.6150970458984375,0.8258359909057617
0.6185708999633789,0.8353139877319335
0.6185708999633789,0.8353139877319335
0.6111848831176757,0.8243642807006836
0.6111848831176757,0.8243642807006836
0.6202371597290038,0.8342473983764648
0.6202371597290038,0.8342473983764648
0.6110750198364258,0.8322040557861328
0.6110750198364258,0.8322040557861328
0.6149065017700195,0.8263515472412110
0.6149065017700195,0.8263515472412110
0.6193313598632812,0.8358993530273438
0.6193313598632812,0.8358993530273438
0.6108489990234375,0.8264350891113281
0.6108489990234375,0.8264350891113281
0.6205221176147461,0.8330142974853515
0.6205221176147461,0.8330142974853515
0.6111574172973633,0.8326990127563476
0.6111574172973633,0.8326990127563476
0.6158672332763672,0.8269603729248046
0.6158672332763672,0.8269603729248046
0.6191150665283203,0.8380268096923827
0.6191150665283203,0.8380268096923827
0.6110744476318359,0.8253787994384766
0.6110744476318359,0.8253787994384766
0.6203979492187500,0.8335767745971679
0.6203979492187500,0.8335767745971679
0.6119750976562500,0.8333106994628906
0.6119750976562500,0.8333106994628906
0.6157453536987304,0.8292148590087890
0.6157453536987304,0.8292148590087890
0.6193920135498047,0.8368125915527344
0.6193920135498047,0.8368125915527344
0.6112586975097656,0.8259452819824219
0.6112586975097656,0.8259452819824219
0.6214616775512695,0.8339452743530273
0.6214616775512695,0.8339452743530273
0.6116191864013671,0.8354301452636719
0.6116191864013671,0.8354301452636719
0.6158151626586914,0.8279256820678711
0.6158151626586914,0.8279256820678711
0.6190006256103515,0.8371009826660156
0.6190006256103515,0.8371009826660156
0.6116735458374023,0.8260396957397461
0.6116735458374023,0.8260396957397461
0.6207744598388671,0.8355388641357422
0.6207744598388671,0.8355388641357422
0.6112306594848632,0.8331584930419922
0.6112306594848632,0.8331584930419922
0.6151027679443359,0.8268098831176758
0.6151027679443359,0.8268098831176758
0.6189136505126953,0.8352750778198242
0.6189136505126953,0.8352750778198242
0.6098716735839843,0.8249073028564453
0.6098716735839843,0.8249073028564453
0.6190750122070312,0.8303466796875000
0.6190750122070312,0.8303466796875000
0.6090282440185547,0.8290386199951172
0.6180650711059570,0.8290386199951172
0.6136791229248046,0.8222448348999023
0.6136791229248046,0.8222448348999023
0.6165035247802734,0.8324157714843750
0.6165035247802734,0.8324157714843750
0.6079662322998046,0.8190759658813477
0.6079662322998046,0.8190759658813477
0.6174064636230469,0.8266525268554688
0.6174064636230469,0.8266525268554688
0.6086002349853515,0.8259201049804688
0.6086002349853515,0.8259201049804688
0.6122589111328125,0.8217567443847656
0.6122589111328125,0.8217567443847656
0.6159936904907226,0.8294122695922851
0.6147405624389648,0.8294122695922851
0.6075296401977539,0.8186187744140625
0.6075296401977539,0.8186187744140625
0.6181903839111328,0.8269815444946289
0.6181903839111328,0.8269815444946289
0.6086242675781249,0.8285820007324218
0.6086242675781249,0.8285820007324218
0.6129507064819336,0.8214260101318359
0.6129507064819336,0.8214260101318359
0.6167455673217773,0.8311071395874023
0.6167455673217773,0.8311071395874023
0.6093835830688477,0.8204555511474609
0.6093835830688477,0.8204555511474609
0.6187213897705078,0.8306356430053711
0.6187213897705078,0.8306356430053711
0.6095901489257812,0.8287874221801758
0.6095901489257812,0.8287874221801758
0.6134576797485352,0.8231008529663085
0.6134576797485352,0.8231008529663085
0.6181085586547851,0.8329570770263671
0.6181085586547851,0.8329570770263671
0.6096279144287109,0.8237834930419922
0.6096279144287109,0.8237834930419922
0.6194646835327148,0.8301326751708984
0.6194646835327148,0.8301326751708984
0.6101709365844726,0.8300811767578125
0.6101709365844726,0.8300811767578125
0.6148996353149414,0.8243064880371094
0.6148996353149414,0.8243064880371094
0.6180919647216797,0.8354965209960937
0.6180919647216797,0.8354965209960937
0.6100170135498046,0.8228965759277344
0.6100170135498046,0.8228965759277344
0.6193044662475585,0.8310905456542969
0.6193044662475585,0.8310905456542969
0.6110515594482422,0.8307415008544922
0.6110515594482422,0.8307415008544922
0.6146083831787109,0.8267400741577148
0.6146083831787109,0.8267400741577148
0.6183076858520508,0.8343732833862304
0.6183076858520508,0.8343732833862304
0.6101068496704102,0.8233428955078125
0.6101068496704102,0.8233428955078125
0.6203458786010742,0.8315242767333985
0.6203458786010742,0.8315242767333985
0.6107151031494140,0.8329759597778320
0.6107151031494140,0.8329759597778320
0.6147405624389648,0.8253599166870117
0.6147405624389648,0.8253599166870117
0.6180318832397461,0.8348184585571289
0.6180318832397461,0.8348184585571289
0.6107688903808594,0.8238470077514648
0.6107688903808594,0.8238470077514648
0.6200345993041992,0.8337192535400391
0.6200345993041992,0.8337192535400391
0.6108478546142578,0.8316513061523437
0.6108478546142578,0.8316513061523437
0.6146890640258789,0.8258125305175781
0.6146890640258789,0.8258125305175781
0.6190898895263671,0.8353837966918946
0.6190898895263671,0.8353837966918946
0.6104764938354492,0.8260311126708985
0.6104764938354492,0.8260311126708985
0.6201496124267578,0.8324993133544921
0.6201496124267578,0.8324993133544921
0.6105623245239258,0.8321559906005859
0.6105623245239258,0.8321559906005859
0.6154747009277344,0.8263223648071288
0.6154747009277344,0.8263223648071288
0.6188117980957031,0.8376262664794921
0.6188117980957031,0.8376262664794921
0.6106298446655273,0.8248174667358398
0.6106298446655273,0.8248174667358398
0.6202056884765624,0.8329278945922851
0.6202056884765624,0.8329278945922851
0.6116277694702148,0.8326704025268554
0.6116277694702148,0.8326704025268554
0.6152589797973632,0.8285900115966797
0.6152589797973632,0.8285900115966797
0.6190172195434570,0.8362129211425781
0.6190172195434570,0.8362129211425781
0.6103649139404297,0.8253170013427734
0.6103649139404297,0.8253170013427734
0.6209243774414063,0.8334022521972656
0.6209243774414063,0.8334022521972656
0.6113748550415039,0.8349809646606445
0.6113748550415039,0.8349809646606445
0.6152486801147461,0.8273117065429687
0.6152486801147461,0.8273117065429687
0.6190355300903320,0.8367284774780274
0.6190355300903320,0.8367284774780274
0.6113748550415039,0.8257736206054688
0.6170991897583008,0.8257736206054688
0.6205478668212890,0.8355331420898438
0.6205478668212890,0.8355331420898438
0.6113153457641601,0.8334857940673828
0.6113153457641601,0.8334857940673828
0.6148155212402343,0.8274553298950195
0.6148155212402343,0.8274553298950195
0.6194234848022461,0.8366403579711914
0.6194234848022461,0.8366403579711914
0.6106000900268554,0.8270147323608398
0.6106000900268554,0.8270147323608398
0.6199939727783202,0.8328357696533203
0.6199939727783202,0.8328357696533203
0.6103523254394531,0.8317817687988281
0.6103523254394531,0.8317817687988281
0.6145082473754883,0.8251407623291015
0.6145082473754883,0.8251407623291015
0.6173480987548828,0.8352167129516601
0.6173480987548828,0.8352167129516601
0.6088376998901367,0.8216320037841797
0.6088376998901367,0.8216320037841797
0.6177612304687500,0.8289585113525391
0.6177612304687500,0.8289585113525391
0.6091787338256835,0.8281402587890625
0.6091787338256835,0.8281402587890625
0.6124860763549804,0.8234413146972656
0.6124860763549804,0.8234413146972656
0.6160955429077148,0.8308067321777344
0.6160955429077148,0.8308067321777344
0.6078741073608398,0.8196979522705078
0.6078741073608398,0.8196979522705078
0.6180118560791016,0.8276350021362304
0.6180118560791016,0.8276350021362304
0.6085578918457031,0.8291742324829101
0.6085578918457031,0.8291742324829101
0.6124849319458008,0.8217384338378906
0.6124849319458008,0.8217384338378906
0.6160429000854492,0.8314041137695313
0.6160429000854492,0.8314041137695313
0.6088914871215820,0.8206546783447265
0.6088914871215820,0.8206546783447265
0.6182207107543946,0.8305944442749024
0.6182207107543946,0.8305944442749024
0.6092885971069336,0.8289052963256835
0.6092885971069336,0.8289052963256835
0.6132837295532226,0.8232009887695312
0.6132837295532226,0.8232009887695312
0.6177434921264648,0.8330337524414062
0.6177434921264648,0.8330337524414062
0.6092634201049805,0.8238916397094727
0.6092634201049805,0.8238916397094727
0.6190452575683594,0.8304468154907226
0.6190452575683594,0.8304468154907226
0.6095804214477539,0.8303884506225586
0.6095804214477539,0.8303884506225586
0.6144321441650390,0.8246177673339844
0.6144321441650390,0.8246177673339844
0.6179672241210937,0.8359090805053710
0.6179672241210937,0.8359090805053710
0.6097772598266601,0.8231695175170898
0.6097772598266601,0.8231695175170898
0.6192884445190430,0.8312707901000976
0.6192884445190430,0.8312707901000976
0.6108564376831055,0.8311300277709961
0.6108564376831055,0.8311300277709961
0.6142129898071289,0.8270158767700195
0.6142129898071289,0.8270158767700195
0.6180604934692383,0.8346759796142578
0.6180604934692383,0.8346759796142578
0.6095037460327148,0.8237085342407227
0.6095037460327148,0.8237085342407227
0.6200380325317383,0.8317285537719726
0.6200380325317383,0.8317285537719726
0.6104948043823242,0.8332712173461914
0.6104948043823242,0.8332712173461914
0.6142684936523437,0.8257072448730468
0.6142684936523437,0.8257072448730468
0.6182355880737305,0.8351091384887696
0.6182355880737305,0.8351091384887696
0.6106801986694336,0.8240901947021484
0.6106801986694336,0.8240901947021484
0.6197570800781250,0.8340213775634765
0.6197570800781250,0.8340213775634765
0.6107540130615234,0.8320924758911132
0.6107540130615234,0.8320924758911132
0.6141906738281250,0.8261295318603515
0.6141906738281250,0.8261295318603515
0.6189651489257812,0.8356853485107422
0.6189651489257812,0.8356853485107422
0.6102979660034179,0.8263641357421875
0.6102979660034179,0.8263641357421875
0.6199316024780274,0.8326795578002929
0.6199316024780274,0.8326795578002929
0.6108364105224610,0.8324872970581054
0.6108364105224610,0.8324872970581054
0.6153030395507812,0.8266227722167968
0.6153030395507812,0.8266227722167968
0.6186492919921874,0.8377429962158203
0.6186492919921874,0.8377429962158203
0.6104009628295898,0.8249496459960938
0.6104009628295898,0.8249496459960938
0.6196231842041016,0.8330652236938476
0.6196231842041016,0.8330652236938476
0.6115179061889648,0.8329519271850586
0.6115179061889648,0.8329519271850586
0.6088932037353515,0.8288022994995117
0.6088932037353515,0.8288022994995117
0.6091821670532226,0.8295787811279297
0.6105978012084960,0.8295787811279297
0.6156000137329102,0.8358341217041015
0.6156000137329102,0.8358341217041015
0.6122268676757813,0.8266038894653320
0.6122268676757813,0.8266038894653320
0.6203487396240234,0.8363937377929688
0.6203487396240234,0.8363937377929688
0.6075862884521485,0.8291307449340820
0.6075862884521485,0.8291307449340820
0.6185909271240234,0.8299821853637696
0.6185909271240234,0.8299821853637696
0.6157522201538086,0.8363571166992188
0.6157522201538086,0.8363571166992188
0.6121307373046875,0.8271348953247070
0.6121307373046875,0.8271348953247070
0.6191436767578125,0.8367027282714844
0.6191436767578125,0.8367027282714844
0.6091489791870117,0.8295324325561523
0.6091489791870117,0.8295324325561523
0.6188003540039062,0.8302934646606445
0.6188003540039062,0.8302934646606445
0.6157470703125000,0.8365482330322266
0.6157470703125000,0.8365482330322266
0.6106086730957031,0.8267526626586914
0.6106086730957031,0.8267526626586914
0.6200780868530273,0.8360338211059570
0.6200780868530273,0.8360338211059570
0.6084434509277343,0.8283010482788086
0.6084434509277343,0.8283010482788086
0.6175432205200195,0.8282249450683593
0.6175432205200195,0.8282249450683593
0.6128986358642577,0.8333702087402344
0.6128986358642577,0.8333702087402344
0.6101886749267578,0.8229852676391601
0.6101886749267578,0.8229852676391601
0.6183254241943359,0.8315677642822266
0.6183254241943359,0.8315677642822266
0.6064447402954102,0.8236639022827148
0.6064447402954102,0.8236639022827148
0.6141860961914062,0.8235013961791992
0.6141860961914062,0.8235013961791992
0.6125049591064453,0.8291748046874999
0.6125049591064453,0.8291748046874999
0.6086803436279297,0.8193511962890625
0.6086803436279297,0.8193511962890625
0.6169012069702148,0.8287342071533202
0.6169012069702148,0.8287342071533202
0.6041976928710937,0.8214752197265625
0.6041976928710937,0.8214752197265625
0.6149986267089843,0.8222900390625000
0.6149986267089843,0.8222900390625000
0.6126502990722656,0.8287919998168946
0.6126502990722656,0.8287919998168946
0.6089532852172851,0.8197929382324218
0.6089532852172851,0.8197929382324218
0.6160566329956054,0.8296297073364257
0.6160566329956054,0.8296297073364257
0.6062313079833984,0.8228645324707031
0.6062313079833984,0.8228645324707031
0.6159193038940429,0.8239734649658202
0.6159193038940429,0.8239734649658202
0.6133867263793945,0.8307123184204102
0.6133867263793945,0.8307123184204102
0.6084955215454101,0.8215742111206055
0.6084955215454101,0.8215742111206055
0.6184101104736328,0.8315608978271484
0.6184101104736328,0.8315608978271484
0.6073488235473633,0.8246000289916992
0.6073488235473633,0.8246000289916992
0.6167753219604492,0.8258714675903320
0.6167753219604492,0.8258714675903320
0.6128551483154296,0.8322973251342773
0.6128551483154296,0.8322973251342773
0.6106733322143555,0.8230808258056640
0.6106733322143555,0.8230808258056640
0.6190675735473633,0.8328311920166015
0.6190675735473633,0.8328311920166015
0.6079072952270508,0.8259681701660156
0.6079072952270508,0.8259681701660156
0.6158746719360352,0.8267349243164063
0.6158746719360352,0.8267349243164063
0.6146106719970703,0.8331150054931641
0.6146106719970703,0.8331150054931641
0.6111671447753906,0.8238412857055664
0.6111671447753906,0.8238412857055664
0.6193353652954101,0.8336185455322266
0.6193353652954101,0.8336185455322266
0.6067176818847656,0.8264511108398437
0.6067176818847656,0.8264511108398437
0.6175277709960937,0.8273277282714844
0.6175277709960937,0.8273277282714844
0.6149093627929687,0.8337633132934570
0.6149093627929687,0.8337633132934570
0.6112586975097656,0.8244924545288086
0.6112586975097656,0.8244924545288086
0.6182538986206054,0.8341020584106446
0.6120145797729492,0.8341020584106446
0.6082260131835937,0.8269746780395507
0.6082260131835937,0.8269746780395507
0.6179500579833984,0.8278999328613281
0.6179500579833984,0.8278999328613281
0.6151502609252929,0.8344499588012695
0.6151502609252929,0.8344499588012695
0.6101566314697265,0.8249330520629883
0.6101566314697265,0.8249330520629883
0.6198251724243163,0.8347206115722656
0.6198251724243163,0.8347206115722656
0.6086729049682617,0.8275978088378906
0.6086729049682617,0.8275978088378906
0.6181165695190429,0.8285842895507812
0.6181165695190429,0.8285842895507812
0.6141054153442382,0.8349191665649414
0.6141054153442382,0.8349191665649414
0.6118051528930664,0.8254932403564453
0.6118051528930664,0.8254932403564453
0.6203229904174804,0.8353185653686523
0.6203229904174804,0.8353185653686523
0.6089349746704101,0.8283462524414062
0.6089349746704101,0.8283462524414062
0.6170213699340820,0.8290237426757813
0.6170213699340820,0.8290237426757813
0.6156818389892578,0.8355651855468750
0.6156818389892578,0.8355651855468750
0.6121730804443359,0.8261518478393555
0.6121730804443359,0.8261518478393555
0.6203773498535156,0.8359067916870117
0.6203773498535156,0.8359067916870117
0.6077865600585938,0.8287387847900390
0.6077865600585938,0.8287387847900390
0.6186178207397460,0.8295495986938476
0.6186178207397460,0.8295495986938476
0.6162260055541992,0.8360040664672851
0.6162260055541992,0.8360040664672851
0.6122623443603515,0.8266176223754883
0.6122623443603515,0.8266176223754883
0.6192289352416992,0.8362592697143555
0.6192289352416992,0.8362592697143555
0.6092983245849609,0.8293167114257812
0.6092983245849609,0.8293167114257812
0.6187156677246094,0.8300279617309571
0.6187156677246094,0.8300279617309571
0.6161951065063477,0.8363891601562500
0.6161951065063477,0.8363891601562500
0.6110132217407226,0.8267841339111328
0.6110132217407226,0.8267841339111328
0.6206068038940430,0.8365173339843750
0.6206068038940430,0.8365173339843750
0.6093893051147461,0.8290071487426758
0.6093893051147461,0.8290071487426758
0.6183958053588867,0.8295581817626952
0.6183958053588867,0.8295581817626952
0.6140905380249023,0.8352367401123046
0.6140905380249023,0.8352367401123046
0.6112358093261718,0.8247156143188477
0.6112358093261718,0.8247156143188477
0.6190338134765625,0.8334016799926758
0.6190338134765625,0.8334016799926758
0.6073974609375000,0.8251310348510742
0.6073974609375000,0.8251310348510742
0.6149230957031250,0.8245307922363281
0.6149230957031250,0.8245307922363281
0.6131292343139648,0.8297498703002929
0.6131292343139648,0.8297498703002929
0.6090230941772461,0.8191743850708008
0.6090230941772461,0.8191743850708008
0.6167335510253906,0.8279411315917968
0.6167335510253906,0.8279411315917968
0.6037714004516601,0.8199731826782226
0.6037714004516601,0.8199731826782226
0.6143108367919922,0.8201768875122070
0.6143108367919922,0.8201768875122070
0.6117862701416016,0.8262245178222656
0.6117862701416016,0.8262245178222656
0.6078374862670898,0.8167888641357421
0.6078374862670898,0.8167888641357421
0.6149854660034180,0.8265048980712890
0.6149854660034180,0.8265048980712890
0.6051326751708984,0.8197700500488281
0.6051326751708984,0.8197700500488281
0.6149208068847656,0.8208526611328125
0.6149208068847656,0.8208526611328125
0.6124082565307617,0.8277374267578125
0.6124082565307617,0.8277374267578125
0.6074718475341797,0.8185678482055664
0.6074718475341797,0.8185678482055664
0.6173566818237305,0.8288314819335937
0.6173566818237305,0.8288314819335937
0.6064985275268554,0.8220760345458984
0.6064985275268554,0.8220760345458984
0.6158912658691406,0.8232032775878906
0.6158912658691406,0.8232032775878906
0.6121335983276367,0.8299266815185546
0.6121335983276367,0.8299266815185546
0.6099409103393555,0.8207788467407227
0.6099409103393555,0.8207788467407227
0.6186161041259766,0.8307987213134765
0.6120832443237304,0.8307987213134765
0.6072790145874023,0.8240541458129883
0.6072790145874023,0.8240541458129883
0.6153419494628906,0.8246709823608398
0.6153419494628906,0.8246709823608398
0.6142902374267578,0.8312976837158202
0.6142902374267578,0.8312976837158202
0.6106332778930664,0.8221321105957031
0.6106332778930664,0.8221321105957031
0.6190200805664062,0.8319837570190429
0.6190200805664062,0.8319837570190429
0.6064544677734375,0.8249742507934570
0.6064544677734375,0.8249742507934570
0.6171461105346679,0.8257690429687500
0.6171461105346679,0.8257690429687500
0.6148979187011718,0.8324769973754883
0.6148979187011718,0.8324769973754883
0.6108747482299804,0.8229446411132812
0.6108747482299804,0.8229446411132812
0.6180158615112304,0.8326257705688477
0.6180158615112304,0.8326257705688477
0.6081212997436524,0.8258033752441406
0.6081212997436524,0.8258033752441406
0.6175580978393554,0.8265460968017578
0.6175580978393554,0.8265460968017578
0.6151273727416992,0.8332220077514648
0.6151273727416992,0.8332220077514648
0.6099740982055664,0.8235683441162109
0.6099740982055664,0.8235683441162109
0.6196174621582031,0.8334989547729492
0.6196174621582031,0.8334989547729492
0.6086711883544922,0.8264116287231446
0.6086711883544922,0.8264116287231446
0.6178853988647460,0.8272315979003906
0.6178853988647460,0.8272315979003906
0.6141042709350586,0.8336545944213867
0.6141042709350586,0.8336545944213867
0.6115207672119141,0.8242652893066406
0.6115207672119141,0.8242652893066406
0.6200294494628906,0.8340196609497070
0.6200294494628906,0.8340196609497070
0.6087942123413086,0.8271062850952148
0.6087942123413086,0.8271062850952148
0.6166872024536133,0.8277740478515625
0.6166872024536133,0.8277740478515625
0.6157241821289062,0.8344459533691406
0.6157241821289062,0.8344459533691406
0.6119928359985352,0.8248821258544922
0.6119928359985352,0.8248821258544922
0.6202995300292968,0.8348716735839844
0.6202995300292968,0.8348716735839844
0.6076560974121094,0.8276939392089844
0.6076560974121094,0.8276939392089844
0.6183391571044922,0.8284166336059570
0.6183391571044922,0.8284166336059570
0.6159971237182617,0.8351194381713867
0.6159971237182617,0.8351194381713867
0.6121702194213867,0.8254165649414062
0.6121702194213867,0.8254165649414062
0.6191728591918945,0.8352819442749023
0.6191728591918945,0.8352819442749023
0.6093383789062500,0.8282009124755859
0.6093383789062500,0.8282009124755859
0.6186904907226562,0.8289739608764648
0.6186904907226562,0.8289739608764648
0.6161836624145508,0.8356630325317382
0.6161836624145508,0.8356630325317382
0.6108289718627929,0.8259063720703125
0.6108289718627929,0.8259063720703125
0.6206491470336913,0.8356842041015625
0.6206491470336913,0.8356842041015625
0.6094327926635742,0.8286581039428711
0.6094327926635742,0.8286581039428711
0.6185703277587891,0.8292846679687500
0.6185703277587891,0.8292846679687500
0.6147811889648437,0.8356372833251953
0.6147811889648437,0.8356372833251953
0.6119710922241210,0.8258234024047851
0.6119710922241210,0.8258234024047851
0.6203893661499024,0.8352333068847656
0.6203893661499024,0.8352333068847656
0.6087587356567382,0.8275182723999023
0.6087587356567382,0.8275182723999023
0.6159919738769531,0.8269660949707031
0.6159919738769531,0.8269660949707031
0.6146369934082031,0.8325719833374023
0.6146369934082031,0.8325719833374023
0.6101760864257812,0.8217996597290039
0.6101760864257812,0.8217996597290039
0.6181749343872071,0.8305154800415039
0.6181749343872071,0.8305154800415039
0.6051486968994141,0.8222831726074219
0.6051486968994141,0.8222831726074219
0.6152160644531249,0.8219684600830078
0.6152160644531249,0.8219684600830078
0.6127252578735352,0.8278409957885742
0.6127252578735352,0.8278409957885742
0.6083959579467774,0.8175161361694335
0.6083959579467774,0.8175161361694335
0.6152973175048828,0.8269248962402344
0.6152973175048828,0.8269248962402344
0.6053472518920898,0.8198896408081054
0.6167518615722656,0.8269483566284179
0.6146661758422851,0.8203313827514648
0.6069351196289062,0.8203313827514648
0.6124626159667969,0.8272562026977539
0.6158082962036132,0.8272562026977539
0.6072544097900391,0.8178926467895508
0.6072544097900391,0.8178926467895508
0.6171392440795899,0.8280406951904297
0.6171392440795899,0.8280406951904297
0.6064092636108398,0.8215822219848633
0.6064092636108398,0.8215822219848633
0.6155805587768555,0.8224290847778321
0.6155805587768555,0.8224290847778321
0.6122257232666015,0.8293699264526367
0.6122257232666015,0.8293699264526367
0.6096851348876953,0.8200698852539062
0.6096851348876953,0.8200698852539062
0.6183059692382812,0.8300846099853515
0.6183059692382812,0.8300846099853515
0.6071674346923828,0.8234968185424805
0.6071674346923828,0.8234968185424805
0.6152017593383788,0.8242309570312499
0.6152017593383788,0.8242309570312499
0.6143274307250977,0.8311048507690429
0.6143274307250977,0.8311048507690429
0.6104719161987304,0.8216068267822265
0.6104719161987304,0.8216068267822265
0.6188798904418945,0.8317005157470703
0.6188798904418945,0.8317005157470703
0.6064470291137695,0.8246789932250976
0.6064470291137695,0.8246789932250976
0.6169893264770507,0.8253215789794922
0.6169893264770507,0.8253215789794922
0.6147216796875000,0.8320232391357422
0.6147216796875000,0.8320232391357422
0.6107082366943359,0.8224262237548828
0.6107082366943359,0.8224262237548828
0.6178567886352538,0.8322910308837891
0.6178567886352538,0.8322910308837891
0.6081069946289063,0.8253959655761719
0.6081069946289063,0.8253959655761719
0.6174259185791016,0.8260534286499023
0.6174259185791016,0.8260534286499023
0.6150306701660156,0.8328655242919921
0.6150306701660156,0.8328655242919921
0.6095375061035156,0.8230648040771484
0.6095375061035156,0.8230648040771484
0.6194034576416015,0.8329204559326172
0.6194034576416015,0.8329204559326172
0.6083055496215820,0.8259979248046875
0.6083055496215820,0.8259979248046875
0.6174854278564453,0.8265735626220703
0.6174854278564453,0.8265735626220703
0.6138771057128906,0.8332117080688476
0.6138771057128906,0.8332117080688476
0.6111087799072266,0.8236072540283202
0.6111087799072266,0.8236072540283202
0.6198440551757812,0.8333942413330078
0.6198440551757812,0.8333942413330078
0.6084062576293945,0.8267017364501953
0.6084062576293945,0.8267017364501953
0.6162860870361327,0.8271600723266601
0.6162860870361327,0.8271600723266601
0.6152355194091796,0.8338336944580078
0.6152355194091796,0.8338336944580078
0.6112844467163085,0.8240558624267578
0.6112844467163085,0.8240558624267578
0.6198778152465820,0.8340528488159179
0.6198778152465820,0.8340528488159179
0.6074449539184570,0.8271675109863281
0.6074449539184570,0.8271675109863281
0.6177801132202149,0.8277093887329101
0.6177801132202149,0.8277093887329101
0.6158260345458985,0.8343652725219727
0.6158260345458985,0.8343652725219727
0.6114984512329101,0.8247350692749024
0.6114984512329101,0.8247350692749024
0.6186178207397460,0.8344522476196289
0.6186178207397460,0.8344522476196289
0.6087907791137696,0.8276870727539062
0.6087907791137696,0.8276870727539062
0.6180725097656250,0.8281740188598633
0.6180725097656250,0.8281740188598633
0.6157052993774413,0.8349586486816406
0.6157052993774413,0.8349586486816406
0.6103683471679687,0.8251899719238281
0.6103683471679687,0.8251899719238281
0.6201433181762696,0.8350049972534179
0.6201433181762696,0.8350049972534179
0.6091272354125976,0.8281694412231445
0.6091272354125976,0.8281694412231445
0.6181337356567382,0.8287759780883789
0.6181337356567382,0.8287759780883789
0.6145294189453124,0.8353185653686523
0.6145294189453124,0.8353185653686523
0.6116678237915039,0.8255475997924805
0.6116678237915039,0.8255475997924805
0.6203132629394531,0.8354541778564453
0.6203132629394531,0.8354541778564453
0.6090717315673828,0.8284172058105469
0.6090717315673828,0.8284172058105469
0.6166791915893555,0.8285356521606445
0.6166791915893555,0.8285356521606445
0.6156343460083008,0.8349700927734375
0.6156343460083008,0.8349700927734375
0.6113725662231445,0.8245616912841797
0.6113725662231445,0.8245616912841797
0.6192346572875976,0.8336225509643554
0.6192346572875976,0.8336225509643554
0.6063045501708985,0.8254011154174804
0.6063045501708985,0.8254011154174804
0.6161762237548828,0.8248420715332031
0.6161762237548828,0.8248420715332031
0.6136636734008789,0.8306453704833984
0.6136636734008789,0.8306453704833984
0.6090156555175781,0.8199972152709961
0.6090156555175781,0.8199972152709961
0.6159599304199218,0.8289390563964844
0.6159599304199218,0.8289390563964844
0.6058862686157226,0.8216566085815430
0.6058862686157226,0.8216566085815430
0.6149488449096679,0.8215850830078125
0.6149488449096679,0.8215850830078125
0.6126056671142578,0.8283262252807617
0.6157522201538086,0.8283262252807617
0.6071313858032227,0.8183824539184570
0.6071313858032227,0.8183824539184570
0.6169115066528320,0.8283914566040039
0.6169115066528320,0.8283914566040039
0.6059474945068359,0.8218225479125977
0.6059474945068359,0.8218225479125977
0.6151771545410156,0.8225160598754883
0.6151771545410156,0.8225160598754883
0.6118824005126953,0.8295581817626952
0.6118824005126953,0.8295581817626952
0.6091712951660156,0.8200384140014648
0.6091712951660156,0.8200384140014648
0.6181365966796875,0.8303449630737304
0.6181365966796875,0.8303449630737304
0.6069396972656250,0.8238676071166992
0.6069396972656250,0.8238676071166992
0.6148721694946289,0.8243831634521485
0.6148721694946289,0.8243831634521485
0.6141477584838867,0.8313560485839844
0.6141477584838867,0.8313560485839844
0.6101320266723632,0.8216955184936523
0.6107500076293945,0.8216955184936523
0.6187236785888671,0.8319025039672852
0.6187236785888671,0.8319025039672852
0.6062873840332031,0.8251441955566406
0.6062873840332031,0.8251441955566406
0.6167879104614258,0.8256397247314453
0.6167879104614258,0.8256397247314453
0.6149208068847656,0.8324975967407227
0.6149208068847656,0.8324975967407227
0.6104375839233398,0.8227838516235352
0.6104375839233398,0.8227838516235352
0.6177864074707031,0.8326086044311524
0.6177864074707031,0.8326086044311524
0.6080160140991211,0.8259286880493164
0.6080160140991211,0.8259286880493164
0.6170763015747071,0.8261707305908202
0.6170763015747071,0.8261707305908202
0.6149150848388671,0.8332031249999999
0.6149150848388671,0.8332031249999999
0.6093864440917969,0.8232427597045898
0.6093864440917969,0.8232427597045898
0.6192346572875976,0.8332237243652344
0.6192346572875976,0.8332237243652344
0.6082574844360351,0.8262714385986328
0.6082574844360351,0.8262714385986328
0.6171752929687500,0.8267583847045898
0.6171752929687500,0.8267583847045898
0.6138422012329101,0.8335161209106445
0.6138422012329101,0.8335161209106445
0.6107929229736327,0.8237005233764648
0.6107929229736327,0.8237005233764648
0.6194252014160156,0.8337003707885742
0.6194252014160156,0.8337003707885742
0.6082901000976563,0.8269306182861328
0.6082901000976563,0.8269306182861328
0.6160898208618164,0.8270776748657226
0.6160898208618164,0.8270776748657226
0.6152933120727538,0.8340242385864257
0.6152933120727538,0.8340242385864257
0.6112392425537109,0.8243551254272461
0.6112392425537109,0.8243551254272461
0.6196689605712891,0.8343526840209960
0.6196689605712891,0.8343526840209960
0.6073436737060547,0.8274765014648438
0.6073436737060547,0.8274765014648438
0.6176359176635742,0.8277528762817382
0.6176359176635742,0.8277528762817382
0.6156286239624024,0.8346382141113281
0.6156286239624024,0.8346382141113281
0.6112335205078124,0.8248071670532227
0.6112335205078124,0.8248071670532227
0.6186401367187500,0.8346902847290039
0.6186401367187500,0.8346902847290039
0.6088005065917969,0.8279926300048828
0.6088005065917969,0.8279926300048828
0.6180284500122070,0.8283519744873047
0.6180284500122070,0.8283519744873047
0.6158260345458985,0.8352396011352539
0.6158260345458985,0.8352396011352539
0.6101926803588867,0.8252552032470702
0.6101926803588867,0.8252552032470702
0.6200002670288086,0.8352138519287109
0.6090957641601562,0.8283514022827149
0.6180416107177734,0.8288166046142578
0.6180416107177734,0.8288166046142578
0.6145935058593750,0.8357093811035156
0.6145935058593750,0.8357093811035156
0.6116992950439453,0.8257724761962890
0.6116992950439453,0.8257724761962890
0.6205198287963867,0.8355880737304687
0.6205198287963867,0.8355880737304687
0.6092136383056640,0.8289979934692383
0.6092136383056640,0.8289979934692383
0.6167409896850585,0.8290529251098633
0.6167409896850585,0.8290529251098633
0.6159788131713867,0.8357700347900391
0.6159788131713867,0.8357700347900391
0.6114446640014648,0.8255184173583984
0.6114446640014648,0.8255184173583984
0.6199172973632813,0.8352401733398437
0.6199172973632813,0.8352401733398437
0.6071903228759765,0.8277196884155273
0.6071903228759765,0.8277196884155273
0.6169738769531250,0.8268613815307617
0.6169738769531250,0.8268613815307617
0.6146593093872070,0.8327264785766602
0.6146593093872070,0.8327264785766602
0.6095323562622070,0.8216051101684571
0.6095323562622070,0.8216051101684571
0.6164394378662109,0.8301755905151367
0.6164394378662109,0.8301755905151367
0.6060642242431641,0.8222774505615235
0.6060642242431641,0.8222774505615235
0.6145345687866210,0.8213235855102539
0.6145345687866210,0.8213235855102539
0.6121925354003906,0.8272550582885742
0.6121925354003906,0.8272550582885742
0.6061752319335937,0.8162944793701171
0.6061752319335937,0.8162944793701171
0.6159324645996094,0.8258806228637695
0.6159324645996094,0.8258806228637695
0.6049896240234375,0.8189414978027344
0.6049896240234375,0.8189414978027344
0.6137449264526367,0.8191886901855469
0.6137449264526367,0.8191886901855469
0.6105485916137695,0.8262599945068360
0.6105485916137695,0.8262599945068360
0.6075428009033202,0.8165285110473632
0.6075428009033202,0.8165285110473632
0.6164915084838867,0.8269054412841796
0.6164915084838867,0.8269054412841796
0.6056842803955078,0.8207216262817383
0.6056842803955078,0.8207216262817383
0.6133563995361327,0.8212274551391602
0.6133563995361327,0.8212274551391602
0.6129924774169921,0.8285030364990235
0.6129924774169921,0.8285030364990235
0.6089921951293945,0.8187463760375976
0.6089921951293945,0.8187463760375976
0.6177028656005860,0.8292766571044922
0.6177028656005860,0.8292766571044922
0.6053970336914062,0.8227420806884765
0.6053970336914062,0.8227420806884765
0.6157630920410156,0.8231374740600585
0.6157630920410156,0.8231374740600585
0.6138650894165039,0.8303483963012696
0.6138650894165039,0.8303483963012696
0.6096628189086913,0.8204698562622070
0.6096628189086913,0.8204698562622070
0.6171089172363281,0.8306837081909180
0.6171089172363281,0.8306837081909180
0.6073070526123047,0.8241416931152343
0.6073070526123047,0.8241416931152343
0.6164817810058594,0.8243333816528320
0.6164817810058594,0.8243333816528320
0.6143497467041016,0.8316141128540039
0.6143497467041016,0.8316141128540039
0.6086076736450196,0.8213447570800781
0.6086076736450196,0.8213447570800781
0.6186727523803711,0.8314367294311523
0.6186727523803711,0.8314367294311523
0.6076189041137695,0.8248735427856445
0.6076189041137695,0.8248735427856445
0.6165636062622070,0.8250566482543945
0.6165636062622070,0.8250566482543945
0.6132883071899414,0.8320255279541016
0.6132883071899414,0.8320255279541016
0.6101818084716797,0.8219066619873047
0.6101818084716797,0.8219066619873047
0.6190069198608398,0.8320873260498046
0.6190069198608398,0.8320873260498046
0.6079238891601563,0.8256637573242187
0.6179288864135742,0.8323814392089843
0.6154266357421875,0.8256706237792969
0.6078861236572265,0.8256706237792969
0.6148361206054688,0.8326274871826171
0.6148361206054688,0.8326274871826171
0.6103837966918945,0.8226848602294922
0.6103837966918945,0.8226848602294922
0.6191499710083007,0.8326789855957031
0.6191499710083007,0.8326789855957031
0.6069843292236328,0.8260402679443359
0.6177268981933594,0.8260402679443359
0.6170122146606445,0.8262708663940429
0.6170122146606445,0.8262708663940429
0.6153705596923827,0.8333324432373047
0.6153705596923827,0.8333324432373047
0.6107620239257813,0.8233932495117188
0.6107620239257813,0.8233932495117188
0.6181818008422851,0.8332826614379882
0.6181818008422851,0.8332826614379882
0.6085195541381836,0.8268774032592773
0.6085195541381836,0.8268774032592773
0.6173744201660156,0.8268138885498046
0.6173744201660156,0.8268138885498046
0.6153539657592774,0.8340711593627930
0.6153539657592774,0.8340711593627930
0.6095701217651367,0.8237937927246094
0.6095701217651367,0.8237937927246094
0.6197359085083007,0.8338857650756836
0.6197359085083007,0.8338857650756836
0.6088972091674805,0.8274667739868163
0.6088972091674805,0.8274667739868163
0.6175821304321288,0.8276407241821289
0.6175821304321288,0.8276407241821289
0.6144075393676758,0.8345541000366211
0.6144075393676758,0.8345541000366211
0.6111316680908203,0.8245016098022461
0.6111316680908203,0.8245016098022461
0.6199567794799804,0.8345872879028320
0.6199567794799804,0.8345872879028320
0.6091014862060546,0.8282180786132812
0.6091014862060546,0.8282180786132812
0.6165029525756835,0.8279514312744141
0.6165029525756835,0.8279514312744141
0.6158638000488281,0.8351652145385742
0.6158638000488281,0.8351652145385742
0.6114692687988281,0.8248832702636718
0.6114692687988281,0.8248832702636718
0.6199613571166992,0.8348304748535156
0.6199613571166992,0.8348304748535156
0.6076320648193360,0.8279005050659179
0.6076320648193360,0.8279005050659179
0.6174442291259765,0.8275285720825195
0.6174442291259765,0.8275285720825195
0.6153144836425781,0.8340093612670898
0.6153144836425781,0.8340093612670898
0.6102722167968749,0.8226505279541015
0.6102722167968749,0.8226505279541015
0.6170751571655273,0.8314058303833007
0.6170751571655273,0.8314058303833007
0.6069105148315429,0.8236553192138671
0.6069105148315429,0.8236553192138671
0.6152309417724610,0.8221733093261718
0.6152309417724610,0.8221733093261718
0.6126153945922851,0.8279216766357421
0.6126153945922851,0.8279216766357421
0.6062747955322265,0.8159889221191406
0.6062747955322265,0.8159889221191406
0.6156423568725585,0.8247682571411132
0.6156423568725585,0.8247682571411132
0.6042577743530273,0.8172449111938477
0.6042577743530273,0.8172449111938477
0.6127172470092773,0.8163002014160156
0.6127172470092773,0.8163002014160156
0.6094814300537109,0.8229080200195312
0.6094814300537109,0.8229080200195312
0.6061408996582031,0.8125534057617188
0.6061408996582031,0.8125534057617188
0.6150529861450195,0.8228050231933594
0.6150529861450195,0.8228050231933594
0.6041358947753906,0.8167339324951172
0.6041358947753906,0.8167339324951172
0.6116781234741211,0.8169118881225585
0.6116781234741211,0.8169118881225585
0.6115488052368164,0.8247522354125977
0.6115488052368164,0.8247522354125977
0.6072858810424805,0.8150939941406250
0.6072858810424805,0.8150939941406250
0.6162923812866211,0.8258520126342773
0.6162923812866211,0.8258520126342773
0.6044254302978516,0.8198118209838867
0.6044254302978516,0.8198118209838867
0.6145357131958008,0.8201093673706055
0.6145357131958008,0.8201093673706055
0.6131315231323242,0.8277534484863281
0.6131315231323242,0.8277534484863281
0.6085252761840820,0.8178943634033203
0.6085252761840820,0.8178943634033203
0.6162837982177735,0.8281036376953125
0.6162837982177735,0.8281036376953125
0.6067594528198242,0.8219758987426757
0.6067594528198242,0.8219758987426757
0.6156114578247071,0.8220794677734374
0.6156114578247071,0.8220794677734374
0.6138570785522460,0.8295049667358398
0.6138570785522460,0.8295049667358398
0.6080749511718749,0.8193059921264648
0.6080749511718749,0.8193059921264648
0.6182218551635742,0.8294546127319335
0.6182218551635742,0.8294546127319335
0.6075227737426757,0.8232170104980469
0.6075227737426757,0.8232170104980469
0.6160640716552734,0.8233085632324219
0.6160640716552734,0.8233085632324219
0.6128957748413085,0.8304313659667969
0.6128957748413085,0.8304313659667969
0.6097520828247071,0.8201208114624023
0.6112627029418946,0.8201208114624023
0.6185062408447265,0.8302780151367187
0.6185062408447265,0.8302780151367187
0.6077310562133789,0.8241479873657226
0.6077310562133789,0.8241479873657226
0.6150289535522461,0.8238979339599609
0.6150289535522461,0.8238979339599609
0.6146095275878906,0.8311351776123047
0.6146095275878906,0.8311351776123047
0.6102041244506836,0.8207828521728515
0.6102041244506836,0.8207828521728515
0.6188026428222656,0.8310562133789062
0.6188026428222656,0.8310562133789062
0.6066095352172851,0.8246646881103515
0.6066095352172851,0.8246646881103515
0.6165395736694336,0.8245502471923828
0.6165395736694336,0.8245502471923828
0.6148921966552734,0.8319591522216797
0.6148921966552734,0.8319591522216797
0.6102985382080078,0.8216463088989258
0.6102985382080078,0.8216463088989258
0.6178384780883789,0.8316925048828124
0.6178384780883789,0.8316925048828124
0.6082403182983398,0.8254091262817382
0.6082403182983398,0.8254091262817382
0.6169916152954101,0.8252294540405273
0.6169916152954101,0.8252294540405273
0.6151800155639648,0.8326480865478515
0.6151800155639648,0.8326480865478515
0.6092027664184571,0.8222145080566406
0.6092027664184571,0.8222145080566406
0.6192924499511718,0.8322544097900391
0.6192924499511718,0.8322544097900391
0.6084686279296875,0.8260602951049805
0.6084686279296875,0.8260602951049805
0.6170448303222656,0.8260597229003906
0.6170448303222656,0.8260597229003906
0.6141614913940430,0.8332883834838867
0.6141614913940430,0.8332883834838867
0.6107728958129882,0.8228296279907227
0.6107728958129882,0.8228296279907227
0.6197948455810547,0.8330314636230468
0.6197948455810547,0.8330314636230468
0.6088062286376953,0.8269397735595703
0.6088062286376953,0.8269397735595703
0.6160903930664062,0.8265661239624024
0.6160903930664062,0.8265661239624024
0.6156217575073242,0.8339246749877930
0.6188856124877929,0.8339246749877930
0.6111070632934570,0.8233886718750000
0.6111070632934570,0.8233886718750000
0.6198102951049804,0.8337518692016601
0.6198102951049804,0.8337518692016601
0.6076549530029297,0.8273586273193360
0.6076549530029297,0.8273586273193360
0.6174688339233398,0.8269014358520508
0.6174688339233398,0.8269014358520508
0.6158060073852539,0.8339921951293945
0.6158060073852539,0.8339921951293945
0.6108598709106445,0.8232450485229492
0.6108598709106445,0.8232450485229492
0.6179792404174804,0.8326509475708007
0.6179792404174804,0.8326509475708007
0.6080343246459960,0.8254045486450196
0.6080343246459960,0.8254045486450196
0.6160303115844726,0.8239723205566406
0.6160303115844726,0.8239723205566406
0.6137454986572265,0.8300725936889648
0.6137454986572265,0.8300725936889648
0.6072898864746094,0.8179756164550781
0.6072898864746094,0.8179756164550781
0.6167701721191406,0.8267223358154296
0.6167701721191406,0.8267223358154296
0.6054594039916992,0.8190221786499023
0.6054594039916992,0.8190221786499023
0.6132997512817383,0.8175573348999023
0.6132997512817383,0.8175573348999023
0.6099088668823242,0.8236524581909179
0.6099088668823242,0.8236524581909179
0.6062278747558594,0.8123342514038085
0.6062278747558594,0.8123342514038085
0.6148727416992187,0.8219650268554687
0.6148727416992187,0.8219650268554687
0.6039796829223633,0.8159420013427734
0.6039796829223633,0.8159420013427734
0.6113307952880859,0.8155094146728515
0.6113307952880859,0.8155094146728515
0.6110378265380859,0.8232805252075195
0.6110378265380859,0.8232805252075195
0.6066884994506836,0.8131702423095702
0.6079885482788085,0.8131702423095702
0.6157201766967774,0.8241193771362304
0.6157201766967774,0.8241193771362304
0.6038715362548828,0.8183738708496093
0.6038715362548828,0.8183738708496093
0.6138021469116210,0.8185747146606445
0.6138021469116210,0.8185747146606445
0.6125518798828125,0.8264436721801758
0.6125518798828125,0.8264436721801758
0.6080062866210937,0.8162532806396484
0.6080062866210937,0.8162532806396484
0.6157516479492188,0.8266880035400390
0.6157516479492188,0.8266880035400390
0.6062564849853516,0.8209585189819336
0.6062564849853516,0.8209585189819336
0.6151308059692383,0.8207731246948242
0.6151308059692383,0.8207731246948242
0.6133827209472656,0.8285488128662110
0.6133827209472656,0.8285488128662110
0.6075016021728515,0.8179498672485351
0.6075016021728515,0.8179498672485351
0.6176261901855469,0.8282724380493164
0.6176261901855469,0.8282724380493164
0.6069940567016602,0.8223976135253906
0.6069940567016602,0.8223976135253906
0.6155416488647460,0.8220525741577148
0.6155416488647460,0.8220525741577148
0.6125782012939452,0.8295289993286132
0.6125782012939452,0.8295289993286132
0.6092033386230469,0.8190868377685546
0.6092033386230469,0.8190868377685546
0.6182710647583007,0.8292943954467773
0.6182710647583007,0.8292943954467773
0.6073190689086914,0.8234441757202148
0.6073190689086914,0.8234441757202148
0.6145637512207031,0.8229240417480469
0.6145637512207031,0.8229240417480469
0.6141603469848632,0.8303461074829102
0.6141603469848632,0.8303461074829102
0.6095214843750000,0.8197483062744141
0.6095214843750000,0.8197483062744141
0.6184398651123046,0.8300308227539063
0.6184398651123046,0.8300308227539063
0.6063097000122070,0.8238739013671875
0.6063097000122070,0.8238739013671875
0.6159782409667969,0.8235368728637695
0.6159782409667969,0.8235368728637695
0.6146032333374023,0.8309686660766601
0.6146032333374023,0.8309686660766601
0.6097629547119140,0.8205957412719727
0.6097629547119140,0.8205957412719727
0.6172920227050781,0.8305698394775390
0.6172920227050781,0.8305698394775390
0.6077682495117187,0.8247179031372071
0.6077682495117187,0.8247179031372071
0.6163387298583984,0.8242790222167968
0.6163387298583984,0.8242790222167968
0.6147508621215820,0.8317897796630859
0.6147508621215820,0.8317897796630859
0.6087930679321288,0.8210969924926758
0.6087930679321288,0.8210969924926758
0.6189096450805663,0.8313594818115234
0.6189096450805663,0.8313594818115234
0.6082981109619140,0.8253679275512695
0.6082981109619140,0.8253679275512695
0.6167163848876953,0.8250755310058594
0.6167163848876953,0.8250755310058594
0.6138216018676758,0.8323534011840820
0.6138216018676758,0.8323534011840820
0.6103420257568359,0.8219306945800781
0.6103420257568359,0.8219306945800781
0.6192289352416992,0.8319505691528321
0.6192289352416992,0.8319505691528321
0.6084520339965820,0.8262485504150391
0.6084520339965820,0.8262485504150391
0.6156171798706055,0.8256837844848632
0.6156171798706055,0.8256837844848632
0.6153614044189453,0.8331110000610351
0.6153614044189453,0.8331110000610351
0.6108175277709961,0.8224222183227539
0.6108175277709961,0.8224222183227539
0.6193571090698242,0.8327161788940429
0.6193571090698242,0.8327161788940429
0.6072544097900391,0.8267303466796875
0.6072544097900391,0.8267303466796875
0.6170419692993164,0.8261152267456054
0.6170419692993164,0.8261152267456054
0.6154283523559571,0.8336351394653320
0.6154283523559571,0.8336351394653320
0.6106819152832031,0.8228954315185547
0.6106819152832031,0.8228954315185547
0.6181291580200196,0.8327533721923828
0.6181291580200196,0.8327533721923828
0.6083696365356445,0.8266519546508789
0.6185640335083008,0.8326635360717773
0.6168233871459960,0.8254577636718750
0.6089401245117188,0.8254577636718750
0.6145740509033203,0.8320386886596679
0.6170751571655273,0.8320386886596679
0.6080829620361328,0.8201585769653320
0.6080829620361328,0.8201585769653320
0.6176553726196289,0.8292589187622070
0.6176553726196289,0.8292589187622070
0.6064985275268554,0.8221693038940430
0.6064985275268554,0.8221693038940430
0.6142787933349609,0.8205247879028320
0.6142787933349609,0.8205247879028320
0.6110738754272461,0.8267154693603516
0.6110738754272461,0.8267154693603516
0.6070346832275391,0.8150671005249023
0.6070346832275391,0.8150671005249023
0.6158077239990234,0.8242452621459960
0.6158077239990234,0.8242452621459960
0.6046594619750977,0.8181203842163086
0.6152807235717773,0.8181203842163086
0.6116889953613281,0.8170709609985352
0.6116889953613281,0.8170709609985352
