REDsignal,IRsignal
0.4738185882568359,0.4809196472167969
0.4743112564086914,0.4809196472167969
0.4712001800537109,0.4777004241943359
0.4712001800537109,0.4777004241943359
0.4748285293579101,0.4791286468505859
0.4748285293579101,0.4791286468505859
0.4713586807250976,0.4757881164550781
0.4713586807250976,0.4757881164550781
0.4704425811767578,0.4718685150146484
0.4704425811767578,0.4718685150146484
0.4673383712768555,0.4695882797241211
0.4673383712768555,0.4695882797241211
0.4613113403320312,0.4588193893432617
0.4613113403320312,0.4588193893432617
0.4603540420532226,0.4524307250976562
0.4603540420532226,0.4524307250976562
0.4529319763183594,0.4419965744018555
0.4529319763183594,0.4419965744018555
0.4495914459228516,0.4340497970581055
0.4495914459228516,0.4340497970581055
0.4463670730590820,0.4318496704101563
0.4463670730590820,0.4318496704101563
0.4421350479125977,0.4250106811523438
0.4421350479125977,0.4250106811523438
0.4448810577392578,0.4254610061645508
0.4448810577392578,0.4254610061645508
0.4419679641723633,0.4234863281250000
0.4419679641723633,0.4234863281250000
0.4430585861206054,0.4233432769775390
0.4430585861206054,0.4233432769775390
0.4437606811523437,0.4277652740478515
0.4437606811523437,0.4277652740478515
0.4420486450195312,0.4254283905029297
0.4420486450195312,0.4254283905029297
0.4470748901367188,0.4293634414672852
0.4470748901367188,0.4293634414672852
0.4454458236694336,0.4301645278930664
0.4454458236694336,0.4301645278930664
0.4476036071777343,0.4317483901977539
0.4476036071777343,0.4317483901977539
0.4491497039794922,0.4379808425903320
0.4491497039794922,0.4379808425903320
0.4482324600219726,0.4372295379638672
0.4482324600219726,0.4372295379638672
0.4541141510009765,0.4423393249511718
0.4541141510009765,0.4423393249511718
0.4529491424560547,0.4440799713134765
0.4529491424560547,0.4440799713134765
0.4552917480468750,0.4460374832153320
0.4552917480468750,0.4460374832153320
0.4569643020629883,0.4519512176513671
0.4569643020629883,0.4519512176513671
0.4555429458618164,0.4501304626464844
0.4555429458618164,0.4501304626464844
0.4604187011718750,0.4536581039428711
0.4604187011718750,0.4536581039428711
0.4583518981933594,0.4533170700073242
0.4583518981933594,0.4533170700073242
0.4596473693847656,0.4533153533935547
0.4596473693847656,0.4533153533935547
0.4601509094238281,0.4573476791381836
0.4601509094238281,0.4573476791381836
0.4578363418579101,0.4538143157958984
0.4578363418579101,0.4538143157958984
0.4619419097900390,0.4561523437500000
0.4619419097900390,0.4561523437500000
0.4592657089233398,0.4548723220825195
0.4592657089233398,0.4548723220825195
0.4601491928100586,0.4543664932250976
0.4601491928100586,0.4543664932250976
0.4605445861816406,0.4580022811889648
0.4605445861816406,0.4580022811889648
0.4582397460937500,0.4545925140380859
0.4582397460937500,0.4545925140380859
0.4624980926513672,0.4572046279907226
0.4624980926513672,0.4572046279907226
0.4600341796875000,0.4563875198364258
0.4600341796875000,0.4563875198364258
0.4612667083740234,0.4563697814941406
0.4612667083740234,0.4563697814941406
0.4619201660156250,0.4605571746826171
0.4619201660156250,0.4605571746826171
0.4598293304443359,0.4578065872192383
0.4598293304443359,0.4578065872192383
0.4644727706909180,0.4607105255126953
0.4644727706909180,0.4607105255126953
0.4622200012207031,0.4602710723876953
0.4622200012207031,0.4602710723876953
0.4635795593261718,0.4604169845581054
0.4635795593261718,0.4604169845581054
0.4643480300903320,0.4649534225463867
0.4643480300903320,0.4649534225463867
0.4623939514160156,0.4622406005859375
0.4640991210937500,0.4622406005859375
0.4670642852783203,0.4653230667114258
0.4670642852783203,0.4653230667114258
0.4647834777832031,0.4649110794067383
0.4647834777832031,0.4649110794067383
0.4661458969116211,0.4652503967285156
0.4661458969116211,0.4652503967285156
0.4670036315917969,0.4698606491088867
0.4670036315917969,0.4698606491088867
0.4650444030761718,0.4669870376586914
0.4650444030761718,0.4669870376586914
0.4696763992309570,0.4701753616333008
0.4696763992309570,0.4701753616333008
0.4674865722656250,0.4699613571166992
0.4674865722656250,0.4699613571166992
0.4688472747802734,0.4701725006103515
0.4688472747802734,0.4701725006103515
0.4698366165161132,0.4747329711914062
0.4698366165161132,0.4747329711914062
0.4676651000976562,0.4719526290893554
0.4676651000976562,0.4719526290893554
0.4722295761108398,0.4749647140502929
0.4722295761108398,0.4749647140502929
0.4699190139770508,0.4744709014892578
0.4699190139770508,0.4744709014892578
0.4712654113769531,0.4743021011352539
0.4712654113769531,0.4743021011352539
0.4718107223510742,0.4783887863159180
0.4718107223510742,0.4783887863159180
0.4692026138305664,0.4743885040283203
0.4692026138305664,0.4743885040283203
0.4727611541748047,0.4752456665039062
0.4727611541748047,0.4752456665039062
0.4685943603515625,0.4710422515869140
0.4685943603515625,0.4710422515869140
0.4666488647460937,0.4652452468872070
0.4666488647460937,0.4652452468872070
0.4632488250732422,0.4618629455566406
0.4632488250732422,0.4618629455566406
0.4559463500976562,0.4495496749877930
0.4559463500976562,0.4495496749877930
0.4551469802856445,0.4427541732788086
0.4551469802856445,0.4427541732788086
0.4477031707763672,0.4331789016723633
0.4477031707763672,0.4331789016723633
0.4450092315673828,0.4265933990478515
0.4450092315673828,0.4265933990478515
0.4431306838989258,0.4266145706176758
0.4431306838989258,0.4266145706176758
0.4393026351928711,0.4207843780517578
0.4393026351928711,0.4207843780517578
0.4428194046020508,0.4220409393310547
0.4428194046020508,0.4220409393310547
0.4400550842285156,0.4208410263061523
0.4400550842285156,0.4208410263061523
0.4412092208862304,0.4206247329711914
0.4412092208862304,0.4206247329711914
0.4420274734497070,0.4251932144165039
0.4420274734497070,0.4251932144165039
0.4400350570678711,0.4227664947509766
0.4400350570678711,0.4227664947509766
0.4450023651123047,0.4265378952026367
0.4450023651123047,0.4265378952026367
0.4432880401611328,0.4270162582397461
0.4432880401611328,0.4270162582397461
0.4454023361206055,0.4284599304199219
0.4454023361206055,0.4284599304199219
0.4469942092895507,0.4345985412597656
0.4469942092895507,0.4345985412597656
0.4458538055419922,0.4338283538818359
0.4458538055419922,0.4338283538818359
0.4517280578613281,0.4388311386108398
0.4517280578613281,0.4388311386108398
0.4506408691406250,0.4407148361206055
0.4506408691406250,0.4407148361206055
0.4530813217163085,0.4425848007202148
0.4530813217163085,0.4425848007202148
0.4547647476196289,0.4486484527587891
0.4547647476196289,0.4486484527587891
0.4531030654907227,0.4467046737670898
0.4531030654907227,0.4467046737670898
0.4582546234130859,0.4503255844116211
0.4582546234130859,0.4503255844116211
0.4561094284057617,0.4500509262084961
0.4561094284057617,0.4500509262084961
0.4573625564575195,0.4499422073364258
0.4573625564575195,0.4499422073364258
0.4580543518066406,0.4541330337524414
0.4580543518066406,0.4541330337524414
0.4556173324584961,0.4507942199707031
0.4556173324584961,0.4507942199707031
0.4599660873413086,0.4530550003051758
0.4599660873413086,0.4530550003051758
0.4574111938476562,0.4520891189575195
0.4574111938476562,0.4520891189575195
0.4583879470825195,0.4514745712280273
0.4583879470825195,0.4514745712280273
0.4589366912841797,0.4555412292480469
0.4589366912841797,0.4555412292480469
0.4563898086547851,0.4522121429443359
0.4563898086547851,0.4522121429443359
0.4608844757080078,0.4548723220825195
0.4608844757080078,0.4548723220825195
0.4584234237670898,0.4542446136474609
0.4584234237670898,0.4542446136474609
0.4596811294555664,0.4541044235229492
0.4596811294555664,0.4541044235229492
0.4604095458984375,0.4587146759033203
0.4604095458984375,0.4587146759033203
0.4584079742431640,0.4561683654785156
0.4584079742431640,0.4561683654785156
0.4631498336791992,0.4592702865600586
0.4631498336791992,0.4592702865600586
0.4609451293945312,0.4589006423950195
0.4609451293945312,0.4589006423950195
0.4622829437255859,0.4590700149536133
0.4622829437255859,0.4590700149536133
0.4631772994995117,0.4638284683227539
0.4631772994995117,0.4638284683227539
0.4609508514404297,0.4609834671020507
0.4609508514404297,0.4609834671020507
0.4657653808593750,0.4639503479003906
0.4657653808593750,0.4639503479003906
0.4635251998901367,0.4636247634887695
0.4635251998901367,0.4636247634887695
0.4648246765136719,0.4636940002441406
0.4648246765136719,0.4636940002441406
0.4658483505249023,0.4684581756591797
0.4658483505249023,0.4684581756591797
0.4636116027832031,0.4657007217407226
0.4636116027832031,0.4657007217407226
0.4683065414428711,0.4686143875122070
0.4683065414428711,0.4686143875122070
0.4662082672119141,0.4683872222900390
0.4662082672119141,0.4683872222900390
0.4674774169921875,0.4684392929077148
0.4674774169921875,0.4684392929077148
0.4684186935424804,0.4731290817260742
0.4684186935424804,0.4731290817260742
0.4661132812500000,0.4701536178588867
0.4661132812500000,0.4701536178588867
0.4708236694335937,0.4731428146362304
0.4708236694335937,0.4731428146362304
0.4685176849365234,0.4727371215820312
0.4685176849365234,0.4727371215820312
0.4698354721069335,0.4726324081420898
0.4698354721069335,0.4726324081420898
0.4704992294311523,0.4768444061279297
0.4704992294311523,0.4768444061279297
0.4679042816162109,0.4731376647949219
0.4679042816162109,0.4731376647949219
0.4718856811523438,0.4744543075561523
0.4718856811523438,0.4744543075561523
0.4680633544921875,0.4710622787475586
0.4680633544921875,0.4710622787475586
0.4665956497192383,0.4656623840332031
0.4665956497192383,0.4656623840332031
0.4635297775268554,0.4627286911010742
0.4635297775268554,0.4627286911010742
0.4560247421264648,0.4502214431762695
0.4560247421264648,0.4502214431762695
0.4549861907958984,0.4424297332763672
0.4549861907958984,0.4424297332763672
0.4474468231201172,0.4326250076293945
0.4474468231201172,0.4326250076293945
0.4447683334350586,0.4258626937866211
0.4447683334350586,0.4258626937866211
0.4427833557128906,0.4258266448974609
0.4427833557128906,0.4258266448974609
0.4386371612548828,0.4197881698608398
0.4386371612548828,0.4197881698608398
0.4421728134155273,0.4207780838012695
0.4421728134155273,0.4207780838012695
0.4391859054565430,0.4190963745117187
0.4391859054565430,0.4190963745117187
0.4400814056396484,0.4183250427246094
0.4400814056396484,0.4183250427246094
0.4406455993652343,0.4225851058959961
0.4406455993652343,0.4225851058959961
0.4383550643920898,0.4195850372314453
0.4383550643920898,0.4195850372314453
0.4431438446044922,0.4228431701660156
0.4431438446044922,0.4228431701660156
0.4411737442016602,0.4229433059692383
0.4411737442016602,0.4229433059692383
0.4429155349731445,0.4237329483032227
0.4429155349731445,0.4237329483032227
0.4443655014038086,0.4296598434448242
0.4443655014038086,0.4296598434448242
0.4429761886596680,0.4283683776855469
0.4429761886596680,0.4283683776855469
0.4486707687377929,0.4333477020263672
0.4486707687377929,0.4333477020263672
0.4476104736328125,0.4350477218627929
0.4476104736328125,0.4350477218627929
0.4499341964721680,0.4368432998657226
0.4499341964721680,0.4368432998657226
0.4517074584960937,0.4431375503540039
0.4517074584960937,0.4431375503540039
0.4501527786254882,0.4413894653320312
0.4501527786254882,0.4413894653320312
0.4552968978881836,0.4449497222900390
0.4552968978881836,0.4449497222900390
0.4531047821044922,0.4445966720581054
0.4573619842529297,0.4445966720581054
0.4523723602294922,0.4460826873779297
0.4523723602294922,0.4459087371826172
0.4553918838500977,0.4460014343261718
0.4514848709106445,0.4460014343261718
0.4533147811889648,0.4473283767700195
0.4533147811889648,0.4473283767700195
0.4532741546630859,0.4434642791748047
0.4532741546630859,0.4434642791748047
0.4563508987426758,0.4473197937011719
0.4563508987426758,0.4473197937011719
0.4523820877075195,0.4456735610961914
0.4523820877075195,0.4456735610961914
0.4553718566894531,0.4459104537963867
0.4553718566894531,0.4459104537963867
0.4536191940307617,0.4477603912353516
0.4536191940307617,0.4477603912353516
0.4539636611938476,0.4447626113891601
0.4539636611938476,0.4447626113891601
0.4574163436889648,0.4495697021484375
0.4574163436889648,0.4495697021484375
0.4539493560791015,0.4489076614379883
0.4539493560791015,0.4489076614379883
0.4575782775878906,0.4500120162963867
0.4539974212646484,0.4500120162963867
0.4561065673828125,0.4526927947998047
0.4561065673828125,0.4526927947998047
0.4569643020629883,0.4503278732299805
0.4569643020629883,0.4503278732299805
0.4606361389160156,0.4554519653320312
0.4606361389160156,0.4554519653320312
0.4573705673217773,0.4549512863159180
0.4573705673217773,0.4549512863159180
0.4609279632568359,0.4561758041381836
0.4609279632568359,0.4561758041381836
0.4595483779907226,0.4586202621459960
0.4595483779907226,0.4586202621459960
0.4601119995117187,0.4560007095336914
0.4601119995117187,0.4560007095336914
0.4636848449707031,0.4608564376831055
0.4636848449707031,0.4608564376831055
0.4601840972900391,0.4602075576782226
0.4601840972900391,0.4602075576782226
0.4636173248291016,0.4610927581787109
0.4636173248291016,0.4610927581787109
0.4620946884155273,0.4633752822875976
0.4620946884155273,0.4633752822875976
0.4626239776611328,0.4605628967285156
0.4626239776611328,0.4605628967285156
0.4661321640014648,0.4654724121093750
0.4661321640014648,0.4654724121093750
0.4625381469726562,0.4646461486816406
0.4625381469726562,0.4646461486816406
0.4659948348999023,0.4654621124267578
0.4659948348999023,0.4654621124267578
0.4643354415893555,0.4676742553710938
0.4643354415893555,0.4676742553710938
0.4648212432861328,0.4649179458618164
0.4648212432861328,0.4649179458618164
0.4683815002441406,0.4696426391601562
0.4683815002441406,0.4696426391601562
0.4647411346435547,0.4685920715332031
0.4647411346435547,0.4685920715332031
0.4679403305053711,0.4688547134399414
0.4679403305053711,0.4688547134399414
0.4657985687255859,0.4698801040649414
0.4657985687255859,0.4698801040649414
0.4652509689331055,0.4646306991577148
0.4652509689331055,0.4646306991577148
0.4664646148681640,0.4650049209594727
0.4664646148681640,0.4650049209594727
0.4593469619750976,0.4570289611816406
0.4593469619750976,0.4570289611816406
0.4576829910278320,0.4484075546264648
0.4576829910278320,0.4484075546264648
0.4503948211669921,0.4399898529052734
0.4503948211669921,0.4399898529052734
0.4451694488525391,0.4274351119995117
0.4451694488525391,0.4274351119995117
0.4448009490966797,0.4253213882446289
0.4448009490966797,0.4253213882446289
0.4382389068603516,0.4196920394897461
0.4382389068603516,0.4196920394897461
0.4397483825683594,0.4170804977416992
0.4397483825683594,0.4170804977416992
0.4368083953857422,0.4171085357666016
0.4368083953857422,0.4171085357666016
0.4361509323120117,0.4124765396118164
0.4361509323120117,0.4124765396118164
0.4393135070800781,0.4163743972778320
0.4393135070800781,0.4163743972778320
0.4354511260986328,0.4150239944458008
0.4354511260986328,0.4150239944458008
0.4387716293334961,0.4155550003051758
0.4387716293334961,0.4155550003051758
0.4372192382812500,0.4180561065673828
0.4372192382812500,0.4180561065673828
0.4376987457275390,0.4153718948364258
0.4376987457275390,0.4153718948364258
0.4416646957397461,0.4206876754760742
0.4390096664428711,0.4206876754760742
0.4384843826293945,0.4208393096923828
0.4384843826293945,0.4208393096923828
0.4424709320068359,0.4228403091430664
0.4424709320068359,0.4228403091430664
0.4420349121093750,0.4272239685058594
0.4420349121093750,0.4272239685058594
0.4434911727905274,0.4264297485351562
0.4434911727905274,0.4264297485351562
0.4484733581542968,0.4337139129638672
0.4484733581542968,0.4337139129638672
0.4460947036743164,0.4353092193603516
0.4460947036743164,0.4353092193603516
0.4505046844482422,0.4378807067871094
0.4505046844482422,0.4378807067871094
0.4498237609863281,0.4418003082275391
0.4498237609863281,0.4418003082275391
0.4507181167602539,0.4398296356201172
0.4507181167602539,0.4398296356201172
0.4546445846557617,0.4449234008789062
0.4546445846557617,0.4449234008789062
0.4509824752807617,0.4440324783325195
0.4509824752807617,0.4440324783325195
0.4541181564331054,0.4444095611572266
0.4541181564331054,0.4444095611572266
0.4523185729980468,0.4462400436401367
0.4523185729980468,0.4462400436401367
0.4522481918334961,0.4423667907714844
0.4522481918334961,0.4423667907714844
0.4553215026855468,0.4462017059326172
0.4553215026855468,0.4462017059326172
0.4512668609619140,0.4444461822509765
0.4512668609619140,0.4444461822509765
0.4540105819702148,0.4441646575927734
0.4540105819702148,0.4441646575927734
0.4520101547241211,0.4456884384155274
0.4520101547241211,0.4456884384155274
0.4519712448120117,0.4420560836791992
0.4519712448120117,0.4420560836791992
0.4554410934448242,0.4464002609252929
0.4554410934448242,0.4464002609252929
0.4515300750732422,0.4453107833862305
0.4515300750732422,0.4453107833862305
0.4547670364379883,0.4458435058593750
0.4511066436767578,0.4458435058593750
0.4531265258789062,0.4482135772705078
0.4531265258789062,0.4482135772705078
0.4535665512084961,0.4452741622924805
0.4535665512084961,0.4452741622924805
0.4573768615722656,0.4502088546752929
0.4573768615722656,0.4502088546752929
0.4537405014038086,0.4495571136474609
0.4537405014038086,0.4495571136474609
0.4571914672851562,0.4506225585937500
0.4571914672851562,0.4506225585937500
0.4557821273803710,0.4532306671142578
0.4557821273803710,0.4532306671142578
0.4562490463256836,0.4505905151367187
0.4562490463256836,0.4505905151367187
0.4602172851562500,0.4556980133056641
0.4602172851562500,0.4556980133056641
0.4567331314086914,0.4551830291748047
0.4567331314086914,0.4551830291748047
0.4601840972900391,0.4561660766601562
0.4601840972900391,0.4561660766601562
0.4589326858520508,0.4589429855346679
0.4589326858520508,0.4589429855346679
0.4593858718872070,0.4561100006103516
0.4593858718872070,0.4561100006103516
0.4633563995361328,0.4611448287963867
0.4633563995361328,0.4611448287963867
0.4597595214843750,0.4604742050170898
0.4597595214843750,0.4604742050170898
0.4630731582641601,0.4612867355346679
0.4630731582641601,0.4612867355346679
0.4617238998413086,0.4639028549194336
0.4617238998413086,0.4639028549194336
0.4621009826660156,0.4609090805053710
0.4621009826660156,0.4609090805053710
0.4658180236816406,0.4656841278076171
0.4658180236816406,0.4656841278076171
0.4621410369873047,0.4646999359130859
0.4621410369873047,0.4646999359130859
0.4652858734130859,0.4648807525634766
0.4652858734130859,0.4648807525634766
0.4633008956909179,0.4662494659423828
0.4633008956909179,0.4662494659423828
0.4625827789306640,0.4610040664672851
0.4625827789306640,0.4610040664672851
0.4641437530517578,0.4612255096435547
0.4641437530517578,0.4612255096435547
0.4567777633666992,0.4532924652099609
0.4567777633666992,0.4532924652099609
0.4549427032470703,0.4440742492675781
0.4549427032470703,0.4440742492675781
0.4473226547241211,0.4350957870483398
0.4473226547241211,0.4350957870483398
0.4421619415283203,0.4226657867431641
0.4421619415283203,0.4226657867431641
0.4416532516479492,0.4205989837646484
0.4416532516479492,0.4205989837646484
0.4352451324462890,0.4149141311645508
0.4352451324462890,0.4149141311645508
0.4365079879760742,0.4122184753417968
0.4365079879760742,0.4122184753417968
0.4335691452026367,0.4121315002441406
0.4330879211425781,0.4078330993652344
0.4330879211425781,0.4078330993652344
0.4361766815185547,0.4116004943847656
0.4361766815185547,0.4116004943847656
0.4323274612426758,0.4101345062255859
0.4323274612426758,0.4101345062255859
0.4354511260986328,0.4106420516967773
0.4354511260986328,0.4106420516967773
0.4338878631591797,0.4129028320312500
0.4338878631591797,0.4129028320312500
0.4343427658081054,0.4100395202636719
0.4343427658081054,0.4100395202636719
0.4382137298583984,0.4150457382202148
0.4382137298583984,0.4150457382202148
0.4349555969238281,0.4147779464721680
0.4349555969238281,0.4147779464721680
0.4388683319091797,0.4166364669799805
0.4388683319091797,0.4166364669799805
0.4381605148315429,0.4205034255981445
0.4381605148315429,0.4205034255981445
0.4395641326904297,0.4194362640380859
0.4395641326904297,0.4194362640380859
0.4444021224975586,0.4262844085693359
0.4444021224975586,0.4262844085693359
0.4418855667114258,0.4272617340087890
0.4418855667114258,0.4272617340087890
0.4459796905517578,0.4295001983642578
0.4459796905517578,0.4295001983642578
0.4449897766113281,0.4327915191650391
0.4449897766113281,0.4327915191650391
0.4456598281860352,0.4302148818969727
0.4456598281860352,0.4302148818969727
0.4493745803833007,0.4348251342773438
0.4493745803833007,0.4348251342773438
0.4454172134399414,0.4333837509155273
0.4454172134399414,0.4333837509155273
0.4482324600219726,0.4331777572631836
0.4482324600219726,0.4331777572631836
0.4459321975708008,0.4342180252075195
0.4459321975708008,0.4342180252075195
0.4457777023315430,0.4301296234130859
0.4457777023315430,0.4301296234130859
0.4487194061279297,0.4337287902832031
0.4487194061279297,0.4337287902832031
0.4446647644042969,0.4318187713623047
0.4446647644042969,0.4318187713623047
0.4474153518676758,0.4319458007812500
0.4474153518676758,0.4319458007812500
0.4456569671630859,0.4336240768432617
0.4456569671630859,0.4336240768432617
0.4459739685058594,0.4306634902954101
0.4459739685058594,0.4306634902954101
0.4495639801025391,0.4353303909301758
0.4495639801025391,0.4353303909301758
0.4462715148925781,0.4348508834838867
0.4462715148925781,0.4348508834838867
0.4496372222900391,0.4359558105468750
0.4496372222900391,0.4359558105468750
0.4482994079589844,0.4387355804443359
0.4482994079589844,0.4387355804443359
0.4491342544555664,0.4366161346435547
0.4491342544555664,0.4366161346435547
0.4530550003051758,0.4419216156005859
0.4530550003051758,0.4419216156005859
0.4499044418334961,0.4417356491088867
0.4499044418334961,0.4417356491088867
0.4534795761108398,0.4432519912719726
0.4534795761108398,0.4432519912719726
0.4522172927856445,0.4460128784179687
0.4522172927856445,0.4460128784179687
0.4530206680297851,0.4438705444335938
0.4530206680297851,0.4438705444335938
0.4568727493286133,0.4490547180175781
0.4568727493286133,0.4490547180175781
0.4536809921264648,0.4488218307495117
0.4536809921264648,0.4488218307495117
0.4573225021362304,0.4501321792602539
0.4573225021362304,0.4501321792602539
0.4559869766235352,0.4528438568115234
0.4559869766235352,0.4528438568115234
0.4567577362060546,0.4504869461059570
0.4574764251708984,0.4504869461059570
0.4604885101318359,0.4555772781372070
0.4604885101318359,0.4555772781372070
0.4572441101074218,0.4551063537597656
0.4572441101074218,0.4551063537597656
0.4606784820556640,0.4562049865722656
0.4606784820556640,0.4562049865722656
0.4593320846557617,0.4586374282836914
0.4593320846557617,0.4586374282836914
0.4598110198974609,0.4559841156005859
0.4598110198974609,0.4559841156005859
0.4634531021118164,0.4606075286865234
0.4634531021118164,0.4606075286865234
0.4622869491577148,0.4613285064697266
0.4618486404418945,0.4613285064697266
0.4589366912841797,0.4568475723266601
0.4589366912841797,0.4568475723266601
0.4621450424194335,0.4564813613891601
0.4572029113769531,0.4564813613891601
0.4573310852050781,0.4510396957397461
0.4573310852050781,0.4510396957397461
0.4545387268066406,0.4430545806884765
0.4545387268066406,0.4430545806884765
0.4505458831787109,0.4385507583618164
0.4505458831787109,0.4385507583618164
0.4425716400146484,0.4259428024291992
0.4425716400146484,0.4259428024291992
0.4425241470336914,0.4206041336059570
0.4425241470336914,0.4206041336059570
0.4369297027587891,0.4146772384643554
0.4369297027587891,0.4146772384643554
0.4357463836669922,0.4106929779052734
0.4357463836669922,0.4106929779052734
0.4352554321289062,0.4129365921020507
0.4352554321289062,0.4129365921020507
0.4317077636718750,0.4082628250122070
0.4317077636718750,0.4082628250122070
0.4356983184814453,0.4099960327148438
0.4356983184814453,0.4099960327148438
0.4331560134887695,0.4091514587402343
0.4331560134887695,0.4091514587402343
0.4341842651367188,0.4086032867431640
0.4341842651367188,0.4086032867431640
0.4352611541748047,0.4132982254028320
0.4352611541748047,0.4132982254028320
0.4327051162719727,0.4108222961425781
0.4327051162719727,0.4108222961425781
0.4378744125366211,0.4143962860107422
0.4378744125366211,0.4143962860107422
0.4363397598266601,0.4154142379760742
0.4363397598266601,0.4154142379760742
0.4383190155029297,0.4166456222534179
0.4383190155029297,0.4166456222534179
0.4401964187622070,0.4231590270996093
0.4405162811279297,0.4231590270996093
0.4385375976562500,0.4220397949218750
0.4385375976562500,0.4220397949218750
0.4441291809082031,0.4262689590454101
0.4441291809082031,0.4262689590454101
0.4425029754638672,0.4269630432128906
0.4425029754638672,0.4269630432128906
0.4438127517700195,0.4268932342529297
0.4438127517700195,0.4268932342529297
0.4447751998901367,0.4314371109008789
0.4447751998901367,0.4314371109008789
0.4417934417724609,0.4277372360229492
0.4417934417724609,0.4277372360229492
0.4460409164428711,0.4293291091918945
0.4460409164428711,0.4293291091918945
0.4431375503540039,0.4275615692138672
0.4431375503540039,0.4275615692138672
0.4434597015380859,0.4256767272949218
0.4434597015380859,0.4256767272949218
0.4437349319458008,0.4289600372314453
0.4437349319458008,0.4289600372314453
0.4403348922729492,0.4247062683105469
0.4403348922729492,0.4247062683105469
0.4445262908935547,0.4264080047607422
0.4445262908935547,0.4264080047607422
0.4420251846313477,0.4254884719848633
0.4420251846313477,0.4254884719848633
0.4428577423095703,0.4246318817138672
0.4428577423095703,0.4246318817138672
0.4438550949096680,0.4291717529296875
0.4438550949096680,0.4291717529296875
0.4411022186279297,0.4263462066650390
0.4411022186279297,0.4263462066650390
0.4460506439208984,0.4293451309204102
0.4460506439208984,0.4293451309204102
0.4442813873291016,0.4296558380126953
0.4442813873291016,0.4296558380126953
0.4457788467407227,0.4297737121582031
0.4457788467407227,0.4297737121582031
0.4471961975097656,0.4354122161865234
0.4471961975097656,0.4354122161865234
0.4447975158691406,0.4333082199096679
0.4447975158691406,0.4333082199096679
0.4501092910766601,0.4368598937988281
0.4501092910766601,0.4368598937988281
0.4484310150146484,0.4375391006469727
0.4484310150146484,0.4375391006469727
0.4498414993286133,0.4377674102783203
0.4498414993286133,0.4377674102783203
0.4512840270996094,0.4432485580444336
0.4512840270996094,0.4432485580444336
0.4488132476806641,0.4408830642700195
0.4488132476806641,0.4408830642700195
0.4540363311767578,0.4442991256713867
0.4540363311767578,0.4442991256713867
0.4520765304565429,0.4444061279296875
0.4520765304565429,0.4444061279296875
0.4534297943115234,0.4446121215820312
0.4534297943115234,0.4446121215820312
0.4545381546020508,0.4497722625732422
0.4545381546020508,0.4497722625732422
0.4522464752197266,0.4471698760986328
0.4522464752197266,0.4471698760986328
0.4570295333862304,0.4503576278686523
0.4570295333862304,0.4503576278686523
0.4550050735473632,0.4502655029296875
0.4550050735473632,0.4502655029296875
0.4564716339111328,0.4505498886108398
0.4564716339111328,0.4505498886108398
0.4574615478515625,0.4554771423339843
0.4575159072875976,0.4554771423339843
0.4551057815551758,0.4526968002319336
0.4551057815551758,0.4526968002319336
0.4596851348876953,0.4553220748901367
0.4596851348876953,0.4553220748901367
0.4571382522583007,0.4534400939941406
0.4571382522583007,0.4534400939941406
0.4569511413574219,0.4503570556640625
0.4569511413574219,0.4503570556640625
0.4547006607055664,0.4491605758666992
0.4547006607055664,0.4491605758666992
0.4479057312011719,0.4373033523559570
0.4479057312011719,0.4373033523559570
0.4467258453369141,0.4296684265136719
0.4467258453369141,0.4296684265136719
0.4394422531127929,0.4203311920166016
0.4394422531127929,0.4203311920166016
0.4368421554565430,0.4142229080200195
0.4368421554565430,0.4142229080200195
0.4350259780883789,0.4142217636108398
0.4350259780883789,0.4142217636108398
0.4307167053222656,0.4081443786621093
0.4307167053222656,0.4081443786621093
0.4340291976928711,0.4088830947875977
0.4340291976928711,0.4088830947875977
0.4310989379882812,0.4069902420043945
0.4310989379882812,0.4069902420043945
0.4321998596191406,0.4064128875732422
0.4321998596191406,0.4064128875732422
0.4326049804687500,0.4104280471801758
0.4326049804687500,0.4104280471801758
0.4301799774169922,0.4072214126586914
0.4301799774169922,0.4072214126586914
0.4348228454589844,0.4102415084838867
0.4348228454589844,0.4102415084838867
0.4328367233276367,0.4098260879516601
0.4328367233276367,0.4098260879516601
0.4344377517700195,0.4102975845336914
0.4344377517700195,0.4102975845336914
0.4354534149169922,0.4154565811157226
0.4354534149169922,0.4154565811157226
0.4336509704589844,0.4136438369750977
0.4336509704589844,0.4136438369750977
0.4390056610107422,0.4179256439208984
0.4390056610107422,0.4179256439208984
0.4377679824829102,0.4189727783203125
0.4377679824829102,0.4189727783203125
0.4401540756225586,0.4205497741699218
0.4401540756225586,0.4205497741699218
0.4413419723510742,0.4262598037719726
0.4413419723510742,0.4262598037719726
0.4396974563598633,0.4244316101074219
0.4396974563598633,0.4244316101074219
0.4447156906127930,0.4277938842773437
0.4447156906127930,0.4277938842773437
0.4427827835083007,0.4272039413452148
0.4427827835083007,0.4272039413452148
0.4439065933227539,0.4267015457153320
0.4439065933227539,0.4267015457153320
0.4443042755126953,0.4306526184082031
0.4443042755126953,0.4306526184082031
0.4414129257202148,0.4267501831054688
0.4414129257202148,0.4267501831054688
0.4457782745361328,0.4288009643554687
0.4457782745361328,0.4288009643554687
0.4432777404785156,0.4274745941162109
0.4432777404785156,0.4274745941162109
0.4442064285278320,0.4267107009887695
0.4442064285278320,0.4267107009887695
0.4447105407714844,0.4308242797851562
0.4447105407714844,0.4308242797851562
0.4420995712280273,0.4276393890380859
0.4420995712280273,0.4276393890380859
0.4467807769775390,0.4305204391479492
0.4467807769775390,0.4305204391479492
0.4448295593261719,0.4303499221801758
0.4448295593261719,0.4303499221801758
0.4462160110473632,0.4307006835937500
0.4462160110473632,0.4307006835937500
0.4476482391357422,0.4360044479370117
0.4476482391357422,0.4360044479370117
0.4453823089599609,0.4340206146240234
0.4453823089599609,0.4340206146240234
0.4506465911865234,0.4378578186035156
0.4506465911865234,0.4378578186035156
0.4490272521972656,0.4384632110595703
0.4490272521972656,0.4384632110595703
0.4507547378540039,0.4391372680664062
0.4507547378540039,0.4391372680664062
0.4521297454833984,0.4447786331176758
0.4521297454833984,0.4447786331176758
0.4498678207397461,0.4426935195922851
0.4498678207397461,0.4426935195922851
0.4551155090332031,0.4463087081909179
0.4551155090332031,0.4463087081909179
0.4534910202026367,0.4467676162719726
0.4534910202026367,0.4467676162719726
0.4548723220825195,0.4470972061157226
0.4548723220825195,0.4470972061157226
0.4563423156738281,0.4525663375854492
0.4563423156738281,0.4525663375854492
0.4539854049682617,0.4501590728759766
0.4539854049682617,0.4501590728759766
0.4591272354125976,0.4535127639770508
0.4591272354125976,0.4535127639770508
0.4572526931762695,0.4536844253540039
0.4572526931762695,0.4536844253540039
0.4587146759033203,0.4537616729736328
0.4587146759033203,0.4537616729736328
0.4599037170410156,0.4588977813720703
0.4599037170410156,0.4588977813720703
0.4574512481689453,0.4563709259033203
0.4574512481689453,0.4563709259033203
0.4623762130737304,0.4593984603881835
0.4623762130737304,0.4593984603881835
0.4605623245239258,0.4594596862792968
0.4605623245239258,0.4594596862792968
0.4618446350097656,0.4593034744262695
0.4618446350097656,0.4593034744262695
0.4629495620727539,0.4639486312866211
0.4629495620727539,0.4639486312866211
0.4600067138671875,0.4604639053344726
0.4600067138671875,0.4604639053344726
0.4640842437744140,0.4616369247436523
0.4640842437744140,0.4616369247436523
0.4604530334472656,0.4579954147338867
0.4604530334472656,0.4579954147338867
0.4586820602416992,0.4519517898559570
0.4586820602416992,0.4519517898559570
0.4553323745727539,0.4481609344482422
0.4553323745727539,0.4481609344482422
0.4470869064331054,0.4348062515258789
0.4470869064331054,0.4348062515258789
0.4461685180664062,0.4275804519653320
0.4461685180664062,0.4275804519653320
0.4397884368896484,0.4200176239013672
0.4397884368896484,0.4200176239013672
0.4378961563110351,0.4149318695068359
0.4378961563110351,0.4149318695068359
0.4369726181030273,0.4164928436279297
0.4369726181030273,0.4164928436279297
0.4331302642822266,0.4115032196044922
0.4331302642822266,0.4115032196044922
0.4371454238891602,0.4130533218383789
0.4371454238891602,0.4130533218383789
0.4347742080688476,0.4122133255004883
0.4347742080688476,0.4122133255004883
0.4358522415161133,0.4117973327636719
0.4358522415161133,0.4117973327636719
0.4368936538696289,0.4167360305786132
0.4368936538696289,0.4167360305786132
0.4345201492309570,0.4143791198730469
0.4345201492309570,0.4143791198730469
0.4398702621459961,0.4182277679443359
0.4398702621459961,0.4182277679443359
0.4387121200561523,0.4195272445678711
0.4387121200561523,0.4195272445678711
0.4407857894897461,0.4213394165039062
0.4407857894897461,0.4213394165039062
0.4433320999145507,0.4288249969482422
0.4433320999145507,0.4288249969482422
0.4422397613525391,0.4289628982543945
0.4422397613525391,0.4289628982543945
0.4486381530761719,0.4348016738891601
0.4486381530761719,0.4348016738891601
0.4481895446777344,0.4372884750366211
0.4481895446777344,0.4372884750366211
0.4505882263183594,0.4391756057739258
0.4505882263183594,0.4391756057739258
0.4524576187133789,0.4453033447265625
0.4524576187133789,0.4453033447265625
0.4503089904785156,0.4431106567382813
0.4503089904785156,0.4431106567382813
0.4551446914672851,0.4460248947143555
0.4551446914672851,0.4460248947143555
0.4529777526855469,0.4453594207763672
0.4529777526855469,0.4453594207763672
0.4536821365356445,0.4441526412963867
0.4536821365356445,0.4441526412963867
0.4541456222534179,0.4479755401611328
0.4541456222534179,0.4479755401611328
0.4507364273071289,0.4440078735351562
0.4507364273071289,0.4440078735351562
0.4549507141113281,0.4456380844116211
0.4549507141113281,0.4456380844116211
0.4522413253784179,0.4442750930786133
0.4522413253784179,0.4442750930786133
0.4507215499877930,0.4446378707885742
0.4507215499877930,0.4446378707885742
0.4497648239135742,0.4449548721313477
0.4503118515014648,0.4449548721313477
0.4515523910522461,0.4468814849853516
0.4515523910522461,0.4468814849853516
0.4518110275268554,0.4436880111694336
0.4518110275268554,0.4436880111694336
0.4554737091064453,0.4483074188232422
0.4554737091064453,0.4483074188232422
0.4518596649169921,0.4473323822021484
0.4518596649169921,0.4473323822021484
0.4551109313964843,0.4484121322631836
0.4551109313964843,0.4484121322631836
0.4535293579101562,0.4508697509765625
0.4535293579101562,0.4508697509765625
0.4540620803833008,0.4481695175170898
0.4549833297729492,0.4481695175170898
0.4579233169555664,0.4530509948730468
0.4579233169555664,0.4530509948730468
0.4542989730834961,0.4519363403320312
0.4542989730834961,0.4519363403320312
0.4576034545898438,0.4529056549072266
0.4576034545898438,0.4529056549072266
0.4559120178222656,0.4551046371459961
0.4559120178222656,0.4551046371459961
0.4562822341918945,0.4520015716552734
0.4562822341918945,0.4520015716552734
0.4598939895629883,0.4564956665039062
0.4598939895629883,0.4564956665039062
0.4561695098876953,0.4551841735839843
0.4561695098876953,0.4551841735839843
0.4593870162963867,0.4560905456542969
0.4593870162963867,0.4560905456542969
0.4575119018554688,0.4581962585449219
0.4575119018554688,0.4581962585449219
0.4579135894775390,0.4551275253295898
0.4579135894775390,0.4551275253295898
0.4616672515869140,0.4598236083984375
0.4616672515869140,0.4598236083984375
0.4580148696899414,0.4585870742797851
0.4580148696899414,0.4585870742797851
0.4612804412841797,0.4596920013427734
0.4612804412841797,0.4596920013427734
0.4595798492431640,0.4618474960327148
0.4595798492431640,0.4618474960327148
0.4600839614868164,0.4589492797851562
0.4600839614868164,0.4589492797851562
0.4637540817260742,0.4637357711791992
0.4637540817260742,0.4637357711791992
0.4602132797241211,0.4624660491943359
0.4602132797241211,0.4624660491943359
0.4634582519531250,0.4635469436645507
0.4634582519531250,0.4635469436645507
0.4615905761718750,0.4653551101684570
0.4615905761718750,0.4653551101684570
0.4614875793457031,0.4611568450927734
0.4614875793457031,0.4611568450927734
0.4641094207763672,0.4634056091308594
0.4641094207763672,0.4634056091308594
0.4579462051391601,0.4572647094726562
0.4579462051391601,0.4572647094726562
0.4572452545166015,0.4503152847290039
0.4572452545166015,0.4503152847290039
0.4499227523803711,0.4420858383178711
0.4499227523803711,0.4420858383178711
0.4443397521972656,0.4283185958862304
0.4443397521972656,0.4283185958862304
0.4433778762817382,0.4251159667968750
0.4433778762817382,0.4251159667968750
0.4362916946411133,0.4185441970825195
0.4362916946411133,0.4185441970825195
0.4374063491821289,0.4158153533935547
0.4374063491821289,0.4158153533935547
0.4342185974121094,0.4156517028808593
0.4342185974121094,0.4156517028808593
0.4335737228393555,0.4111616134643555
0.4335737228393555,0.4111616134643555
0.4370035171508789,0.4150709152221679
0.4370035171508789,0.4150709152221679
0.4329889297485351,0.4135763168334961
0.4329889297485351,0.4135763168334961
0.4363237380981445,0.4144826889038086
0.4363237380981445,0.4144826889038086
0.4346677780151367,0.4169511795043945
0.4346677780151367,0.4169511795043945
0.4352313995361328,0.4142515182495117
0.4352313995361328,0.4142515182495117
0.4394027709960938,0.4196079254150391
0.4394027709960938,0.4196079254150391
0.4361143112182617,0.4193298339843750
0.4361143112182617,0.4193298339843750
0.4399864196777344,0.4214693069458008
0.4399864196777344,0.4214693069458008
0.4391841888427734,0.4252624511718750
0.4391841888427734,0.4252624511718750
0.4402833938598633,0.4238033294677734
0.4402833938598633,0.4238033294677734
0.4451156616210937,0.4301004409790039
0.4451156616210937,0.4301004409790039
0.4420509338378906,0.4303607940673828
0.4420509338378906,0.4303607940673828
0.4460042953491211,0.4322410583496094
0.4460042953491211,0.4322410583496094
0.4447019577026367,0.4351507186889648
0.4447019577026367,0.4351507186889648
0.4450910568237305,0.4321655273437500
0.4450910568237305,0.4321655273437500
0.4488567352294922,0.4365114212036132
0.4488567352294922,0.4365114212036132
0.4447923660278320,0.4346265792846680
0.4447923660278320,0.4346265792846680
0.4476745605468750,0.4348640441894531
0.4476745605468750,0.4348640441894531
0.4456300735473633,0.4362705230712891
0.4456300735473633,0.4362705230712891
0.4453994750976563,0.4322954177856445
0.4461147308349609,0.4322954177856445
0.4488761901855469,0.4361343383789062
0.4488761901855469,0.4361343383789062
0.4447849273681641,0.4343273162841797
0.4447849273681641,0.4343273162841797
0.4477781295776367,0.4347547531127929
0.4477781295776367,0.4347547531127929
0.4460580825805664,0.4369697570800781
0.4460580825805664,0.4369697570800781
0.4462629318237304,0.4339885711669922
0.4462629318237304,0.4339885711669922
0.4503730773925781,0.4389776229858398
0.4503730773925781,0.4389776229858398
0.4469192504882812,0.4382984161376953
0.4469192504882812,0.4382984161376953
0.4505258560180664,0.4399778366088867
0.4505258560180664,0.4399778366088867
0.4493597030639648,0.4432823181152344
0.4493597030639648,0.4432823181152344
0.4502225875854492,0.4413511276245117
0.4502225875854492,0.4413511276245117
0.4547830581665039,0.4470462799072266
0.4547830581665039,0.4470462799072266
0.4515878677368164,0.4470983505249023
0.4515878677368164,0.4470983505249023
0.4553209304809570,0.4489385604858399
0.4553209304809570,0.4489385604858399
0.4544397354125976,0.4524061203002929
0.4544397354125976,0.4524061203002929
0.4549398422241211,0.4500234603881836
0.4549398422241211,0.4500234603881836
0.4592393875122070,0.4550874710083008
0.4592393875122070,0.4550874710083008
0.4557352066040039,0.4544775009155273
0.4557352066040039,0.4544775009155273
0.4591163635253906,0.4555858612060547
0.4591163635253906,0.4555858612060547
0.4577144622802734,0.4581481933593750
0.4577144622802734,0.4581481933593750
0.4578392028808593,0.4550720214843750
0.4578392028808593,0.4550720214843750
0.4617851257324219,0.4595546722412109
0.4617851257324219,0.4595546722412109
0.4579610824584961,0.4583089828491211
0.4579610824584961,0.4583089828491211
0.4610773086547851,0.4591323852539062
0.4610773086547851,0.4591323852539062
0.4594196319580078,0.4615087509155273
0.4594196319580078,0.4615087509155273
0.4595455169677734,0.4584526062011718
0.4595455169677734,0.4584526062011718
0.4633255004882812,0.4629335403442383
0.4633255004882812,0.4629335403442383
0.4596044540405273,0.4617782592773437
0.4596044540405273,0.4617782592773437
0.4625856399536132,0.4626405715942383
0.4625856399536132,0.4626405715942383
0.4610624313354492,0.4650009155273437
0.4610624313354492,0.4650009155273437
0.4611660003662109,0.4618469238281250
0.4611660003662109,0.4618469238281250
0.4648675918579102,0.4661779403686523
0.4648675918579102,0.4661779403686523
0.4609045028686523,0.4647085189819335
0.4609045028686523,0.4647085189819335
0.4635749816894531,0.4645820617675781
0.4635749816894531,0.4645820617675781
0.4610887527465820,0.4647686004638671
0.4610887527465820,0.4647686004638671
0.4590700149536133,0.4574174880981445
0.4590700149536133,0.4574174880981445
0.4591953277587890,0.4543939590454101
0.4591953277587890,0.4543939590454101
0.4503650665283203,0.4431638717651367
0.4503650665283203,0.4431638717651367
0.4476121902465820,0.4337625503540039
0.4476121902465820,0.4337625503540039
0.4415393829345703,0.4283466339111328
0.4415393829345703,0.4283466339111328
0.4385622024536133,0.4201234817504882
0.4385622024536133,0.4201234817504882
0.4402130126953125,0.4208478927612305
0.4402130126953125,0.4208478927612305
0.4350957870483398,0.4173437118530273
0.4350957870483398,0.4173437118530273
0.4373823165893554,0.4168516159057617
0.4373823165893554,0.4168516159057617
0.4355117797851563,0.4185853958129883
0.4355117797851563,0.4185853958129883
0.4356233596801758,0.4152912139892578
0.4356233596801758,0.4152912139892578
0.4395566940307617,0.4199071884155273
0.4395566940307617,0.4199071884155273
0.4360439300537109,0.4191942214965820
0.4360439300537109,0.4191942214965820
0.4394571304321289,0.4205789566040039
0.4394571304321289,0.4205789566040039
0.4385124206542969,0.4238828659057617
0.4385124206542969,0.4238828659057617
0.4392797470092774,0.4220872879028320
0.4392797470092774,0.4220872879028320
0.4439655303955078,0.4281166076660156
0.4439655303955078,0.4281166076660156
0.4413282394409180,0.4290435791015625
0.4413282394409180,0.4290435791015625
0.4456638336181640,0.4320699691772461
0.4456638336181640,0.4320699691772461
0.4454275131225586,0.4367151260375977
0.4454275131225586,0.4367151260375977
0.4467292785644531,0.4357807159423828
0.4467292785644531,0.4357807159423828
0.4515832901000976,0.4418941497802734
0.4515832901000976,0.4418941497802734
0.4484733581542968,0.4419233322143555
0.4484733581542968,0.4419233322143555
0.4519872665405273,0.4432216644287109
0.4519872665405273,0.4432216644287109
0.4505521774291992,0.4456632614135742
0.4505521774291992,0.4456632614135742
0.4506855010986328,0.4422838211059570
0.4506855010986328,0.4422838211059570
0.4541524887084961,0.4459281921386719
0.4541524887084961,0.4459281921386719
0.4500486373901367,0.4440290451049805
0.4500486373901367,0.4440290451049805
0.4526727676391601,0.4439140319824219
0.4526727676391601,0.4439140319824219
0.4508537292480468,0.4455442428588867
0.4508537292480468,0.4455442428588867
0.4504503250122070,0.4416378021240234
0.4504503250122070,0.4416378021240234
0.4540014266967773,0.4454446792602539
0.4540014266967773,0.4454446792602539
0.4498804092407226,0.4438539505004883
0.4498804092407226,0.4438539505004883
0.4527465820312500,0.4444084167480469
0.4527465820312500,0.4444084167480469
0.4511890411376953,0.4467567443847656
0.4511890411376953,0.4467567443847656
0.4512691497802734,0.4437503814697266
0.4512691497802734,0.4437503814697266
0.4551618576049805,0.4483606338500977
0.4551618576049805,0.4483606338500977
0.4515758514404297,0.4474977493286132
0.4515758514404297,0.4474977493286132
0.4547561645507812,0.4486896514892578
0.4547561645507812,0.4486896514892578
0.4534440994262695,0.4514831542968750
0.4534440994262695,0.4514831542968750
0.4536214828491211,0.4486679077148437
0.4536214828491211,0.4486679077148437
0.4576795578002930,0.4534320831298828
0.4576795578002930,0.4534320831298828
0.4541021347045898,0.4525646209716797
0.4541021347045898,0.4525646209716797
0.4572601318359375,0.4538022994995117
0.4572601318359375,0.4538022994995117
0.4559892654418945,0.4564023971557617
0.4559892654418945,0.4564023971557617
0.4561460494995117,0.4534870147705078
0.4561460494995117,0.4534870147705078
0.4600570678710937,0.4581951141357422
0.4600570678710937,0.4581951141357422
0.4565277099609375,0.4571268081665039
0.4565277099609375,0.4571268081665039
0.4596639633178711,0.4581939697265625
0.4596639633178711,0.4581939697265625
0.4582317352294922,0.4606452941894531
0.4582317352294922,0.4606452941894531
0.4583873748779297,0.4576475143432617
0.4583873748779297,0.4576475143432617
0.4623287200927734,0.4623458862304687
0.4623287200927734,0.4623458862304687
0.4586563110351562,0.4612838745117187
0.4586563110351562,0.4612838745117187
0.4618869781494140,0.4624546051025391
0.4618869781494140,0.4624546051025391
0.4605789184570312,0.4653053283691406
0.4605789184570312,0.4653053283691406
0.4610944747924804,0.4628145217895507
0.4610944747924804,0.4628145217895507
0.4651142120361328,0.4676839828491210
0.4651142120361328,0.4676839828491210
0.4615985870361328,0.4668766021728515
0.4658437728881836,0.4668766021728515
0.4649631500244140,0.4681932449340820
0.4615121841430664,0.4681932449340820
0.4637357711791992,0.4710330963134766
0.4637357711791992,0.4710330963134766
0.4638593673706055,0.4681085586547851
0.4638593673706055,0.4681085586547851
0.4678333282470703,0.4726696014404297
0.4678333282470703,0.4726696014404297
0.4639566421508789,0.4708042144775391
0.4639566421508789,0.4708042144775391
0.4662883758544922,0.4702400207519531
0.4662883758544922,0.4702400207519531
0.4633832931518554,0.4694360733032226
0.4633832931518554,0.4694360733032226
0.4604581832885742,0.4601240158081055
0.4604581832885742,0.4601240158081055
0.4597949981689453,0.4554571151733398
0.4597949981689453,0.4554571151733398
0.4504360198974609,0.4436977386474609
0.4504360198974609,0.4436977386474609
0.4482673645019531,0.4355833053588867
0.4482673645019531,0.4355833053588867
0.4431552886962891,0.4318965911865234
0.4431552886962891,0.4318965911865234
0.4408155441284179,0.4246055603027344
0.4408155441284179,0.4246055603027344
0.4430969238281250,0.4263799667358398
0.4430969238281250,0.4263799667358398
0.4384820938110351,0.4235715866088867
0.4384820938110351,0.4235715866088867
0.4410364151000977,0.4236665725708008
0.4410364151000977,0.4236665725708008
0.4396814346313476,0.4261167526245117
0.4396814346313476,0.4261167526245117
0.4398616790771484,0.4232711791992188
0.4398616790771484,0.4232711791992188
0.4440982818603516,0.4284250259399414
0.4440982818603516,0.4284250259399414
0.4410776138305664,0.4283311843872070
0.4410776138305664,0.4283311843872070
0.4450349807739258,0.4309032440185547
0.4450349807739258,0.4309032440185547
0.4447774887084961,0.4356737136840820
0.4447774887084961,0.4356737136840820
0.4462640762329101,0.4352909088134765
0.4462640762329101,0.4352909088134765
0.4517498016357422,0.4427753448486328
0.4517498016357422,0.4427753448486328
0.4497631072998047,0.4449451446533203
0.4497631072998047,0.4449451446533203
0.4545358657836914,0.4489425659179687
0.4545358657836914,0.4489425659179687
0.4546548843383789,0.4541501998901367
0.4546548843383789,0.4541501998901367
0.4558971405029297,0.4531070709228515
0.4558971405029297,0.4531070709228515
0.4605394363403320,0.4587415695190429
0.4605394363403320,0.4587415695190429
0.4572601318359375,0.4580657958984375
0.4572601318359375,0.4580657958984375
0.4602138519287109,0.4590717315673828
0.4602138519287109,0.4590717315673828
0.4586677551269531,0.4609634399414062
0.4586677551269531,0.4609634399414062
0.4583444595336914,0.4570798873901367
0.4583444595336914,0.4570798873901367
0.4615676879882812,0.4603849411010742
0.4615676879882812,0.4603849411010742
0.4572738647460937,0.4580314636230469
0.4572738647460937,0.4580314636230469
0.4595529556274414,0.4575994491577148
0.4595529556274414,0.4575994491577148
0.4573751449584961,0.4586511611938476
0.4573751449584961,0.4586511611938476
0.4567565917968750,0.4543996810913086
0.4567565917968750,0.4543996810913086
0.4600410461425781,0.4578678131103515
0.4600410461425781,0.4578678131103515
0.4560699462890625,0.4559188842773437
0.4560699462890625,0.4559188842773437
0.4586053848266601,0.4562747955322266
0.4586053848266601,0.4562747955322266
0.4569894790649414,0.4583971023559570
0.4601320266723632,0.4583971023559570
0.4570392608642578,0.4551910400390625
0.4570392608642578,0.4551910400390625
0.4607717514038085,0.4595506668090820
0.4607717514038085,0.4595506668090820
0.4571668624877929,0.4584829330444335
0.4571668624877929,0.4584829330444335
0.4603757858276367,0.4597789764404296
0.4603757858276367,0.4597789764404296
0.4622966766357421,0.4619459152221679
0.4593635559082031,0.4597892761230469
0.4593635559082031,0.4600719451904297
0.4616437911987304,0.4621570587158203
0.4616437911987304,0.4621570587158203
0.4633804321289062,0.4656858444213867
0.4633804321289062,0.4656858444213867
0.4655685424804688,0.4686527252197266
0.4655685424804688,0.4670591354370117
0.4626216888427734,0.4662151336669922
0.4626216888427734,0.4662151336669922
0.4668600082397460,0.4709564208984375
0.4668600082397460,0.4709564208984375
0.4634771347045898,0.4701313018798828
0.4634771347045898,0.4701313018798828
0.4667387008666992,0.4714673995971679
0.4667387008666992,0.4714673995971679
0.4656206130981445,0.4743421554565430
0.4656206130981445,0.4743421554565430
0.4659427642822265,0.4716962814331054
0.4659427642822265,0.4716962814331054
0.4700111389160156,0.4762882232666015
0.4700111389160156,0.4762882232666015
0.4666013717651367,0.4754213333129882
0.4666013717651367,0.4754213333129882
0.4697204589843750,0.4765743255615234
0.4697204589843750,0.4765743255615234
0.4685731887817383,0.4792156219482422
0.4685731887817383,0.4792156219482422
0.4686275482177734,0.4763488769531250
0.4686275482177734,0.4763488769531250
0.4725036621093750,0.4806930541992187
0.4725036621093750,0.4806930541992187
0.4688518524169922,0.4793804168701172
0.4729843139648438,0.4793804168701172
0.4718885421752930,0.4803354263305664
0.4718885421752930,0.4803354263305664
0.4703916549682617,0.4826665878295898
0.4703916549682617,0.4826665878295898
0.4703899383544922,0.4792482376098632
0.4703899383544922,0.4792482376098632
0.4736629486083984,0.4823907852172851
0.4736629486083984,0.4823907852172851
0.4689542770385742,0.4786949157714844
0.4689542770385742,0.4786949157714844
0.4698320388793945,0.4750843048095703
0.4698320388793945,0.4750843048095703
0.4647720336914062,0.4705398559570312
0.4647720336914062,0.4705398559570312
0.4599420547485351,0.4580274581909179
0.4599420547485351,0.4580274581909179
0.4581058502197266,0.4521102905273438
0.4581058502197266,0.4521102905273438
0.4493642807006836,0.4418020248413086
0.4493642807006836,0.4418020248413086
0.4488601684570312,0.4368993759155274
0.4488601684570312,0.4368993759155274
0.4451150894165039,0.4356250762939453
0.4451150894165039,0.4356250762939453
0.4438087463378906,0.4302417755126953
0.4438087463378906,0.4302417755126953
0.4468900680541992,0.4333957672119140
0.4468900680541992,0.4333957672119140
0.4428068161010742,0.4315372467041015
0.4428068161010742,0.4315372467041015
0.4458915710449219,0.4326049804687500
0.4458915710449219,0.4326049804687500
0.4446458816528320,0.4355340957641601
0.4446458816528320,0.4355340957641601
0.4451774597167968,0.4333969116210937
0.4451774597167968,0.4333969116210937
0.4496515274047851,0.4389930725097656
0.4496515274047851,0.4389930725097656
0.4466966629028320,0.4392963409423828
0.4466966629028320,0.4392963409423828
0.4507793426513672,0.4423021316528320
0.4507793426513672,0.4423021316528320
0.4506563186645507,0.4473678588867188
0.4506563186645507,0.4473678588867188
0.4521017074584961,0.4470176696777344
0.4521017074584961,0.4470176696777344
0.4574478149414062,0.4542079925537109
0.4574478149414062,0.4542079925537109
0.4551607131958008,0.4553209304809570
0.4551607131958008,0.4553209304809570
0.4592840194702148,0.4583433151245117
0.4592840194702148,0.4583433151245117
0.4587301254272461,0.4622714996337891
0.4587301254272461,0.4622714996337891
0.4592245101928711,0.4597967147827148
0.4592245101928711,0.4597967147827148
0.4631252288818359,0.4642255783081055
0.4631252288818359,0.4642255783081055
0.4593343734741211,0.4623069763183594
0.4593343734741211,0.4623069763183594
0.4619115829467773,0.4625261306762695
0.4619115829467773,0.4625261306762695
0.4601577758789062,0.4641139984130859
0.4601577758789062,0.4641139984130859
0.4595912933349609,0.4599723815917969
0.4595912933349609,0.4599723815917969
0.4628219604492188,0.4630010604858398
0.4628219604492188,0.4630010604858398
0.4586814880371093,0.4606086730957031
0.4586814880371093,0.4606086730957031
0.4612066268920898,0.4607202529907226
0.4612066268920898,0.4607202529907226
0.4594797134399414,0.4626188278198242
0.4594797134399414,0.4626188278198242
0.4592370986938477,0.4590631484985351
0.4592370986938477,0.4590631484985351
0.4629444122314453,0.4630834579467773
0.4629444122314453,0.4630834579467773
0.4591936111450195,0.4616220474243164
0.4591936111450195,0.4616220474243164
0.4622571945190430,0.4629673004150390
0.4622571945190430,0.4629673004150390
0.4611265182495117,0.4658769607543945
0.4611265182495117,0.4658769607543945
0.4615476608276367,0.4636590957641601
0.4615476608276367,0.4636590957641601
0.4657665252685547,0.4686676025390625
0.4657665252685547,0.4686676025390625
0.4626543045043945,0.4682149887084961
0.4626543045043945,0.4682149887084961
0.4661607742309570,0.4702966690063476
0.4661607742309570,0.4702966690063476
0.4653757095336914,0.4738208770751953
0.4653757095336914,0.4738208770751953
0.4658815383911132,0.4716224670410156
0.4658815383911132,0.4716224670410156
0.4700895309448242,0.4764982223510742
0.4700895309448242,0.4764982223510742
0.4668222427368164,0.4757211685180664
0.4668222427368164,0.4757211685180664
0.4699871063232421,0.4770309448242187
0.4699871063232421,0.4770309448242187
0.4688838958740234,0.4799503326416015
0.4688838958740234,0.4799503326416015
0.4689456939697265,0.4771305084228515
0.4689456939697265,0.4771305084228515
0.4729797363281250,0.4814844131469727
0.4729797363281250,0.4814844131469727
0.4694023132324219,0.4802341461181641
0.4694023132324219,0.4802341461181641
0.4723903656005859,0.4813362121582031
0.4723903656005859,0.4813362121582031
0.4712837219238281,0.4841411590576172
0.4712837219238281,0.4841411590576172
0.4712419509887695,0.4811365127563476
0.4712419509887695,0.4811365127563476
0.4750762939453125,0.4855001449584961
0.4750762939453125,0.4855001449584961
0.4715875625610351,0.4842590332031250
0.4715875625610351,0.4842590332031250
0.4745452880859375,0.4852781295776367
0.4745452880859375,0.4852781295776367
0.4733316421508789,0.4881105422973633
0.4733316421508789,0.4881105422973633
0.4732320785522461,0.4851150512695312
0.4732320785522461,0.4851150512695312
0.4771745681762695,0.4892761230468750
0.4771745681762695,0.4892761230468750
0.4734649658203125,0.4878204345703125
0.4734649658203125,0.4878204345703125
0.4761360168457031,0.4881099700927734
0.4761360168457031,0.4881099700927734
0.4743312835693359,0.4895204544067382
0.4743312835693359,0.4895204544067382
0.4728567123413085,0.4835718154907226
0.4728567123413085,0.4835718154907226
0.4742294311523437,0.4825681686401367
0.4742294311523437,0.4825681686401367
0.4665246963500976,0.4733865737915039
0.4665246963500976,0.4733865737915039
0.4643646240234375,0.4644338607788085
0.4643646240234375,0.4644338607788085
0.4575811386108398,0.4568212509155273
0.4575811386108398,0.4568212509155273
0.4524793624877930,0.4450727462768554
0.4524793624877930,0.4450727462768554
0.4528318405151367,0.4435781478881836
0.4528318405151367,0.4435781478881836
0.4472150802612305,0.4388660430908203
0.4472150802612305,0.4388660430908203
0.4488721847534179,0.4377748489379883
0.4488721847534179,0.4377748489379883
0.4470628738403320,0.4395280838012695
0.4470628738403320,0.4395280838012695
0.4467767715454101,0.4363168716430664
0.4467767715454101,0.4363168716430664
0.4507381439208984,0.4406587600708008
0.4507381439208984,0.4406587600708008
0.4475446701049804,0.4401266098022461
0.4475446701049804,0.4401266098022461
0.4510934829711914,0.4423501968383789
0.4510934829711914,0.4423501968383789
0.4507936477661132,0.4469215393066406
0.4507936477661132,0.4469215393066406
0.4518276214599609,0.4461713790893554
0.4518276214599609,0.4461713790893554
0.4570787429809570,0.4529708862304687
0.4570787429809570,0.4529708862304687
0.4588462829589843,0.4604576110839844
0.4588462829589843,0.4604576110839844
0.4588462829589843,0.4595615386962890
0.4576412200927734,0.4600925445556641
0.4576412200927734,0.4600925445556641
0.4637924194335937,0.4650707244873047
0.4637924194335937,0.4650707244873047
0.4634548187255859,0.4678247451782226
0.4634548187255859,0.4678247451782226
0.4650192260742188,0.4681961059570312
0.4650192260742188,0.4681961059570312
0.4667781829833984,0.4736680984497070
0.4667781829833984,0.4736680984497070
0.4639984130859375,0.4712488174438476
0.4639984130859375,0.4712488174438476
0.4685771942138672,0.4731273651123047
0.4685771942138672,0.4731273651123047
0.4666843414306641,0.4729923248291015
0.4666843414306641,0.4729923248291015
0.4668828964233398,0.4711097717285156
0.4668828964233398,0.4711097717285156
0.4678304672241211,0.4750808715820312
0.4678304672241211,0.4750808715820312
0.4643720626831054,0.4716281890869141
0.4643720626831054,0.4716281890869141
0.4685852050781250,0.4729831695556641
0.4685852050781250,0.4729831695556641
0.4665647506713867,0.4726758956909179
0.4665647506713867,0.4726758956909179
0.4667707443237304,0.4710010528564453
0.4667707443237304,0.4710010528564453
0.4679306030273437,0.4753984451293945
0.4679306030273437,0.4753984451293945
0.4648241043090820,0.4727239608764648
0.4648241043090820,0.4727239608764648
0.4695299148559570,0.4747781753540039
0.4677938461303711,0.4752016067504883
0.4677938461303711,0.4752016067504883
0.4685365676879882,0.4745721817016602
0.4685365676879882,0.4745721817016602
0.4700225830078125,0.4796756744384765
0.4700225830078125,0.4796756744384765
0.4674293518066406,0.4774663925170898
0.4674293518066406,0.4774663925170898
0.4721031188964844,0.4800104141235351
0.4721031188964844,0.4800104141235351
0.4707075119018554,0.4807857513427734
0.4707075119018554,0.4807857513427734
0.4715011596679687,0.4800745010375976
0.4715011596679687,0.4800745010375976
0.4729814529418945,0.4851413726806640
0.4729814529418945,0.4851413726806640
0.4701639175415039,0.4827209472656250
0.4701639175415039,0.4827209472656250
0.4748908996582031,0.4851488113403320
0.4748908996582031,0.4851488113403320
0.4733917236328125,0.4855699539184570
0.4733917236328125,0.4855699539184570
0.4741149902343750,0.4847671508789062
0.4741149902343750,0.4847671508789062
0.4754671096801757,0.4894729614257812
0.4754671096801757,0.4894729614257812
0.4726083755493164,0.4870594024658203
0.4726083755493164,0.4870594024658203
0.4771997451782226,0.4892738342285156
0.4771997451782226,0.4892738342285156
0.4757177352905273,0.4898323059082031
0.4757177352905273,0.4898323059082031
0.4762802124023438,0.4887142181396484
0.4762802124023438,0.4887142181396484
0.4777038574218750,0.4935779571533203
0.4777038574218750,0.4935779571533203
0.4747478485107421,0.4910659790039062
0.4747478485107421,0.4910659790039062
0.4793924331665039,0.4932552337646484
0.4793924331665039,0.4932552337646484
0.4776844024658203,0.4935705184936523
0.4776844024658203,0.4935705184936523
0.4782114028930664,0.4924884796142578
0.4782114028930664,0.4924884796142578
0.4795206069946289,0.4971456527709961
0.4795206069946289,0.4971456527709961
0.4765651702880859,0.4942577362060547
0.4765651702880859,0.4942577362060547
0.4807594299316406,0.4957117080688476
0.4807594299316406,0.4957117080688476
0.4785261154174805,0.4947498321533203
0.4785261154174805,0.4947498321533203
0.4777112960815429,0.4908067703247070
0.4777112960815429,0.4908067703247070
0.4764570236206054,0.4903003692626953
0.4764570236206054,0.4903003692626953
0.4695110321044922,0.4798593521118164
0.4695110321044922,0.4798593521118164
0.4688467025756836,0.4719388961791992
0.4688467025756836,0.4719388961791992
0.4614274978637695,0.4614738464355468
0.4614274978637695,0.4614738464355468
0.4564430236816406,0.4505012512207031
0.4564430236816406,0.4505012512207031
0.4537067413330078,0.4484315872192383
0.4537067413330078,0.4484315872192383
0.4483531951904297,0.4418357849121093
0.4483531951904297,0.4418357849121093
0.4515426635742187,0.4416790008544922
0.4515426635742187,0.4416790008544922
0.4493299484252929,0.4410135269165039
0.4493299484252929,0.4410135269165039
0.4495307922363281,0.4396842956542968
0.4495307922363281,0.4396842956542968
0.4511249542236328,0.4448192596435547
0.4511249542236328,0.4448192596435547
0.4485992431640625,0.4431867599487305
0.4485992431640625,0.4431867599487305
0.4538824081420898,0.4466594696044922
0.4538824081420898,0.4466594696044922
0.4533159255981445,0.4491634368896484
0.4533159255981445,0.4491634368896484
0.4550331115722656,0.4504995346069336
0.4550331115722656,0.4504995346069336
0.4579605102539062,0.4581253051757812
0.4579605102539062,0.4581253051757812
0.4566335678100586,0.4588462829589843
0.4566335678100586,0.4588462829589843
0.4628505706787109,0.4642026901245117
0.4628505706787109,0.4642026901245117
0.4629037857055664,0.4677160263061523
0.4629037857055664,0.4677160263061523
0.4649585723876953,0.4691745758056640
0.4649585723876953,0.4691745758056640
0.4673921585083007,0.4756135940551758
0.4673921585083007,0.4756135940551758
0.4650735855102539,0.4742265701293945
0.4650735855102539,0.4742265701293945
0.4699499130249023,0.4766899108886719
0.4661584854125976,0.4766899108886719
0.4683671951293945,0.4770263671875000
0.4683671951293945,0.4770263671875000
0.4687368392944335,0.4754550933837891
0.4687368392944335,0.4754550933837891
0.4695945739746094,0.4793437957763672
0.4684043884277344,0.4793437957763672
0.4661579132080078,0.4758504867553711
0.4661579132080078,0.4758504867553711
0.4701490402221680,0.4768255233764648
0.4701490402221680,0.4768255233764648
0.4680364608764648,0.4762853622436523
0.4680364608764648,0.4762853622436523
0.4679878234863281,0.4740749359130859
0.4679878234863281,0.4740749359130859
0.4688301086425781,0.4780168533325195
0.4688301086425781,0.4780168533325195
0.4654060363769531,0.4747575759887695
0.4654060363769531,0.4747575759887695
0.4698074340820312,0.4763362884521484
0.4698074340820312,0.4763362884521484
0.4679031372070312,0.4764295578002929
0.4679031372070312,0.4764295578002929
0.4684101104736328,0.4751787185668945
0.4684101104736328,0.4751787185668945
0.4697027206420898,0.4800470352172851
0.4697027206420898,0.4800470352172851
0.4667781829833984,0.4776620864868164
0.4667781829833984,0.4776620864868164
0.4715108871459961,0.4799457550048828
0.4715108871459961,0.4799457550048828
0.4700065612792969,0.4807428359985351
0.4700065612792969,0.4807428359985351
0.4708803176879883,0.4800109863281250
0.4708803176879883,0.4800109863281250
0.4724155426025390,0.4851224899291992
0.4724155426025390,0.4851224899291992
0.4695716857910156,0.4827346801757812
0.4695716857910156,0.4827346801757812
0.4743495941162109,0.4851814270019531
0.4743495941162109,0.4851814270019531
0.4726993560791015,0.4857719421386719
0.4726993560791015,0.4857719421386719
0.4734283447265625,0.4846944808959961
0.4734283447265625,0.4846944808959961
0.4747272491455078,0.4894437789916992
0.4747272491455078,0.4894437789916992
0.4716922760009765,0.4868293762207031
0.4716922760009765,0.4868293762207031
0.4762922286987304,0.4889287948608398
0.4762922286987304,0.4889287948608398
0.4747203826904297,0.4893156051635742
0.4747203826904297,0.4893156051635742
0.4751913070678710,0.4880607604980469
0.4751913070678710,0.4880607604980469
0.4765365600585937,0.4929634094238281
0.4765365600585937,0.4929634094238281
0.4735874176025390,0.4903804779052734
0.4735874176025390,0.4903804779052734
0.4782262802124023,0.4925010681152344
0.4782262802124023,0.4925010681152344
0.4765171051025390,0.4928850173950195
0.4765171051025390,0.4928850173950195
0.4769845962524414,0.4916353225708008
0.4769845962524414,0.4916353225708008
0.4782062530517578,0.4963274002075195
0.4782062530517578,0.4963274002075195
0.4752777099609375,0.4936260223388672
0.4752777099609375,0.4936260223388672
0.4797117233276367,0.4953861236572266
0.4797117233276367,0.4953861236572266
0.4776649475097656,0.4950788497924805
0.4776649475097656,0.4950788497924805
0.4775482177734375,0.4924615859985351
0.4775482177734375,0.4924615859985351
0.4773988723754883,0.4941925048828125
0.4773988723754883,0.4941925048828125
0.4717031478881836,0.4858783721923828
0.4717031478881836,0.4858783721923828
0.4720367431640625,0.4796539306640625
0.4720367431640625,0.4796539306640625
0.4648309707641601,0.4693342208862304
0.4648309707641601,0.4693342208862304
0.4594676971435547,0.4570529937744141
0.4594676971435547,0.4570529937744141
0.4556161880493164,0.4531270980834960
0.4556161880493164,0.4531270980834960
0.4493408203125000,0.4448776245117188
0.4493408203125000,0.4448776245117188
0.4518579483032226,0.4434167861938477
0.4518579483032226,0.4434167861938477
0.4490066528320312,0.4416572570800781
0.4490066528320312,0.4416572570800781
0.4488779067993164,0.4394016265869141
0.4488779067993164,0.4394016265869141
0.4499336242675781,0.4438768386840820
0.4499336242675781,0.4438768386840820
0.4469610214233398,0.4413133621215820
0.4469610214233398,0.4413133621215820
0.4518270492553711,0.4438905715942383
0.4518270492553711,0.4438905715942383
0.4505750656127929,0.4452764511108399
0.4505750656127929,0.4452764511108399
0.4518682479858398,0.4454847335815429
0.4518682479858398,0.4454847335815429
0.4542062759399414,0.4521240234375000
0.4536729812622070,0.4521240234375000
0.4523643493652343,0.4515924453735352
0.4523643493652343,0.4515924453735352
0.4582437515258789,0.4564023971557617
0.4582437515258789,0.4564023971557617
0.4582185745239258,0.4598785400390625
0.4582185745239258,0.4598785400390625
0.4602722167968750,0.4617816925048828
0.4602722167968750,0.4617816925048828
0.4632133483886718,0.4693920135498046
0.4632133483886718,0.4693920135498046
0.4614612579345703,0.4690280914306640
0.4614612579345703,0.4690280914306640
0.4670711517333984,0.4727451324462890
0.4670711517333984,0.4727451324462890
0.4660326004028320,0.4742580413818359
0.4660326004028320,0.4742580413818359
0.4669160842895508,0.4733293533325195
0.4669160842895508,0.4733293533325195
0.4682830810546875,0.4779092788696289
0.4682830810546875,0.4779092788696289
0.4649162292480469,0.4746889114379882
0.4649162292480469,0.4746889114379882
0.4692214965820312,0.4758270263671875
0.4692214965820312,0.4758270263671875
0.4671215057373047,0.4754505157470703
0.4671215057373047,0.4754505157470703
0.4671197891235351,0.4731554031372070
0.4671197891235351,0.4731554031372070
0.4680112838745117,0.4771476745605469
0.4680112838745117,0.4771476745605469
0.4645093917846679,0.4737619400024414
0.4645093917846679,0.4737619400024414
0.4689456939697265,0.4751775741577148
0.4689456939697265,0.4751775741577148
0.4669630050659179,0.4752651214599609
0.4669630050659179,0.4752651214599609
0.4673069000244141,0.4739044189453125
0.4673069000244141,0.4739044189453125
0.4687196731567382,0.4786165237426758
0.4687196731567382,0.4786165237426758
0.4657865524291992,0.4762332916259766
0.4657865524291992,0.4762332916259766
0.4704254150390625,0.4786188125610351
0.4704254150390625,0.4786188125610351
0.4690938949584961,0.4796276092529297
0.4690938949584961,0.4796276092529297
0.4698394775390625,0.4789077758789062
0.4698394775390625,0.4789077758789062
0.4716253280639648,0.4840856552124023
0.4716253280639648,0.4840856552124023
0.4687133789062500,0.4819370269775390
0.4687133789062500,0.4819370269775390
0.4735559463500976,0.4843065261840820
0.4735559463500976,0.4843065261840820
0.4720264434814453,0.4850595474243164
0.4720264434814453,0.4850595474243164
0.4726758956909179,0.4839889526367187
0.4726758956909179,0.4839889526367187
0.4740789413452148,0.4858663558959961
0.4740789413452148,0.4869117736816406
0.4730638504028320,0.4899621963500976
0.4730638504028320,0.4899621963500976
0.4728773117065430,0.4869295120239258
0.4728773117065430,0.4869295120239258
0.4768953323364258,0.4911930084228515
0.4768953323364258,0.4911930084228515
0.4734077453613281,0.4899284362792968
0.4734077453613281,0.4899284362792968
0.4763225555419922,0.4909584045410156
0.4763225555419922,0.4909584045410156
0.4751689910888672,0.4938709259033203
0.4751689910888672,0.4938709259033203
0.4750173568725586,0.4908634185791015
0.4750173568725586,0.4908634185791015
0.4790153503417969,0.4950548171997070
0.4790153503417969,0.4950548171997070
0.4754076004028320,0.4937810897827148
0.4754076004028320,0.4937810897827148
0.4781295776367187,0.4944528579711914
0.4781295776367187,0.4944528579711914
0.4769479751586914,0.4971651077270507
0.4769479751586914,0.4971651077270507
0.4764764785766601,0.4935796737670898
0.4764764785766601,0.4935796737670898
0.4800121307373046,0.4967021942138672
0.4800121307373046,0.4967021942138672
0.4753480911254883,0.4932415008544921
0.4753480911254883,0.4932415008544921
0.4761880874633789,0.4897510528564453
0.4761880874633789,0.4897510528564453
0.4713827133178711,0.4853279113769531
0.4713827133178711,0.4853279113769531
0.4660869598388672,0.4721059799194336
0.4660869598388672,0.4721059799194336
0.4638645172119140,0.4646638870239257
0.4638645172119140,0.4646638870239257
0.4546531677246093,0.4534246444702148
0.4546531677246093,0.4534246444702148
0.4536128997802734,0.4478879928588867
0.4536128997802734,0.4478879928588867
0.4500955581665039,0.4466131210327148
0.4500955581665039,0.4466131210327148
0.4482862472534180,0.4407829284667968
0.4482862472534180,0.4407829284667968
0.4513469696044922,0.4434356689453125
0.4513469696044922,0.4434356689453125
0.4474216461181640,0.4415674209594727
0.4474216461181640,0.4415674209594727
0.4501607894897461,0.4423582077026367
0.4501607894897461,0.4423582077026367
0.4492338180541992,0.4454286575317383
0.4492338180541992,0.4454286575317383
0.4492733001708984,0.4429510116577148
0.4492733001708984,0.4429510116577148
0.4537416458129883,0.4479263305664062
0.4537416458129883,0.4479263305664062
0.4508399963378906,0.4479652404785156
0.4508399963378906,0.4479652404785156
0.4545885086059570,0.4506328582763672
0.4545885086059570,0.4506328582763672
0.4545118331909179,0.4555360794067382
0.4545118331909179,0.4555360794067382
0.4555377960205078,0.4548082351684570
0.4555377960205078,0.4548082351684570
0.4608701705932617,0.4616695404052734
0.4608701705932617,0.4616695404052734
0.4586288452148437,0.4630067825317383
0.4586288452148437,0.4630067825317383
0.4628471374511718,0.4662042617797851
0.4628471374511718,0.4662042617797851
0.4626766204833984,0.4708791732788086
0.4626766204833984,0.4708791732788086
0.4632568359375000,0.4689371109008789
0.4632568359375000,0.4689371109008789
0.4674928665161133,0.4735931396484375
0.4674928665161133,0.4735931396484375
0.4639600753784179,0.4721145629882812
0.4639600753784179,0.4721145629882812
0.4665475845336914,0.4725334167480468
0.4665475845336914,0.4725334167480468
0.4651485443115234,0.4744634628295898
0.4651485443115234,0.4744634628295898
0.4644670486450195,0.4704053878784180
0.4644670486450195,0.4704053878784180
0.4678012847900390,0.4735462188720703
0.4678012847900390,0.4735462188720703
0.4637128829956054,0.4710771560668945
0.4637128829956054,0.4710771560668945
0.4661693572998047,0.4713375091552734
0.4661693572998047,0.4713375091552734
0.4646335601806640,0.4734741210937500
0.4646335601806640,0.4734741210937500
0.4642713546752930,0.4699682235717773
0.4642713546752930,0.4699682235717773
0.4680828094482422,0.4739444732666016
0.4680828094482422,0.4739444732666016
0.4644556045532227,0.4726770401000976
0.4644556045532227,0.4726770401000976
0.4673206329345703,0.4738397598266602
0.4673206329345703,0.4738397598266602
0.4663003921508789,0.4769828796386719
0.4663003921508789,0.4769828796386719
0.4664508819580078,0.4743341445922851
0.4664508819580078,0.4743341445922851
0.4705581665039062,0.4790319442749023
0.4705581665039062,0.4790319442749023
0.4672296524047851,0.4782875061035156
0.4672296524047851,0.4782875061035156
0.4703447341918945,0.4797391891479492
0.4703447341918945,0.4797391891479492
0.4695676803588867,0.4831249237060546
0.4695676803588867,0.4831249237060546
0.4696575164794922,0.4804704666137695
0.4696575164794922,0.4804704666137695
0.4737813949584961,0.4850440979003906
0.4737813949584961,0.4850440979003906
0.4703350067138672,0.4841434478759765
0.4703350067138672,0.4841434478759765
0.4733465194702148,0.4853513717651367
0.4733465194702148,0.4853513717651367
0.4722930908203125,0.4883771896362304
0.4722930908203125,0.4883771896362304
0.4723434448242188,0.4855567932128906
0.4723434448242188,0.4855567932128906
0.4763339996337890,0.4898368835449218
0.4763339996337890,0.4898368835449218
0.4727291107177734,0.4886312484741211
0.4727291107177734,0.4886312484741211
0.4756416320800781,0.4898374557495117
0.4756416320800781,0.4898374557495117
0.4745962142944335,0.4926486968994140
0.4745962142944335,0.4926486968994140
0.4745115280151367,0.4896915435791016
0.4745115280151367,0.4896915435791016
0.4783086776733398,0.4937925338745117
0.4783086776733398,0.4937925338745117
0.4747158050537109,0.4923580169677734
0.4747158050537109,0.4923580169677734
0.4775081634521484,0.4932409286499023
0.4775081634521484,0.4932409286499023
0.4760278701782226,0.4953912734985351
0.4760278701782226,0.4953912734985351
0.4754013061523437,0.4907232284545898
0.4760690689086914,0.4907232284545898
0.4777341842651367,0.4915718078613281
0.4777341842651367,0.4915718078613281
0.4710811614990234,0.4837869644165039
0.4710811614990234,0.4837869644165039
0.4690526962280273,0.4748319625854492
0.4690526962280273,0.4748319625854492
0.4617313385009765,0.4658843994140625
0.4617313385009765,0.4658843994140625
0.4556922912597656,0.4525011062622070
0.4556922912597656,0.4525011062622070
0.4555486679077148,0.4496698379516602
0.4555486679077148,0.4496698379516602
0.4491823196411133,0.4437589645385742
0.4491823196411133,0.4437589645385742
0.4502454757690429,0.4415908813476562
0.4502454757690429,0.4415908813476562
0.4480379104614258,0.4425058364868164
0.4480379104614258,0.4425058364868164
0.4472705841064453,0.4383899688720703
0.4472705841064453,0.4383899688720703
0.4508159637451172,0.4420429229736328
0.4508159637451172,0.4420429229736328
0.4472219467163086,0.4406496047973633
0.4472219467163086,0.4406496047973633
0.4501270294189453,0.4417528152465820
0.4501270294189453,0.4417528152465820
0.4492183685302734,0.4447957992553711
0.4492183685302734,0.4447957992553711
0.4492635726928711,0.4423107147216797
0.4492635726928711,0.4423107147216797
0.4536952972412109,0.4470817565917969
0.4536952972412109,0.4470817565917969
0.4504297256469726,0.4468133926391601
0.4504297256469726,0.4468133926391601
0.4539190292358398,0.4489414215087891
0.4539190292358398,0.4489414215087891
0.4536392211914062,0.4531940460205078
0.4536392211914062,0.4531940460205078
0.4542743682861328,0.4517744064331055
0.4542743682861328,0.4517744064331055
0.4591753005981445,0.4577522277832031
0.4591753005981445,0.4577522277832031
0.4564149856567383,0.4580869674682617
0.4564149856567383,0.4580869674682617
0.4600473403930664,0.4603368759155273
0.4600473403930664,0.4603368759155273
0.4594064712524414,0.4640092849731445
0.4594064712524414,0.4640092849731445
0.4595380783081054,0.4613920211791992
0.4595380783081054,0.4613920211791992
0.4633810043334960,0.4655284881591797
0.4633810043334960,0.4655284881591797
0.4596553802490234,0.4637180328369140
0.4596553802490234,0.4637180328369140
0.4621553421020508,0.4639268875122070
0.4621553421020508,0.4639268875122070
0.4605554580688476,0.4657562255859375
0.4605554580688476,0.4657562255859375
0.4598556518554687,0.4615951538085937
0.4598556518554687,0.4615951538085937
0.4631584167480469,0.4648550033569336
0.4631584167480469,0.4648550033569336
0.4591249465942382,0.4625919342041016
0.4591249465942382,0.4625919342041016
0.4616088867187500,0.4628963470458984
0.4616088867187500,0.4628963470458984
0.4601005554199218,0.4650461196899414
0.4601005554199218,0.4650461196899414
0.4597938537597656,0.4616523742675781
0.4597938537597656,0.4616523742675781
0.4635595321655273,0.4656200408935547
0.4635595321655273,0.4656200408935547
0.4598854064941406,0.4643943786621094
0.4598854064941406,0.4643943786621094
0.4628065109252930,0.4655988693237305
0.4628065109252930,0.4655988693237305
0.4618835449218750,0.4686538696289062
0.4618835449218750,0.4686538696289062
0.4619281768798828,0.4660869598388672
0.4619281768798828,0.4660869598388672
0.4661155700683594,0.4707715988159180
0.4661155700683594,0.4707715988159180
0.4627017974853516,0.4700431823730469
0.4627017974853516,0.4700431823730469
0.4658998489379882,0.4715829849243164
0.4658998489379882,0.4715829849243164
0.4650627136230469,0.4748765945434570
0.4650627136230469,0.4748765945434570
0.4652023315429688,0.4723291397094727
0.4652023315429688,0.4723291397094727
0.4693679809570312,0.4770641326904297
0.4693679809570312,0.4770641326904297
0.4659679412841797,0.4763580322265625
0.4659679412841797,0.4763580322265625
0.4692026138305664,0.4778451919555664
0.4692026138305664,0.4778451919555664
0.4681795120239258,0.4810403823852539
0.4681795120239258,0.4810403823852539
0.4684684753417969,0.4784809112548828
0.4699207305908203,0.4784809112548828
0.4725500106811523,0.4832960128784179
0.4725500106811523,0.4832960128784179
0.4693078994750977,0.4826425552368164
0.4693078994750977,0.4826425552368164
0.4724555969238281,0.4841062545776367
0.4724555969238281,0.4841062545776367
0.4715583801269531,0.4872522354125977
0.4715583801269531,0.4872522354125977
0.4729797363281250,0.4845531463623047
0.4729797363281250,0.4845531463623047
0.4756467819213867,0.4889820098876953
0.4756467819213867,0.4889820098876953
0.4720813751220703,0.4877849578857422
0.4720813751220703,0.4877849578857422
0.4748680114746093,0.4883749008178710
0.4748680114746093,0.4883749008178710
0.4730243682861328,0.4895301818847656
0.4730243682861328,0.4895301818847656
0.4714204788208007,0.4830659866333007
0.4714204788208007,0.4830659866333007
0.4721952438354492,0.4804527282714843
0.4721952438354492,0.4804527282714843
0.4635320663452148,0.4689634323120117
0.4635320663452148,0.4689634323120117
0.4602447509765625,0.4584177017211914
0.4602447509765625,0.4584177017211914
0.4536415100097656,0.4518796920776367
0.4536415100097656,0.4518796920776367
0.4499582290649414,0.4426717758178711
0.4499582290649414,0.4426717758178711
0.4513006210327148,0.4425521850585937
0.4513006210327148,0.4425521850585937
0.4460695266723633,0.4385318756103516
0.4460695266723633,0.4385318756103516
0.4479366302490234,0.4376008987426758
0.4479366302490234,0.4376008987426758
0.4460855484008789,0.4391956329345703
0.4460855484008789,0.4391956329345703
0.4457777023315430,0.4355472564697265
0.4457777023315430,0.4355472564697265
0.4494564056396484,0.4395103454589844
0.4494564056396484,0.4395103454589844
0.4456684112548828,0.4381233215332031
0.4456684112548828,0.4381233215332031
0.4486249923706054,0.4390514373779297
0.4486249923706054,0.4390514373779297
0.4474880218505859,0.4418025970458984
0.4474880218505859,0.4418025970458984
0.4475000381469726,0.4388740539550781
0.4475000381469726,0.4388740539550781
0.4515003204345703,0.4433120727539062
0.4515003204345703,0.4433120727539062
0.4511398315429687,0.4457553863525390
0.4504085540771484,0.4457553863525390
0.4485036849975586,0.4437578201293945
0.4511730194091796,0.4437578201293945
0.4535745620727539,0.4469764709472656
0.4535745620727539,0.4469764709472656
0.4523620605468750,0.4481992721557617
0.4523620605468750,0.4481992721557617
0.4536043167114258,0.4482610702514648
0.4536043167114258,0.4482610702514648
0.4552803039550781,0.4538051605224609
0.4552803039550781,0.4538051605224609
0.4526847839355468,0.4515769958496094
0.4526847839355468,0.4515769958496094
0.4575679779052734,0.4540477752685547
0.4575679779052734,0.4540477752685547
0.4557380676269531,0.4540248870849609
0.4557380676269531,0.4540248870849609
0.4562770843505859,0.4527099609375000
0.4562770843505859,0.4527099609375000
0.4571308135986328,0.4566862106323242
0.4571308135986328,0.4566862106323242
0.4537158966064453,0.4531419754028320
0.4537158966064453,0.4531419754028320
0.4579473495483398,0.4546691894531250
0.4579473495483398,0.4546691894531250
0.4557683944702148,0.4539327621459961
0.4557683944702148,0.4539327621459961
0.4560590744018554,0.4523797988891601
0.4560590744018554,0.4523797988891601
0.4569877624511718,0.4564619064331055
0.4569877624511718,0.4564619064331055
0.4537965774536132,0.4533039093017578
0.4537965774536132,0.4533039093017578
0.4583358764648438,0.4553277969360351
0.4583358764648438,0.4553277969360351
0.4563674926757812,0.4552082061767578
0.4563674926757812,0.4552082061767578
0.4570775985717773,0.4545055389404297
0.4570775985717773,0.4545055389404297
0.4582254409790039,0.4592645645141601
0.4582254409790039,0.4592645645141601
0.4555337905883789,0.4566896438598633
0.4555337905883789,0.4566896438598633
0.4602396011352539,0.4594299316406250
0.4602396011352539,0.4594299316406250
0.4585836410522461,0.4598070144653320
0.4585836410522461,0.4598070144653320
0.4596239089965820,0.4595489501953125
0.4596239089965820,0.4595489501953125
0.4609411239624023,0.4646518707275391
0.4609411239624023,0.4646518707275391
0.4582677841186523,0.4623172760009766
0.4607500076293945,0.4623172760009766
0.4630994796752930,0.4651136398315430
0.4630994796752930,0.4651136398315430
0.4615493774414062,0.4654541015625000
0.4615493774414062,0.4654541015625000
0.4626474380493164,0.4651800155639648
0.4626474380493164,0.4651800155639648
0.4638078689575195,0.4701850891113281
0.4638078689575195,0.4701850891113281
0.4612655639648438,0.4679517745971680
0.4612655639648438,0.4679517745971680
0.4661275863647460,0.4708494186401367
0.4661275863647460,0.4708494186401367
0.4646152496337890,0.4713071823120117
0.4646152496337890,0.4713071823120117
0.4657419204711914,0.4712196350097656
0.4657419204711914,0.4712196350097656
0.4670179367065430,0.4764507293701172
0.4670179367065430,0.4764507293701172
0.4644578933715820,0.4742820739746094
0.4644578933715820,0.4742820739746094
0.4694795608520508,0.4772523880004882
0.4694795608520508,0.4772523880004882
0.4679134368896484,0.4776872634887695
0.4679134368896484,0.4776872634887695
0.4690412521362304,0.4775911331176758
0.4690412521362304,0.4775911331176758
0.4703498840332031,0.4825887680053711
0.4703498840332031,0.4825887680053711
0.4675924301147460,0.4796539306640625
0.4675924301147460,0.4796539306640625
0.4717472076416016,0.4807273864746093
0.4717472076416016,0.4807273864746093
0.4683677673339843,0.4773811340332031
0.4683677673339843,0.4773811340332031
0.4661109924316406,0.4700700759887695
0.4661109924316406,0.4700700759887695
0.4624122619628906,0.4649791717529297
0.4624122619628906,0.4649791717529297
0.4537416458129883,0.4516942977905273
0.4537416458129883,0.4516942977905273
0.4537239074707031,0.4459951400756836
0.4537239074707031,0.4459951400756836
0.4485162734985351,0.4401803970336914
0.4485162734985351,0.4401803970336914
0.4470039367675781,0.4356399536132812
0.4470039367675781,0.4356399536132812
0.4465908050537109,0.4374372482299805
0.4465908050537109,0.4374372482299805
0.4425922393798828,0.4328899383544922
0.4425922393798828,0.4328899383544922
0.4467058181762695,0.4342357635498047
0.4467058181762695,0.4342357635498047
0.4446132659912109,0.4335674285888672
0.4446132659912109,0.4335674285888672
0.4451333999633789,0.4325122833251953
0.4451333999633789,0.4325122833251953
0.4461896896362305,0.4368862152099609
0.4461896896362305,0.4368862152099609
0.4433063507080078,0.4340188980102539
0.4433063507080078,0.4340188980102539
0.4480058670043945,0.4363569259643554
0.4480058670043945,0.4363569259643554
0.4461170196533203,0.4361841201782227
0.4461170196533203,0.4361841201782227
0.4468299865722656,0.4355884552001953
0.4468299865722656,0.4355884552001953
0.4479618072509766,0.4404001235961914
0.4479618072509766,0.4404001235961914
0.4453371047973633,0.4378486633300781
0.4453371047973633,0.4378486633300781
0.4501487731933593,0.4408143997192382
0.4501487731933593,0.4408143997192382
0.4486610412597656,0.4414667129516601
0.4486610412597656,0.4414667129516601
0.4497991561889648,0.4416080474853515
0.4497991561889648,0.4416080474853515
0.4512622833251953,0.4469427108764648
0.4512622833251953,0.4469427108764648
0.4487279891967773,0.4446361541748047
0.4487279891967773,0.4446361541748047
0.4536340713500976,0.4474588394165039
0.4536340713500976,0.4474588394165039
0.4518024444580078,0.4474227905273437
0.4518024444580078,0.4474227905273437
0.4525880813598633,0.4463939666748047
0.4525880813598633,0.4463939666748047
0.4534114837646484,0.4504938125610352
0.4534114837646484,0.4504938125610352
0.4502494812011719,0.4470771789550781
0.4502494812011719,0.4470771789550781
0.4545833587646484,0.4487794876098632
0.4545833587646484,0.4487794876098632
0.4524015426635742,0.4479263305664062
0.4524015426635742,0.4479263305664062
0.4528295516967773,0.4466514587402344
0.4528295516967773,0.4466514587402344
0.4535430908203125,0.4507450103759765
0.4535430908203125,0.4507450103759765
0.4503799438476562,0.4473804473876953
0.4503799438476562,0.4473804473876953
0.4548328399658203,0.4494981765747070
0.4548328399658203,0.4494981765747070
0.4527797698974609,0.4490798950195312
0.4527797698974609,0.4490798950195312
0.4535751342773438,0.4484659194946289
0.4535751342773438,0.4484659194946289
0.4547355651855469,0.4532695770263672
0.4547355651855469,0.4532695770263672
0.4520124435424804,0.4506494522094726
0.4520124435424804,0.4506494522094726
0.4568046569824218,0.4535785675048828
0.4568046569824218,0.4535785675048828
0.4551578521728515,0.4540191650390625
0.4551578521728515,0.4540191650390625
0.4562776565551758,0.4541484832763671
0.4562776565551758,0.4541484832763671
0.4578746795654297,0.4595140457153320
0.4578746795654297,0.4595140457153320
0.4553443908691406,0.4575725555419922
0.4553443908691406,0.4575725555419922
0.4604661941528320,0.4608804702758789
0.4604661941528320,0.4608804702758789
0.4590265274047851,0.4615161895751953
0.4590265274047851,0.4615161895751953
0.4603197097778320,0.4617582321166992
0.4603197097778320,0.4617582321166992
0.4616655349731445,0.4669733047485352
0.4616655349731445,0.4669733047485352
0.4590402603149414,0.4646913528442382
0.4590402603149414,0.4646913528442382
0.4639657974243164,0.4676078796386718
0.4639657974243164,0.4676078796386718
0.4622932434082031,0.4678361892700195
0.4622932434082031,0.4678361892700195
0.4633129119873047,0.4675935745239257
0.4633129119873047,0.4675935745239257
0.4645648956298828,0.4725534439086914
0.4645648956298828,0.4725534439086914
0.4617771148681640,0.4700883865356445
0.4617771148681640,0.4700883865356445
0.4667427062988281,0.4728927612304688
0.4667427062988281,0.4728927612304688
0.4648944854736328,0.4731479644775390
0.4648944854736328,0.4731479644775390
0.4660755157470703,0.4730455398559570
0.4660755157470703,0.4730455398559570
0.4673154830932617,0.4781044006347656
0.4673154830932617,0.4781044006347656
0.4646953582763672,0.4757623672485352
0.4646953582763672,0.4757623672485352
0.4695728302001953,0.4785839080810547
0.4695728302001953,0.4785839080810547
0.4677675247192383,0.4786703109741210
0.4677675247192383,0.4786703109741210
0.4687408447265625,0.4780643463134766
0.4687408447265625,0.4780643463134766
0.4696455001831055,0.4819072723388672
0.4696455001831055,0.4819072723388672
0.4657144546508789,0.4767477035522460
0.4657144546508789,0.4767477035522460
0.4681251525878906,0.4741178512573242
0.4681251525878906,0.4741178512573242
0.4617931365966796,0.4649494171142578
0.4617931365966796,0.4649494171142578
0.4569122314453125,0.4529376983642578
0.4569122314453125,0.4529376983642578
0.4520822525024414,0.4474245071411133
0.4520822525024414,0.4474245071411133
0.4450189590454102,0.4374824523925781
0.4450189590454102,0.4374824523925781
0.4466680526733398,0.4349121093750000
0.4466680526733398,0.4349121093750000
0.4428348541259766,0.4313249588012695
0.4428348541259766,0.4313249588012695
0.4422924041748047,0.4285755157470703
0.4422924041748047,0.4285755157470703
0.4426465988159179,0.4317873001098633
0.4426465988159179,0.4317873001098633
0.4392963409423828,0.4281137466430664
0.4392963409423828,0.4281137466430664
0.4437423706054687,0.4301239013671875
0.4437423706054687,0.4301239013671875
0.4415931701660156,0.4295860290527344
0.4415931701660156,0.4295860290527344
0.4424549102783203,0.4287940979003906
0.4424549102783203,0.4287940979003906
0.4434556961059570,0.4333219528198242
0.4434556961059570,0.4333219528198242
0.4406318664550781,0.4303476333618164
0.4406318664550781,0.4303476333618164
0.4452381134033203,0.4328744888305664
0.4452381134033203,0.4328744888305664
0.4432176589965820,0.4326770782470703
0.4432176589965820,0.4326770782470703
0.4443260192871094,0.4325134277343750
0.4443260192871094,0.4325134277343750
0.4456752777099609,0.4376380920410156
0.4456752777099609,0.4376380920410156
0.4432622909545899,0.4354442596435547
0.4432622909545899,0.4354442596435547
0.4483577728271484,0.4390005111694336
0.4483577728271484,0.4390005111694336
0.4468494415283203,0.4397335052490234
0.4513721466064453,0.4397335052490234
0.4483892440795899,0.4400814056396484
0.4483892440795899,0.4400814056396484
0.4497156143188477,0.4453451156616211
0.4497156143188477,0.4453451156616211
0.4471143722534179,0.4427049636840820
0.4471143722534179,0.4427049636840820
0.4518522262573242,0.4452226638793945
0.4518522262573242,0.4452226638793945
0.4496280670166016,0.4444690704345703
0.4496280670166016,0.4444690704345703
0.4501934051513672,0.4431718826293945
0.4501934051513672,0.4431718826293945
0.4507581710815429,0.4469490051269531
0.4507581710815429,0.4469490051269531
0.4474599838256836,0.4430917739868164
0.4474599838256836,0.4430917739868164
0.4516559600830078,0.4447093963623047
0.4516559600830078,0.4447093963623047
0.4491983413696289,0.4437269210815429
0.4491983413696289,0.4437269210815429
0.4496641159057617,0.4425012588500977
0.4496641159057617,0.4425012588500977
0.4504325866699219,0.4466062545776367
0.4504325866699219,0.4466062545776367
0.4474370956420898,0.4431472778320312
0.4474370956420898,0.4431472778320312
0.4519632339477539,0.4455116271972656
0.4519632339477539,0.4455116271972656
0.4498472213745117,0.4452695846557617
0.4498472213745117,0.4452695846557617
0.4507518768310547,0.4450035095214844
0.4507518768310547,0.4450035095214844
0.4519781112670898,0.4498443603515625
0.4519781112670898,0.4498443603515625
0.4492910385131836,0.4472860336303711
0.4492910385131836,0.4472860336303711
0.4543264389038086,0.4504697799682617
0.4543264389038086,0.4504697799682617
0.4525474548339843,0.4508211135864257
0.4525474548339843,0.4508211135864257
0.4538686752319336,0.4509338378906250
0.4538686752319336,0.4509338378906250
0.4521881103515625,0.4546691894531250
0.4527345657348633,0.4546691894531250
0.4544420242309570,0.4576852798461914
0.4544420242309570,0.4576852798461914
0.4549942016601562,0.4552631378173828
0.4549942016601562,0.4552631378173828
0.4591918945312500,0.4604633331298828
0.4591918945312500,0.4604633331298828
0.4558044433593750,0.4601079940795898
0.4558044433593750,0.4601079940795898
0.4591901779174805,0.4612604141235351
0.4591901779174805,0.4612604141235351
0.4577831268310547,0.4639829635620117
0.4577831268310547,0.4639829635620117
0.4583141326904296,0.4614492416381836
0.4583141326904296,0.4614492416381836
0.4622680664062500,0.4664371490478516
0.4622680664062500,0.4664371490478516
0.4589035034179687,0.4660274505615234
0.4589035034179687,0.4660274505615234
0.4623991012573242,0.4672639846801758
0.4623991012573242,0.4672639846801758
0.4611305236816406,0.4701524734497070
0.4611305236816406,0.4701524734497070
0.4617948532104492,0.4678819656372070
0.4617948532104492,0.4678819656372070
0.4658500671386718,0.4731027603149414
0.4658500671386718,0.4731027603149414
0.4625644683837891,0.4728567123413085
0.4625644683837891,0.4728567123413085
0.4660388946533203,0.4742540359497070
0.4660388946533203,0.4742540359497070
0.4647439956665039,0.4770006179809570
0.4647439956665039,0.4770006179809570
0.4652051925659180,0.4744497299194336
0.4652051925659180,0.4744497299194336
0.4690069198608398,0.4792047500610351
0.4690069198608398,0.4792047500610351
0.4653865814208984,0.4782314300537109
0.4653865814208984,0.4782314300537109
0.4684576034545898,0.4784099578857421
0.4684576034545898,0.4784099578857421
0.4661767959594726,0.4792922973632812
0.4661767959594726,0.4792922973632812
0.4649940490722656,0.4730157852172852
0.4649940490722656,0.4730157852172852
0.4655639648437500,0.4709341049194335
0.4655639648437500,0.4709341049194335
0.4568481445312500,0.4596628189086914
0.4568481445312500,0.4596628189086914
0.4536924362182617,0.4484653472900391
0.4536924362182617,0.4484653472900391
0.4464632034301758,0.4412309646606445
0.4464632034301758,0.4412309646606445
0.4430419921875000,0.4318342208862305
0.4430419921875000,0.4318342208862305
0.4440341949462890,0.4319406509399414
0.4401706695556640,0.4319406509399414
0.4386949539184570,0.4280960083007813
0.4386949539184570,0.4280960083007813
0.4408658981323242,0.4268926620483398
0.4408658981323242,0.4268926620483398
0.4384437561035156,0.4278659820556641
0.4384437561035156,0.4278659820556641
0.4384311676025390,0.4242238998413086
0.4384311676025390,0.4242238998413086
0.4418409347534180,0.4284696578979492
0.4418409347534180,0.4284696578979492
0.4380214691162109,0.4271696090698242
0.4380214691162109,0.4271696090698242
0.4412561416625976,0.4277006149291992
0.4412561416625976,0.4277006149291992
0.4394439697265625,0.4297428131103516
0.4394439697265625,0.4297428131103516
0.4398021697998047,0.4267147064208984
0.4398021697998047,0.4267147064208984
0.4433366775512695,0.4312980651855469
0.4433366775512695,0.4312980651855469
0.4396940231323242,0.4303653717041016
0.4396940231323242,0.4303653717041016
0.4430837631225586,0.4313123703002930
0.4430837631225586,0.4313123703002930
0.4416360855102539,0.4339622497558593
0.4416360855102539,0.4339622497558593
0.4423896789550781,0.4317821502685547
0.4423896789550781,0.4317821502685547
0.4462806701660156,0.4371168136596680
0.4462806701660156,0.4371168136596680
0.4430980682373047,0.4367734909057617
0.4430980682373047,0.4367734909057617
0.4466348648071289,0.4381210327148438
0.4466348648071289,0.4381210327148438
0.4450635910034180,0.4403984069824219
0.4450635910034180,0.4403984069824219
0.4457038879394531,0.4376358032226562
0.4457038879394531,0.4376358032226562
0.4489528656005859,0.4419525146484375
0.4489528656005859,0.4419525146484375
0.4451539993286133,0.4403543472290039
0.4451539993286133,0.4403543472290039
0.4481340408325195,0.4404098510742188
0.4481340408325195,0.4404098510742188
0.4459705352783203,0.4416223526000976
0.4459705352783203,0.4416223526000976
0.4461273193359375,0.4380111694335938
0.4461273193359375,0.4380111694335938
0.4491319656372070,0.4420394897460938
0.4491319656372070,0.4420394897460938
0.4452301025390625,0.4402639389038086
0.4452301025390625,0.4402639389038086
0.4482170104980469,0.4405460357666016
0.4482170104980469,0.4405460357666016
0.4461833953857422,0.4422065734863281
0.4461833953857422,0.4422065734863281
0.4465690612792969,0.4391847610473633
0.4465690612792969,0.4391847610473633
0.4498392105102539,0.4437446594238281
0.4498392105102539,0.4437446594238281
0.4463012695312500,0.4426757812500000
0.4463012695312500,0.4426757812500000
0.4497419357299804,0.4436697006225586
0.4497419357299804,0.4436697006225586
0.4481306076049805,0.4460300445556640
0.4481306076049805,0.4460300445556640
0.4488584518432617,0.4437114715576172
0.4488584518432617,0.4437114715576172
0.4525543212890625,0.4490970611572265
0.4525543212890625,0.4490970611572265
0.4493814468383789,0.4487096786499024
0.4493814468383789,0.4487096786499024
0.4531488418579102,0.4503913879394531
0.4531488418579102,0.4503913879394531
0.4518922805786132,0.4532043457031250
0.4518922805786132,0.4532043457031250
0.4527431488037109,0.4512119293212891
0.4527431488037109,0.4512119293212891
0.4564704895019531,0.4567731857299804
0.4564704895019531,0.4567731857299804
0.4532764434814453,0.4563749313354492
0.4532764434814453,0.4563749313354492
0.4569625854492188,0.4577178955078125
0.4569625854492188,0.4577178955078125
0.4554708480834961,0.4602653503417968
0.4554708480834961,0.4602653503417968
0.4562307357788086,0.4577733993530273
0.4562307357788086,0.4577733993530273
0.4597503662109375,0.4628402709960937
0.4570089340209961,0.4628402709960937
0.4562988281250000,0.4618967056274414
0.4562988281250000,0.4618967056274414
0.4597372055053711,0.4629215240478515
0.4597372055053711,0.4629215240478515
0.4580480575561523,0.4650524139404297
0.4580480575561523,0.4650524139404297
0.4586133956909180,0.4623304367065429
0.4586133956909180,0.4623304367065429
0.4620042800903320,0.4672325134277344
0.4620042800903320,0.4672325134277344
0.4584325790405273,0.4663072586059570
0.4584325790405273,0.4663072586059570
0.4619688034057617,0.4673624038696289
0.4619688034057617,0.4673624038696289
0.4605251312255859,0.4697622299194336
0.4612730026245117,0.4673315048217773
0.4612730026245117,0.4673315048217773
0.4647497177124023,0.4724985122680664
0.4647497177124023,0.4724985122680664
0.4614332199096680,0.4718690872192383
0.4614332199096680,0.4718690872192383
0.4651016235351562,0.4731651306152344
0.4651016235351562,0.4731651306152344
0.4635635375976562,0.4754316329956054
0.4635635375976562,0.4754316329956054
0.4640939712524414,0.4727817535400390
0.4640939712524414,0.4727817535400390
0.4673046112060547,0.4772775650024414
0.4673046112060547,0.4772775650024414
0.4633203506469726,0.4750436782836914
0.4633203506469726,0.4750436782836914
0.4654809951782226,0.4727846145629883
0.4654809951782226,0.4727846145629883
0.4607088088989257,0.4681875228881835
0.4607088088989257,0.4681875228881835
0.4561288833618164,0.4550794601440429
0.4532009124755859,0.4550794601440429
0.4530464172363281,0.4479143142700195
0.4530464172363281,0.4479143142700195
0.4439643859863281,0.4373188018798828
0.4439643859863281,0.4373188018798828
0.4435260772705078,0.4316751480102539
0.4435260772705078,0.4316751480102539
0.4391761779785156,0.4288736343383789
0.4391761779785156,0.4288736343383789
0.4377719879150391,0.4230325698852539
0.4377719879150391,0.4230325698852539
0.4398845672607422,0.4257230758666992
0.4398845672607422,0.4257230758666992
0.4356164932250977,0.4233198165893555
0.4356164932250977,0.4233198165893555
0.4385622024536133,0.4232362747192382
0.4385622024536133,0.4232362747192382
0.4366865158081055,0.4247938156127929
0.4366865158081055,0.4247938156127929
0.4369600296020508,0.4216260910034180
0.4369600296020508,0.4216260910034180
0.4400327682495117,0.4261425018310547
0.4400327682495117,0.4261425018310547
0.4364976882934570,0.4248991012573242
0.4364976882934570,0.4248991012573242
0.4398468017578125,0.4255302429199219
0.4398468017578125,0.4255302429199219
0.4381525039672852,0.4273458480834961
0.4381525039672852,0.4273458480834961
0.4386812210083008,0.4245958328247070
0.4386812210083008,0.4245958328247070
0.4418889999389649,0.4295986175537109
0.4418889999389649,0.4295986175537109
0.4386074066162109,0.4288999557495117
0.4386074066162109,0.4288999557495117
0.4423707962036132,0.4302515029907226
0.4423707962036132,0.4302515029907226
0.4412195205688477,0.4330821990966797
0.4412195205688477,0.4330821990966797
0.4421499252319336,0.4312070846557617
0.4421499252319336,0.4312070846557617
0.4457450866699219,0.4369142532348633
0.4457450866699219,0.4369142532348633
0.4426036834716797,0.4364965438842773
0.4426036834716797,0.4364965438842773
0.4464031219482422,0.4376420974731445
0.4464031219482422,0.4376420974731445
0.4449131011962891,0.4396791458129883
0.4449131011962891,0.4396791458129883
0.4452678680419922,0.4366155624389648
0.4452678680419922,0.4366155624389648
0.4479921340942383,0.4409620285034180
0.4479921340942383,0.4409620285034180
0.4441720962524414,0.4390645980834961
0.4441720962524414,0.4390645980834961
0.4472700119018554,0.4389776229858398
0.4472700119018554,0.4389776229858398
0.4451316833496093,0.4401306152343750
0.4451316833496093,0.4401306152343750
0.4451585769653320,0.4364593505859375
0.4451585769653320,0.4364593505859375
0.4477512359619141,0.4405345916748047
0.4477512359619141,0.4405345916748047
0.4439626693725586,0.4388517379760742
0.4439626693725586,0.4388517379760742
0.4471647262573242,0.4391819000244140
0.4471647262573242,0.4391819000244140
0.4454338073730469,0.4409339904785156
0.4454338073730469,0.4409339904785156
0.4458457946777344,0.4380512237548828
0.4458457946777344,0.4380512237548828
0.4488555908203125,0.4429229736328125
0.4488555908203125,0.4429229736328125
0.4455030441284180,0.4422580718994141
0.4455030441284180,0.4422580718994141
0.4492893218994141,0.4434036254882812
0.4492893218994141,0.4434036254882812
0.4479824066162109,0.4460186004638672
0.4519346237182617,0.4460186004638672
0.4488418579101562,0.4440404891967774
0.4488418579101562,0.4440404891967774
0.4521955490112304,0.4496555328369141
0.4521955490112304,0.4496555328369141
0.4491943359375000,0.4494689941406250
0.4491943359375000,0.4494689941406250
0.4532032012939453,0.4511489868164062
0.4532032012939453,0.4511489868164062
0.4521772384643554,0.4539768218994140
0.4521772384643554,0.4539768218994140
0.4530475616455078,0.4521097183227539
0.4530475616455078,0.4521097183227539
0.4563772201538085,0.4577693939208984
0.4563772201538085,0.4577693939208984
0.4532180786132812,0.4573591232299805
0.4532180786132812,0.4573591232299805
0.4572103500366211,0.4586591720581055
0.4572103500366211,0.4586591720581055
0.4558296203613281,0.4610876083374023
0.4558296203613281,0.4610876083374023
0.4564739227294922,0.4586700439453125
0.4564739227294922,0.4586700439453125
0.4596073150634765,0.4636905670166016
0.4596073150634765,0.4636905670166016
0.4561843872070312,0.4627132415771484
0.4561843872070312,0.4627132415771484
0.4598253250122070,0.4636562347412109
0.4598253250122070,0.4636562347412109
0.4583885192871093,0.4655261993408203
0.4583885192871093,0.4655261993408203
0.4589887619018554,0.4629735946655273
0.4589887619018554,0.4629735946655273
0.4619321823120117,0.4681348800659180
0.4619321823120117,0.4681348800659180
0.4585161209106445,0.4672828674316406
0.4585161209106445,0.4700025558471679
0.4608884811401367,0.4672330856323242
0.4594236373901367,0.4672285079956054
0.4612461090087890,0.4672285079956054
0.4640361785888671,0.4705673217773437
0.4640361785888671,0.4705673217773437
0.4615213394165039,0.4704071044921875
0.4615213394165039,0.4704071044921875
0.4631967544555664,0.4706405639648437
0.4631967544555664,0.4706405639648437
0.4637437820434570,0.4752376556396484
0.4637437820434570,0.4752376556396484
0.4620271682739258,0.4721008300781250
0.4620271682739258,0.4721008300781250
0.4665538787841796,0.4750505447387695
0.4665538787841796,0.4750505447387695
0.4634788513183594,0.4738214492797851
0.4634788513183594,0.4738214492797851
0.4643417358398437,0.4720922470092773
0.4643417358398437,0.4720922470092773
0.4628059387207031,0.4722312927246093
0.4628059387207031,0.4722312927246093
0.4573791503906250,0.4611047744750976
0.4573791503906250,0.4611047744750976
0.4560739517211914,0.4527860641479492
0.4560739517211914,0.4527860641479492
0.4469009399414062,0.4405008316040039
0.4481191635131836,0.4405008316040039
0.4432989120483398,0.4319360733032226
0.4432989120483398,0.4319360733032226
0.4401374816894531,0.4303024291992187
0.4401374816894531,0.4303024291992187
0.4361726760864258,0.4228677749633789
0.4361726760864258,0.4228677749633789
0.4390491485595703,0.4232254028320312
0.4390491485595703,0.4232254028320312
0.4351261138916016,0.4209119796752930
0.4351261138916016,0.4209119796752930
0.4362236022949219,0.4198339462280273
0.4362236022949219,0.4198339462280273
0.4361698150634766,0.4234542846679688
0.4361698150634766,0.4234542846679688
0.4343782424926758,0.4198928833007812
0.4343782424926758,0.4198928833007812
0.4386795043945312,0.4227315902709961
0.4386795043945312,0.4227315902709961
0.4357944488525390,0.4220214843750000
0.4357944488525390,0.4220214843750000
0.4373920440673828,0.4220272064208984
0.4373920440673828,0.4220272064208984
0.4376861572265625,0.4262632369995117
0.4376861572265625,0.4262632369995117
0.4361091613769531,0.4230463027954102
0.4361091613769531,0.4230463027954102
0.4405065536499023,0.4263874053955078
0.4405065536499023,0.4263874053955078
0.4379030227661133,0.4260904312133789
0.4379030227661133,0.4260904312133789
0.4399017333984375,0.4269166946411133
0.4399017333984375,0.4269166946411133
0.4404916763305664,0.4319755554199219
0.4404916763305664,0.4319755554199219
0.4396041870117187,0.4298515319824219
0.4396041870117187,0.4298515319824219
0.4444953918457031,0.4339908599853515
0.4444953918457031,0.4339908599853515
0.4421321868896484,0.4342002868652344
0.4421321868896484,0.4342002868652344
0.4442304611206054,0.4348783493041992
0.4420005798339844,0.4348783493041992
0.4446269989013672,0.4395166397094726
0.4446269989013672,0.4395166397094726
0.4432090759277343,0.4362625122070312
0.4432090759277343,0.4362625122070312
0.4474994659423828,0.4390794754028320
0.4474994659423828,0.4390794754028320
0.4442338943481445,0.4377714157104492
0.4442338943481445,0.4377714157104492
0.4455001831054687,0.4371488571166992
0.4455001831054687,0.4371488571166992
0.4452644348144531,0.4406318664550781
0.4452644348144531,0.4406318664550781
0.4434459686279297,0.4364931106567383
0.4434459686279297,0.4364931106567383
0.4473999023437500,0.4388637542724609
0.4473999023437500,0.4388637542724609
0.4441143035888672,0.4376037597656250
0.4441143035888672,0.4376037597656250
0.4456369400024414,0.4372753143310547
0.4456369400024414,0.4372753143310547
0.4455379486083984,0.4413316726684570
0.4455379486083984,0.4413316726684570
0.4440994262695312,0.4379322052001953
0.4440994262695312,0.4379322052001953
0.4485013961791992,0.4413179397583007
0.4485013961791992,0.4413179397583007
0.4457096099853515,0.4409711837768555
0.4457096099853515,0.4409711837768555
0.4477741241455078,0.4416034698486328
0.4477741241455078,0.4416034698486328
0.4480962753295898,0.4465335845947265
0.4480962753295898,0.4465335845947265
0.4472059249877929,0.4441246032714843
0.4472059249877929,0.4441246032714843
0.4520044326782227,0.4483428955078125
0.4520044326782227,0.4483428955078125
0.4496566772460938,0.4484979629516602
0.4496566772460938,0.4484979629516602
0.4519775390625000,0.4498517990112305
0.4519775390625000,0.4498517990112305
0.4524404525756835,0.4552585601806640
0.4524404525756835,0.4552585601806640
0.4517692565917968,0.4529811859130859
0.4517692565917968,0.4529811859130859
0.4567794799804688,0.4571754455566406
0.4567794799804688,0.4571754455566406
0.4541090011596680,0.4572509765625000
0.4541090011596680,0.4572509765625000
0.4564693450927734,0.4583255767822265
0.4564693450927734,0.4583255767822265
0.4567697525024414,0.4632734298706054
0.4567697525024414,0.4632734298706054
0.4558296203613281,0.4604244232177734
0.4558296203613281,0.4604244232177734
0.4603809356689453,0.4639091491699219
0.4603809356689453,0.4639091491699219
0.4574712753295898,0.4633918762207031
0.4574712753295898,0.4633918762207031
0.4594465255737304,0.4636585235595703
0.4594465255737304,0.4636585235595703
0.4593927383422851,0.4680130004882812
0.4593927383422851,0.4680130004882812
0.4581504821777344,0.4646959304809570
0.4581504821777344,0.4646959304809570
0.4624523162841797,0.4678842544555664
0.4624523162841797,0.4678842544555664
0.4594116210937500,0.4671312332153320
0.4594116210937500,0.4671312332153320
0.4614503860473633,0.4674659729003906
0.4614503860473633,0.4674659729003906
0.4612884521484375,0.4718198776245117
0.4627573013305664,0.4718198776245117
0.4601995468139648,0.4685811996459961
0.4601995468139648,0.4685811996459961
0.4646358489990234,0.4721271514892578
0.4646358489990234,0.4721271514892578
0.4617851257324219,0.4714422225952148
0.4617851257324219,0.4714422225952148
0.4636968612670898,0.4719017028808594
0.4636968612670898,0.4719017028808594
0.4635784149169921,0.4764141082763672
0.4635784149169921,0.4764141082763672
0.4626010894775390,0.4732177734375000
0.4626010894775390,0.4732177734375000
0.4670064926147461,0.4764020919799805
0.4670064926147461,0.4764020919799805
0.4639017105102539,0.4752399444580078
0.4639017105102539,0.4752399444580078
0.4655828475952148,0.4748205184936523
0.4655828475952148,0.4748205184936523
0.4643325805664062,0.4768844604492187
0.4643325805664062,0.4768844604492187
0.4612455368041992,0.4689182281494140
0.4612455368041992,0.4689182281494140
0.4614040374755859,0.4637071609497070
0.4614040374755859,0.4637071609497070
0.4524518966674804,0.4512136459350586
0.4524518966674804,0.4512136459350586
0.4480230331420899,0.4398141860961914
0.4426311492919922,0.4398141860961914
0.4427301406860352,0.4354099273681640
0.4427301406860352,0.4354099273681640
0.4381433486938476,0.4261510848999023
0.4381433486938476,0.4261510848999023
0.4401535034179687,0.4253911972045898
0.4401535034179687,0.4253911972045898
0.4354522705078125,0.4218601226806640
0.4354522705078125,0.4218601226806640
0.4366064071655273,0.4205640792846679
0.4366064071655273,0.4205640792846679
0.4358579635620117,0.4239137649536133
0.4358579635620117,0.4239137649536133
0.4345235824584961,0.4200891494750976
0.4345235824584961,0.4200891494750976
0.4387132644653320,0.4232065200805664
0.4387132644653320,0.4232065200805664
0.4356742858886719,0.4221118927001953
0.4356742858886719,0.4221118927001953
0.4378503799438476,0.4226989746093750
0.4378503799438476,0.4226989746093750
0.4374944686889649,0.4271501541137695
0.4374944686889649,0.4271501541137695
0.4366928100585937,0.4242038726806641
0.4366928100585937,0.4242038726806641
0.4413825988769531,0.4281011581420898
0.4413825988769531,0.4281011581420898
0.4386016845703125,0.4277744293212891
0.4386016845703125,0.4277744293212891
0.4411840438842773,0.4292484283447265
0.4411840438842773,0.4292484283447265
0.4413694381713867,0.4346935272216797
0.4413694381713867,0.4346935272216797
0.4411766052246094,0.4327268600463867
0.4411766052246094,0.4327268600463867
0.4462509155273438,0.4375041961669922
0.4462509155273438,0.4375041961669922
0.4437875747680664,0.4377342224121094
0.4437875747680664,0.4377342224121094
0.4464683532714844,0.4390045166015625
0.4464683532714844,0.4390045166015625
0.4463624954223633,0.4437372207641602
0.4463624954223633,0.4437372207641602
0.4454727172851562,0.4404808044433594
0.4454727172851562,0.4404808044433594
0.4497179031372070,0.4434677124023437
0.4497179031372070,0.4434677124023437
0.4463012695312500,0.4417911529541015
0.4463012695312500,0.4417911529541015
0.4480916976928711,0.4415313720703125
0.4480916976928711,0.4415313720703125
0.4471149444580078,0.4447917938232422
0.4471149444580078,0.4447917938232422
0.4456764221191406,0.4406793594360351
0.4456764221191406,0.4406793594360351
0.4497505187988281,0.4434705734252929
0.4497505187988281,0.4434705734252929
0.4462549209594727,0.4417013168334961
0.4462549209594727,0.4417013168334961
0.4482009887695312,0.4417619705200195
0.4482009887695312,0.4417619705200195
0.4474720001220703,0.4458057403564453
0.4474720001220703,0.4458057403564453
0.4465930938720703,0.4424892425537109
0.4465930938720703,0.4424892425537109
0.4509544372558594,0.4460718154907227
0.4509544372558594,0.4460718154907227
0.4478628158569336,0.4452707290649414
0.4478628158569336,0.4452707290649414
0.4504343032836914,0.4464460372924804
0.4504343032836914,0.4464460372924804
0.4501831054687500,0.4513463973999023
0.4501831054687500,0.4513463973999023
0.4498884201049805,0.4488349914550781
0.4498884201049805,0.4488349914550781
0.4547115325927734,0.4533971786499023
0.4547115325927734,0.4533971786499023
0.4520496368408203,0.4533645629882812
0.4520496368408203,0.4533645629882812
0.4549673080444336,0.4552282333374023
0.4549673080444336,0.4552282333374023
0.4550743103027344,0.4604936599731445
0.4550743103027344,0.4604936599731445
0.4547664642333984,0.4583015441894531
0.4547664642333984,0.4583015441894531
0.4597383499145508,0.4628648757934570
0.4597383499145508,0.4628648757934570
0.4570524215698242,0.4625816345214844
0.4570524215698242,0.4625816345214844
0.4597257614135742,0.4639154434204101
0.4597257614135742,0.4639154434204101
0.4594236373901367,0.4686578750610351
0.4594236373901367,0.4686578750610351
0.4589647293090820,0.4658260345458984
0.4589647293090820,0.4658260345458984
0.4634994506835937,0.4696706771850586
0.4634994506835937,0.4696706771850586
0.4603986740112305,0.4686109542846679
0.4603986740112305,0.4686109542846679
0.4628299713134765,0.4693347930908203
0.4628299713134765,0.4693347930908203
0.4621953964233398,0.4734706878662109
0.4621953964233398,0.4734706878662109
0.4615831375122070,0.4702520370483398
0.4615831375122070,0.4702520370483398
0.4659822463989258,0.4738162994384765
0.4659822463989258,0.4738162994384765
0.4627155303955078,0.4725900650024414
0.4627155303955078,0.4725900650024414
0.4651737213134766,0.4733997344970703
0.4651737213134766,0.4733997344970703
0.4646369934082031,0.4774543762207031
0.4646369934082031,0.4774543762207031
0.4636905670166016,0.4741567611694336
0.4636905670166016,0.4741567611694336
0.4678831100463867,0.4777576446533203
0.4678831100463867,0.4777576446533203
0.4648406982421875,0.4767059326171875
0.4648406982421875,0.4767059326171875
0.4673023223876953,0.4775001525878906
0.4673023223876953,0.4775001525878906
0.4667432785034180,0.4816165924072265
0.4667432785034180,0.4816165924072265
0.4660125732421875,0.4783515930175781
0.4660125732421875,0.4783515930175781
0.4702434539794922,0.4819725036621094
0.4702434539794922,0.4819725036621094
0.4669303894042969,0.4806158065795898
0.4669303894042969,0.4806158065795898
0.4691900253295898,0.4808549880981445
0.4691900253295898,0.4808549880981445
0.4697954177856445,0.4795989990234375
0.4697954177856445,0.4795989990234375
0.4697954177856445,0.4806472778320312
0.4664371490478516,0.4773931503295898
0.4664371490478516,0.4773931503295898
0.4628225326538086,0.4671346664428710
0.4628225326538086,0.4671346664428710
0.4587781906127930,0.4605062484741211
0.4587781906127930,0.4605062484741211
0.4486541748046875,0.4457931518554688
0.4486541748046875,0.4457931518554688
0.4468877792358398,0.4369348526000976
0.4468877792358398,0.4369348526000976
0.4415874481201172,0.4314359664916992
0.4415874481201172,0.4314359664916992
0.4392745971679687,0.4244018554687500
0.4392745971679687,0.4244018554687500
0.4393003463745117,0.4263278961181641
0.4393003463745117,0.4263278961181641
0.4349493026733398,0.4227035522460937
0.4349493026733398,0.4227035522460937
0.4386291503906250,0.4230205535888672
0.4386291503906250,0.4230205535888672
0.4369274139404297,0.4235635757446289
0.4369274139404297,0.4235635757446289
0.4372627258300781,0.4210367202758789
0.4372627258300781,0.4210367202758789
0.4388385772705078,0.4259450912475586
0.4388385772705078,0.4259450912475586
0.4354854583740234,0.4239137649536133
0.4354854583740234,0.4239137649536133
0.4399154663085937,0.4254713058471680
0.4399154663085937,0.4254713058471680
0.4385049819946289,0.4267702102661133
0.4385049819946289,0.4267702102661133
0.4389719009399414,0.4249477386474609
0.4389719009399414,0.4249477386474609
0.4410827636718750,0.4304380416870117
0.4410827636718750,0.4304380416870117
0.4382205963134765,0.4290613174438476
0.4382205963134765,0.4290613174438476
0.4429813385009765,0.4313409805297851
0.4429813385009765,0.4313409805297851
0.4421276092529297,0.4335062026977539
0.4421276092529297,0.4335062026977539
0.4430505752563477,0.4324487686157226
0.4430505752563477,0.4324487686157226
0.4453022003173828,0.4383951187133789
0.4453022003173828,0.4383951187133789
0.4425046920776367,0.4370796203613281
0.4425046920776367,0.4370796203613281
0.4471670150756836,0.4390789031982422
0.4471670150756836,0.4390789031982422
0.4458812713623047,0.4402845382690430
0.4458812713623047,0.4402845382690430
0.4463516235351562,0.4381301879882812
0.4463516235351562,0.4381301879882812
0.4477998733520508,0.4426540374755859
0.4477998733520508,0.4426540374755859
0.4443632125854492,0.4400808334350586
0.4443632125854492,0.4400808334350586
0.4484058380126953,0.4409299850463867
0.4484058380126953,0.4409299850463867
0.4466325759887695,0.4413608551025390
0.4466325759887695,0.4413608551025390
0.4467132568359375,0.4386428833007812
0.4467132568359375,0.4386428833007812
0.4481483459472656,0.4432073593139648
0.4481483459472656,0.4432073593139648
0.4447202682495117,0.4406255722045898
0.4447202682495117,0.4406255722045898
0.4489660263061523,0.4419439315795898
0.4489660263061523,0.4419439315795898
0.4475521087646484,0.4430746078491211
0.4511758804321289,0.4430746078491211
0.4480642318725586,0.4414049148559570
0.4480642318725586,0.4414049148559570
0.4500240325927734,0.4468231201171875
0.4500240325927734,0.4468231201171875
0.4472356796264648,0.4453096389770508
0.4472356796264648,0.4453096389770508
0.4521915435791015,0.4478685379028320
0.4521915435791015,0.4478685379028320
0.4515089035034179,0.4503273010253906
0.4515089035034179,0.4503273010253906
0.4526338577270508,0.4498432159423828
0.4518962860107422,0.4498432159423828
0.4553655624389648,0.4565814971923828
0.4553655624389648,0.4565814971923828
0.4531848907470703,0.4563114166259765
0.4531848907470703,0.4563114166259765
0.4584680557250976,0.4594923019409179
0.4584680557250976,0.4594923019409179
0.4580039978027344,0.4624162673950195
0.4580039978027344,0.4624162673950195
0.4591398239135742,0.4620780944824219
0.4591398239135742,0.4620780944824219
0.4615407943725586,0.4681686401367187
0.4615407943725586,0.4681686401367187
0.4591466903686523,0.4673234939575195
0.4591466903686523,0.4673234939575195
0.4638891220092773,0.4697216033935547
0.4638891220092773,0.4697216033935547
0.4629770278930664,0.4713701248168945
0.4629770278930664,0.4713701248168945
0.4637517929077148,0.4702783584594726
0.4637517929077148,0.4702783584594726
0.4652378082275390,0.4750911712646484
0.4652378082275390,0.4750911712646484
0.4626256942749023,0.4732149124145508
0.4626256942749023,0.4732149124145508
0.4667003631591797,0.4749292373657226
0.4667003631591797,0.4749292373657226
0.4652738571166992,0.4755998611450195
0.4652738571166992,0.4755998611450195
0.4659833908081055,0.4742683410644531
0.4659833908081055,0.4742683410644531
0.4669641494750976,0.4785993576049805
0.4669641494750976,0.4785993576049805
0.4643594741821289,0.4766361236572265
0.4643594741821289,0.4766361236572265
0.4684061050415039,0.4783332824707031
0.4684061050415039,0.4783332824707031
0.4671060562133789,0.4789381027221680
0.4671060562133789,0.4789381027221680
0.4677600860595703,0.4780059814453125
0.4677600860595703,0.4780059814453125
0.4688959121704102,0.4823913574218750
0.4688959121704102,0.4823913574218750
0.4665092468261718,0.4806844711303710
0.4665092468261718,0.4806844711303710
0.4705163955688476,0.4825521469116211
0.4705163955688476,0.4825521469116211
0.4691785812377929,0.4831953048706055
0.4691785812377929,0.4831953048706055
0.4698389053344726,0.4822511672973633
0.4698389053344726,0.4822511672973633
0.4708150863647461,0.4864265441894531
0.4708150863647461,0.4864265441894531
0.4679254531860351,0.4836565017700195
0.4679254531860351,0.4836565017700195
0.4711572647094726,0.4834436416625976
0.4711572647094726,0.4834436416625976
0.4677114486694336,0.4797002792358398
0.4677114486694336,0.4797002792358398
0.4642667770385742,0.4703573226928711
0.4642667770385742,0.4703573226928711
0.4599220275878906,0.4634679794311523
0.4599220275878906,0.4634679794311523
0.4501550674438476,0.4480224609375000
0.4501550674438476,0.4480224609375000
0.4482049942016602,0.4390073776245117
0.4482049942016602,0.4390073776245117
0.4426408767700195,0.4326473236083984
0.4426408767700195,0.4326473236083984
0.4402530670166016,0.4263027191162109
0.4402530670166016,0.4263027191162109
0.4398193359375000,0.4278133392333984
0.4398193359375000,0.4278133392333984
0.4357177734375000,0.4234439849853516
0.4357177734375000,0.4234439849853516
0.4393529891967773,0.4240362167358399
0.4393529891967773,0.4240362167358399
0.4376575469970703,0.4239526748657226
0.4376575469970703,0.4239526748657226
0.4381914138793945,0.4228317260742188
0.4381914138793945,0.4228317260742188
0.4393363952636719,0.4270980834960937
0.4393363952636719,0.4270980834960937
