REDsignal,IRsignal
0.3040912628173828,0.2446105957031250
0.3040912628173828,0.2446105957031250
0.3143743515014648,0.2387866973876953
0.3143743515014648,0.2387866973876953
0.3151908874511719,0.2518741607666016
0.3151908874511719,0.2518741607666016
0.3054880142211914,0.2360750198364258
0.3054880142211914,0.2360750198364258
0.3204963684082031,0.2499423980712890
0.3204963684082031,0.2499423980712890
0.3051790237426757,0.2463615417480469
0.3051790237426757,0.2463615417480469
0.3159233093261719,0.2407459259033203
0.3159233093261719,0.2407459259033203
0.3172674179077148,0.2547735214233398
0.3172674179077148,0.2547735214233398
0.3077058792114258,0.2391855239868164
0.3077058792114258,0.2391855239868164
0.3227806091308594,0.2528429031372070
0.3227806091308594,0.2528429031372070
0.3076629638671875,0.2495132446289062
0.3076629638671875,0.2495132446289062
0.3181737899780273,0.2439634323120117
0.3181737899780273,0.2439634323120117
0.3196701049804687,0.2579011917114258
0.3196701049804687,0.2579011917114258
0.3097103118896484,0.2422153472900390
0.3144315719604492,0.2422153472900390
0.3247186660766602,0.2552690505981445
0.3247186660766602,0.2552690505981445
0.3092966079711914,0.2522747039794922
0.3092966079711914,0.2522747039794922
0.3195693969726562,0.2459186553955078
0.3195693969726562,0.2459186553955078
0.3208030700683593,0.2595193862915039
0.3239645004272461,0.2595193862915039
0.3107173919677734,0.2434644699096680
0.3107173919677734,0.2434644699096680
0.3256587982177734,0.2568323135375977
0.3256587982177734,0.2568323135375977
0.3103626251220703,0.2540256500244141
0.3103626251220703,0.2540256500244141
0.3207532882690430,0.2478069305419922
0.3207532882690430,0.2478069305419922
0.3226902008056641,0.2619060516357422
0.3226902008056641,0.2619060516357422
0.3125656127929687,0.2462871551513672
0.3125656127929687,0.2462871551513672
0.3285587310791016,0.2608697891235351
0.3285587310791016,0.2608697891235351
0.3126274108886719,0.2583778381347656
0.3126274108886719,0.2583778381347656
0.3244457244873047,0.2523651123046875
0.3244457244873047,0.2523651123046875
0.3261880874633789,0.2677991867065430
0.3261880874633789,0.2677991867065430
0.3159530639648437,0.2518581390380859
0.3159530639648437,0.2518581390380859
0.3320331573486328,0.2660562515258789
0.3320331573486328,0.2660562515258789
0.3170013427734375,0.2642503738403320
0.3170013427734375,0.2642503738403320
0.3281003952026367,0.2585987091064453
0.3281003952026367,0.2585987091064453
0.3307119369506836,0.2740270614624024
0.3307119369506836,0.2740270614624024
0.3208093643188477,0.2593385696411133
0.3208093643188477,0.2593385696411133
0.3371515274047852,0.2735080718994141
0.3371515274047852,0.2735080718994141
0.3224533081054687,0.2729558944702148
0.3224533081054687,0.2729558944702148
0.3338836669921875,0.2675331115722656
0.3338836669921875,0.2675331115722656
0.3367738723754883,0.2830415725708008
0.3367738723754883,0.2830415725708008
0.3265005111694336,0.2676710128784179
0.3265005111694336,0.2676710128784179
0.3419231414794922,0.2803459167480469
0.3419231414794922,0.2803459167480469
0.3257223129272461,0.2767416000366211
0.3257223129272461,0.2767416000366211
0.3340381622314453,0.2667200088500977
0.3340381622314453,0.2667200088500977
0.3336153030395508,0.2768159866333008
0.3336153030395508,0.2768159866333008
0.3193193435668945,0.2560506820678711
0.3193193435668945,0.2560506820678711
0.3314506530761719,0.2635957717895508
0.3314506530761719,0.2635957717895508
0.3126852035522461,0.2573089599609375
0.3126852035522461,0.2573089599609375
0.3197874069213867,0.2460754394531250
0.3197874069213867,0.2460754394531250
0.3202526092529297,0.2577203750610351
0.3202526092529297,0.2577203750610351
0.3074958801269531,0.2399866104125976
0.3074958801269531,0.2399866104125976
0.3212459564208984,0.2500488281250000
0.3212459564208984,0.2500488281250000
0.3053621292114257,0.2468839645385742
0.3053621292114257,0.2468839645385742
0.3137025833129883,0.2383861541748047
0.3137025833129883,0.2383861541748047
0.3158798217773438,0.2515583038330078
0.3158798217773438,0.2515583038330078
0.3040105819702149,0.2354095458984375
0.3040105819702149,0.2354095458984375
0.3188816070556640,0.2462339401245117
0.3188816070556640,0.2462339401245117
0.3037822723388672,0.2447336196899414
0.3037822723388672,0.2447336196899414
0.3127075195312500,0.2368263244628906
0.3127075195312500,0.2368263244628906
0.3156480789184570,0.2511394500732422
0.3156480789184570,0.2511394500732422
0.3043287277221680,0.2355480194091797
0.3043287277221680,0.2355480194091797
0.3197278976440430,0.2473085403442383
0.3197278976440430,0.2473085403442383
0.3049936294555664,0.2464250564575195
0.3049936294555664,0.2464250564575195
0.3140047073364258,0.2387889862060547
0.3140047073364258,0.2387889862060547
0.3175867080688476,0.2534219741821289
0.3175867080688476,0.2534219741821289
0.3062770843505859,0.2386945724487305
0.3129117965698242,0.2386945724487305
0.3220928192138672,0.2505168914794922
0.3220928192138672,0.2505168914794922
0.3077985763549805,0.2501798629760742
0.3077985763549805,0.2501798629760742
0.3169137954711914,0.2425878524780273
0.3169137954711914,0.2425878524780273
0.3207750320434570,0.2579664230346679
0.3207750320434570,0.2579664230346679
0.3093458175659179,0.2430587768554687
0.3093458175659179,0.2430587768554687
0.3252079010009766,0.2549428939819336
0.3252079010009766,0.2549428939819336
0.3110469818115234,0.2544153213500976
0.3110469818115234,0.2544153213500976
0.3196998596191406,0.2470024108886719
0.3196998596191406,0.2470024108886719
0.3236629486083984,0.2618316650390625
0.3236629486083984,0.2618316650390625
0.3118188858032226,0.2466899871826172
0.3118188858032226,0.2466899871826172
0.3275161743164062,0.2578479766845703
0.3275161743164062,0.2578479766845703
0.3131126403808593,0.2577392578125000
0.3131126403808593,0.2577392578125000
0.3215755462646484,0.2501094818115234
0.3215755462646484,0.2501094818115234
0.3259111404418945,0.2652008056640625
0.3259111404418945,0.2652008056640625
0.3142976760864258,0.2503995895385742
0.3142976760864258,0.2503995895385742
0.3303583145141601,0.2623106002807617
0.3303583145141601,0.2623106002807617
0.3165344238281250,0.2626728057861328
0.3165344238281250,0.2626728057861328
0.3248033523559570,0.2549606323242187
0.3157625198364258,0.2549606323242187
0.3296361923217773,0.2700216293334961
0.3296361923217773,0.2700216293334961
0.3179958343505859,0.2558509826660156
0.3179958343505859,0.2558509826660156
0.3341165542602539,0.2676607131958008
0.3341165542602539,0.2676607131958008
0.3203756332397461,0.2681871414184570
0.3354852676391601,0.2681871414184570
0.3287950515747070,0.2605899810791015
0.3287950515747070,0.2605899810791015
0.3339918136596680,0.2767215728759765
0.3339918136596680,0.2767215728759765
0.3222421646118164,0.2621704101562500
0.3222421646118164,0.2621704101562500
0.3384120941162109,0.2741357803344727
0.3384120941162109,0.2741357803344727
0.3247381210327148,0.2744070053100586
0.3247381210327148,0.2744070053100586
0.3237842559814453,0.2710281372070312
0.3389099121093750,0.2710281372070312
0.3388521194458008,0.2729890823364258
0.3388521194458008,0.2729890823364258
0.3338270187377930,0.2832435607910156
0.3338270187377930,0.2832435607910156
0.3298450469970703,0.2698350906372070
0.3298450469970703,0.2698350906372070
0.3422927856445312,0.2840034484863281
0.3422927856445312,0.2840034484863281
0.3254596710205078,0.2731166839599609
0.3254596710205078,0.2731166839599609
0.3381099700927734,0.2710630416870117
0.3381099700927734,0.2710630416870117
0.3303714752197265,0.2770986557006836
0.3303714752197265,0.2770986557006836
0.3231828689575195,0.2594106674194336
0.3231828689575195,0.2594106674194336
0.3329000473022461,0.2692537307739258
0.3329000473022461,0.2692537307739258
0.3140739440917968,0.2557994842529297
0.3140739440917968,0.2557994842529297
0.3255798339843750,0.2529951095581054
0.3255798339843750,0.2529951095581054
0.3185411453247070,0.2600933074951172
0.3185411453247070,0.2600933074951172
0.3121885299682617,0.2437328338623047
0.3121885299682617,0.2437328338623047
0.3235502243041992,0.2563837051391601
0.3235502243041992,0.2563837051391601
0.3066965103149414,0.2456937789916992
0.3066965103149414,0.2456937789916992
0.3197725296020508,0.2453292846679687
0.3197725296020508,0.2453292846679687
0.3146890640258789,0.2542533874511719
0.3146890640258789,0.2542533874511719
0.3092502593994140,0.2399099349975586
0.3092502593994140,0.2399099349975586
0.3220127105712891,0.2540679931640625
0.3220127105712891,0.2540679931640625
0.3060459136962890,0.2449968338012695
0.3060459136962890,0.2449968338012695
0.3199167251586914,0.2452383041381836
0.3199167251586914,0.2452383041381836
0.3158666610717774,0.2556512832641601
0.3158666610717774,0.2556512832641601
0.3106813430786133,0.2419298171997070
0.3106813430786133,0.2419298171997070
0.3243364334106445,0.2572980880737304
0.3087043762207031,0.2486068725585937
0.3229825973510742,0.2495155334472656
0.3229825973510742,0.2495155334472656
0.3195436477661133,0.2607519149780274
0.3195436477661133,0.2607519149780274
0.3144573211669922,0.2474647521972656
0.3144573211669922,0.2474647521972656
0.3283304214477539,0.2628948211669922
0.3283304214477539,0.2628948211669922
0.3129306793212890,0.2545858383178711
0.3129306793212890,0.2545858383178711
0.3269611358642578,0.2552003860473633
0.3269611358642578,0.2552003860473633
0.3236629486083984,0.2665449142456054
0.3236629486083984,0.2665449142456054
0.3179981231689453,0.2523067474365234
0.3179981231689453,0.2523067474365234
0.3314970016479492,0.2674163818359375
0.3314970016479492,0.2674163818359375
0.3158197402954102,0.2584390640258789
0.3158197402954102,0.2584390640258789
0.3292900085449219,0.2589220046997070
0.3292900085449219,0.2589220046997070
0.3259735107421875,0.2697086334228516
0.3259735107421875,0.2697086334228516
0.3199619293212890,0.2554498672485351
0.3199619293212890,0.2554498672485351
0.3337291717529297,0.2704639434814453
0.3337291717529297,0.2704639434814453
0.3179603576660156,0.2617395401000976
0.3179603576660156,0.2617395401000976
0.3310695648193359,0.2613847732543945
0.3310695648193359,0.2613847732543945
0.3279876708984375,0.2720781326293945
0.3279876708984375,0.2720781326293945
0.3214193344116211,0.2571733474731445
0.3214193344116211,0.2571733474731445
0.3346355438232422,0.2718835830688476
0.3346355438232422,0.2718835830688476
0.3183832168579102,0.2622482299804688
0.3183832168579102,0.2622482299804688
0.3307050704956054,0.2610111236572266
0.3307050704956054,0.2610111236572266
0.3272438049316406,0.2710830688476563
0.3272438049316406,0.2710830688476563
0.3202245712280273,0.2559213638305664
0.3202245712280273,0.2559213638305664
0.3333583831787109,0.2700147628784180
0.3333583831787109,0.2700147628784180
0.3174705505371094,0.2611026763916016
0.3174705505371094,0.2611026763916016
0.3299028396606445,0.2602890014648437
0.3299028396606445,0.2602890014648437
0.3275001525878906,0.2719139099121093
0.3275001525878906,0.2719139099121093
0.3210903167724609,0.2573856353759765
0.3210903167724609,0.2573856353759765
0.3350698471069336,0.2729856491088867
0.3350698471069336,0.2729856491088867
0.3196289062500000,0.2645284652709961
0.3196289062500000,0.2645284652709961
0.3330116271972656,0.2645359039306641
0.3330116271972656,0.2645359039306641
0.3306421279907226,0.2762775421142578
0.3306421279907226,0.2762775421142578
0.3235181808471679,0.2605098724365234
0.3235181808471679,0.2605098724365234
0.3371932983398437,0.2754301071166992
0.3371932983398437,0.2754301071166992
0.3199161529541015,0.2648403167724609
0.3199161529541015,0.2648403167724609
0.3312755584716797,0.2615770339965820
0.3312755584716797,0.2615770339965820
0.3268644332885742,0.2701372146606445
0.3268644332885742,0.2701372146606445
0.3171398162841797,0.2510627746582031
0.3171398162841797,0.2510627746582031
0.3291275024414063,0.2635551452636719
0.3291275024414063,0.2635551452636719
0.3110664367675781,0.2519542694091797
0.3110664367675781,0.2519542694091797
0.3220584869384766,0.2485353469848633
0.3220584869384766,0.2485353469848633
0.3184043884277344,0.2583612442016601
0.3184043884277344,0.2583612442016601
0.3098796844482422,0.2411762237548828
0.3098796844482422,0.2411762237548828
0.3232069015502930,0.2551345825195312
0.3232069015502930,0.2551345825195312
0.3064424514770508,0.2454259872436523
0.3064424514770508,0.2454259872436523
0.3179471969604492,0.2427824020385742
0.3179471969604492,0.2427824020385742
0.3151142120361328,0.2537149429321289
0.3151142120361328,0.2537149429321289
0.3070472717285156,0.2369567871093750
0.3070472717285156,0.2369567871093750
0.3208608627319336,0.2516824722290039
0.3208608627319336,0.2516824722290039
0.3045255661010742,0.2426347732543945
0.3045255661010742,0.2426347732543945
0.3162500381469727,0.2405725479125976
0.3162500381469727,0.2405725479125976
0.3142301559448242,0.2521179199218750
0.3142301559448242,0.2521179199218750
0.3065248489379883,0.2363634109497070
0.3065248489379883,0.2363634109497070
0.3207921981811523,0.2513895034790039
0.3207921981811523,0.2513895034790039
0.3055847167968750,0.2441207885742187
0.3055847167968750,0.2441207885742187
0.3173498153686523,0.2425231933593750
0.3173498153686523,0.2425231933593750
0.3165189743041992,0.2550899505615234
0.3165189743041992,0.2550899505615234
0.3092737197875977,0.2402149200439453
0.3092737197875977,0.2402149200439453
0.3238712310791015,0.2559865951538086
0.3238712310791015,0.2559865951538086
0.3090654373168945,0.2491539001464844
0.3090654373168945,0.2491539001464844
0.3208791732788086,0.2475648880004883
0.3208791732788086,0.2475648880004883
0.3201953887939453,0.2602901458740234
0.3201953887939453,0.2602901458740234
0.3128414154052734,0.2455661773681641
0.3128414154052734,0.2455661773681641
0.3274663925170898,0.2606643676757812
0.3274663925170898,0.2606643676757812
0.3122634887695312,0.2536514282226562
0.3122634887695312,0.2536514282226562
0.3236125946044922,0.2510581970214844
0.3236125946044922,0.2510581970214844
0.3224006652832031,0.2635288238525391
0.3224006652832031,0.2635288238525391
0.3144630432128906,0.2476907730102539
0.3144630432128906,0.2476907730102539
0.3287767410278320,0.2623289108276367
0.3287767410278320,0.2623289108276367
0.3134382247924805,0.2553789138793945
0.3134382247924805,0.2553789138793945
0.3245195388793945,0.2529396057128906
0.3245195388793945,0.2529396057128906
0.3237487792968750,0.2651046752929687
0.3237487792968750,0.2651046752929687
0.3157619476318359,0.2496265411376953
0.3157619476318359,0.2496265411376953
0.3301443099975586,0.2644466400146484
0.3301443099975586,0.2644466400146484
0.3149551391601562,0.2580133438110351
0.3149551391601562,0.2580133438110351
0.3259735107421875,0.2547449111938476
0.3259735107421875,0.2547449111938476
0.3251174926757812,0.2671554565429687
0.3251174926757812,0.2671554565429687
0.3168497085571289,0.2513706207275391
0.3168497085571289,0.2513706207275391
0.3313173294067382,0.2661781311035156
0.3313173294067382,0.2661781311035156
0.3159936904907226,0.2596252441406250
0.3159936904907226,0.2596252441406250
0.3270366668701172,0.2565279006958008
0.3270366668701172,0.2565279006958008
0.3266109466552734,0.2693029403686523
0.3266109466552734,0.2693029403686523
0.3183202743530273,0.2538866043090820
0.3183202743530273,0.2538866043090820
0.3332050323486328,0.2686906814575195
0.3332050323486328,0.2686906814575195
0.3178974151611328,0.2629720687866211
0.3178974151611328,0.2629720687866211
0.3290794372558594,0.2596836090087891
0.3290794372558594,0.2596836090087891
0.3287910461425781,0.2725748062133789
0.3287910461425781,0.2725748062133789
0.3203578948974609,0.2563550949096680
0.3203578948974609,0.2563550949096680
0.3346950531005859,0.2706813812255859
0.3346950531005859,0.2706813812255859
0.3185829162597656,0.2636838912963867
0.3185829162597656,0.2636838912963867
0.3282360076904297,0.2579338073730469
0.3282360076904297,0.2579338073730469
0.3260782241821289,0.2680870056152344
0.3260782241821289,0.2680870056152344
0.3153259277343750,0.2488723754882812
0.3153259277343750,0.2488723754882812
0.3283487319946289,0.2611724853515625
0.3283487319946289,0.2611724853515625
0.3107660293579101,0.2528388977050781
0.3107660293579101,0.2528388977050781
0.3203887939453125,0.2463386535644531
0.3203887939453125,0.2463386535644531
0.3187162399291992,0.2575223922729492
0.3187162399291992,0.2575223922729492
0.3086694717407226,0.2395563125610352
0.3086694717407226,0.2395563125610352
0.3223239898681641,0.2526792526245117
0.3223239898681641,0.2526792526245117
0.3058851242065430,0.2456571578979492
0.3058851242065430,0.2456571578979492
0.3157533645629882,0.2401485443115234
0.3157533645629882,0.2401485443115234
0.3153533935546875,0.2524389266967773
0.3153533935546875,0.2524389266967773
0.3061517715454101,0.2362083435058594
0.3098018646240234,0.2362083435058594
0.3206451416015625,0.2503005981445313
0.3206451416015625,0.2503005981445313
0.3053323745727539,0.2451255798339844
0.3053323745727539,0.2451255798339844
0.3159805297851562,0.2405187606811523
0.3159805297851562,0.2405187606811523
0.3163049697875976,0.2538248062133789
0.3163049697875976,0.2538248062133789
0.3076395034790039,0.2379581451416015
0.3076395034790039,0.2379581451416015
0.3224790573120117,0.2522809982299805
0.3224790573120117,0.2522809982299805
0.3074083328247070,0.2481027603149414
0.3074083328247070,0.2481027603149414
0.3184473037719727,0.2438180923461914
0.3184473037719727,0.2438180923461914
0.3192712783813477,0.2573936462402344
0.3192712783813477,0.2573936462402344
0.3105434417724609,0.2419498443603516
0.3105434417724609,0.2419498443603516
0.3254877090454101,0.2566549301147461
0.3254877090454101,0.2566549301147461
0.3106132507324219,0.2529911041259765
0.3264507293701172,0.2529911041259765
0.3216642379760742,0.2481845855712891
0.3216642379760742,0.2481845855712891
0.3227188110351563,0.2620559692382812
0.3227188110351563,0.2620559692382812
0.3136396408081055,0.2465446472167969
0.3136396408081055,0.2465446472167969
0.3286766052246093,0.2610111236572266
0.3286766052246093,0.2610111236572266
0.3136739730834961,0.2572603225708008
0.3136739730834961,0.2572603225708008
0.3245115280151367,0.2522306442260742
0.3245115280151367,0.2522306442260742
0.3256496429443359,0.2660001754760742
0.3256496429443359,0.2660001754760742
0.3163089752197266,0.2506410598754883
0.3163089752197266,0.2506410598754883
0.3205656051635742,0.2522037506103516
0.3205656051635742,0.2522037506103516
0.3267374038696289,0.2680326461791992
0.3269737243652344,0.2680326461791992
0.3170293807983398,0.2558979034423828
0.3170293807983398,0.2558979034423828
0.3316520690917968,0.2610969543457031
0.3316520690917968,0.2610969543457031
0.3224916458129883,0.2681591033935547
0.3224916458129883,0.2681591033935547
0.3225631713867188,0.2549343109130859
0.3225631713867188,0.2549343109130859
0.3332387924194336,0.2712152481079101
0.3332387924194336,0.2712152481079101
0.3189519882202148,0.2591617584228516
0.3189519882202148,0.2591617584228516
0.3336765289306641,0.2640695571899414
0.3336765289306641,0.2640695571899414
0.3246837615966797,0.2711311340332031
0.3246837615966797,0.2711311340332031
0.3244325637817383,0.2580654144287109
0.3244325637817383,0.2580654144287109
0.3350910186767578,0.2739292144775390
0.3350910186767578,0.2739292144775390
0.3203224182128906,0.2617601394653320
0.3203224182128906,0.2617601394653320
0.3350435256958008,0.2658176422119141
0.3350435256958008,0.2658176422119141
0.3259340286254883,0.2732814788818359
0.3259340286254883,0.2732814788818359
0.3253704071044922,0.2598615646362304
0.3253704071044922,0.2598615646362304
0.3362159729003906,0.2758443832397461
0.3362159729003906,0.2758443832397461
0.3216115951538086,0.2635780334472656
0.3216115951538086,0.2635780334472656
0.3361913681030274,0.2677391052246094
0.3361913681030274,0.2677391052246094
0.3267591476440430,0.2743486404418945
0.3267591476440430,0.2743486404418945
0.3245630264282227,0.2588470458984375
0.3245630264282227,0.2588470458984375
0.3336914062500000,0.2713022232055664
0.3336914062500000,0.2713022232055664
0.3163158416748047,0.2562034606933594
0.3163158416748047,0.2562034606933594
0.3285655975341797,0.2563522338867187
0.3285655975341797,0.2563522338867187
0.3172033309936523,0.2605745315551758
0.3172033309936523,0.2605745315551758
0.3142290115356445,0.2437322616577148
0.3142290115356445,0.2437322616577148
0.3233882904052734,0.2568666458129883
0.3233882904052734,0.2568666458129883
0.3069877624511719,0.2433156967163086
0.3069877624511719,0.2433156967163086
0.3205902099609375,0.2451038360595703
0.3205902099609375,0.2451038360595703
0.3107013702392578,0.2512081146240234
0.3207035064697266,0.2512081146240234
0.3088748931884766,0.2363708496093750
0.3088748931884766,0.2363708496093750
0.3195911407470703,0.2511978149414062
0.3195911407470703,0.2511978149414062
0.3033834457397461,0.2383827209472656
0.3163604736328125,0.2383827209472656
0.3183053970336914,0.2411201477050781
0.3035573959350586,0.2411201477050781
0.3088193893432617,0.2486715316772461
0.3088193893432617,0.2486715316772461
0.3074352264404297,0.2343086242675781
0.3074352264404297,0.2343086242675781
0.3187740325927734,0.2497364044189453
0.3187740325927734,0.2497364044189453
0.3030590057373047,0.2378940582275391
0.3030590057373047,0.2378940582275391
0.3181680679321289,0.2410663604736328
0.3181680679321289,0.2410663604736328
0.3095306396484375,0.2495510101318359
0.3095306396484375,0.2495510101318359
0.3083536148071289,0.2358804702758789
0.3083536148071289,0.2358804702758789
0.3207899093627929,0.2522106170654297
0.3207899093627929,0.2522106170654297
0.3055566787719726,0.2420991897583008
0.3055566787719726,0.2420991897583008
0.3219709396362305,0.2465755462646484
0.3219709396362305,0.2465755462646484
0.3140933990478516,0.2561073303222656
0.3140933990478516,0.2561073303222656
0.3134691238403320,0.2428453445434570
0.3134691238403320,0.2428453445434570
0.3259088516235352,0.2596750259399414
0.3259088516235352,0.2596750259399414
0.3104776382446289,0.2492420196533203
0.3104776382446289,0.2492420196533203
0.3262287139892578,0.2526758193969726
0.3262287139892578,0.2526758193969726
0.3182378768920898,0.2613475799560547
0.3182378768920898,0.2613475799560547
0.3164646148681641,0.2476181030273437
0.3164646148681641,0.2476181030273437
0.3285930633544922,0.2632587432861328
0.3285930633544922,0.2632587432861328
0.3127407073974609,0.2526374816894531
0.3127407073974609,0.2526374816894531
0.3279693603515625,0.2550167083740234
0.3279693603515625,0.2550167083740234
0.3201719284057617,0.2640832901000976
0.3201719284057617,0.2640832901000976
0.3183294296264648,0.2505958557128906
0.3183294296264648,0.2505958557128906
0.3302553176879883,0.2657999038696289
0.3302553176879883,0.2657999038696289
0.3147594451904297,0.2556547164916992
0.3147594451904297,0.2556547164916992
0.3297746658325195,0.2584161758422852
0.3297746658325195,0.2584161758422852
0.3225271224975586,0.2673288345336914
0.3225271224975586,0.2673288345336914
0.3202840805053711,0.2541910171508789
0.3202840805053711,0.2541910171508789
0.3325939178466797,0.2691312789916992
0.3325939178466797,0.2691312789916992
0.3173612594604492,0.2599479675292969
0.3173612594604492,0.2599479675292969
0.3323844909667968,0.2625074386596680
0.3323844909667968,0.2625074386596680
0.3255334854125976,0.2716512680053711
0.3255334854125976,0.2716512680053711
0.3230089187622070,0.2579166412353516
0.3230089187622070,0.2579166412353516
0.3352174758911133,0.2730279922485351
0.3352174758911133,0.2730279922485351
0.3196815490722656,0.2634366989135742
0.3196815490722656,0.2634366989135742
0.3343070983886718,0.2652368545532227
0.3343070983886718,0.2652368545532227
0.3272632598876953,0.2737455368041992
0.3272632598876953,0.2737455368041992
0.3241516113281250,0.2603536605834961
0.3241516113281250,0.2603536605834961
0.3365261077880859,0.2750358581542969
0.3365261077880859,0.2750358581542969
0.3206926345825195,0.2655309677124023
0.3206926345825195,0.2655309677124023
0.3353496551513672,0.2666988372802734
0.3353496551513672,0.2666988372802734
0.3285615921020508,0.2757511138916016
0.3285615921020508,0.2757511138916016
0.3248439788818359,0.2611925125122070
0.3248439788818359,0.2611925125122070
0.3359762191772461,0.2740556716918945
0.3283315658569336,0.2740556716918945
0.3186412811279297,0.2616703033447266
0.3186412811279297,0.2616703033447266
0.3307336807250976,0.2600212097167969
0.3307336807250976,0.2600212097167969
0.3219039916992187,0.2653181076049805
0.3219039916992187,0.2653181076049805
0.3155742645263672,0.2477525711059570
0.3155742645263672,0.2477525711059570
0.3255283355712891,0.2587423324584961
0.3172714233398438,0.2587423324584961
0.3076028823852539,0.2465892791748047
0.3076028823852539,0.2465892791748047
0.3204351425170898,0.2455089569091797
0.3204351425170898,0.2455089569091797
0.3129919052124023,0.2529996871948242
0.3129919052124023,0.2529996871948242
0.3081642150878906,0.2374952316284180
0.3081642150878906,0.2374952316284180
0.3197462081909180,0.2510038375854492
0.3197462081909180,0.2510038375854492
0.3032695770263672,0.2406887054443359
0.3032695770263672,0.2406887054443359
0.3172542572021484,0.2411727905273438
0.3172542572021484,0.2411727905273438
0.3113170623779297,0.2498325347900391
0.3113170623779297,0.2498325347900391
0.3069900512695312,0.2360464096069336
0.3069900512695312,0.2360464096069336
0.3195247650146484,0.2504030227661133
0.3195247650146484,0.2504030227661133
0.3034160614013672,0.2405879974365234
0.3034160614013672,0.2405879974365234
0.3183076858520508,0.2415996551513672
0.3183076858520508,0.2415996551513672
0.3126451492309570,0.2516881942749024
0.3126451492309570,0.2516881942749024
0.3086259841918945,0.2380451202392578
0.3086259841918945,0.2380451202392578
0.3215171813964844,0.2531827926635742
0.3215171813964844,0.2531827926635742
0.3059623718261719,0.2440589904785156
0.3059623718261719,0.2440589904785156
0.3209575653076172,0.2463123321533203
0.3209575653076172,0.2463123321533203
0.3166099548339844,0.2572048187255859
0.3166099548339844,0.2572048187255859
0.3128036499023437,0.2448291778564453
0.3128036499023437,0.2448291778564453
0.3266944885253906,0.2606929779052734
0.3266944885253906,0.2606929779052734
0.3120677947998047,0.2532194137573242
0.3120677947998047,0.2532194137573242
0.3270961761474609,0.2554367065429687
0.3270961761474609,0.2554367065429687
0.3232395172119141,0.2665855407714844
0.3232395172119141,0.2665855407714844
0.3194366455078125,0.2540359497070312
0.3194366455078125,0.2540359497070312
0.3333005905151367,0.2701097488403320
0.3333005905151367,0.2701097488403320
0.3182075500488281,0.2621818542480469
0.3182075500488281,0.2621818542480469
0.3327278137207031,0.2635139465332031
0.3327278137207031,0.2635139465332031
0.3287498474121094,0.2739715576171875
0.3287498474121094,0.2739715576171875
0.3239908218383789,0.2609189987182617
0.3239908218383789,0.2609189987182617
0.3372871398925781,0.2757917404174804
0.3372871398925781,0.2757917404174804
0.3215572357177734,0.2669048309326172
0.3215572357177734,0.2669048309326172
0.3353061676025391,0.2670204162597656
0.3353061676025391,0.2670204162597656
0.3310798645019531,0.2773126602172851
0.3310798645019531,0.2773126602172851
0.3256164550781250,0.2630744934082031
0.3256164550781250,0.2630744934082031
0.3382329940795898,0.2773412704467773
0.3382329940795898,0.2773412704467773
0.3221998214721680,0.2677196502685547
0.3221998214721680,0.2677196502685547
0.3356712341308594,0.2678077697753906
0.3356712341308594,0.2678077697753906
0.3315061569213867,0.2780096054077149
0.3315061569213867,0.2780096054077149
0.3257120132446289,0.2635414123535156
0.3257120132446289,0.2635414123535156
0.3389402389526367,0.2780714035034180
0.3389402389526367,0.2780714035034180
0.3230861663818359,0.2692926406860351
0.3230861663818359,0.2692926406860351
0.3366136550903320,0.2693973541259765
0.3366136550903320,0.2693973541259765
0.3329721450805664,0.2800569534301758
0.3329721450805664,0.2800569534301758
0.3272689819335937,0.2657999038696289
0.3272689819335937,0.2657999038696289
0.3406820297241211,0.2810714721679687
0.3406820297241211,0.2810714721679687
0.3250597000122070,0.2722440719604492
0.3250597000122070,0.2722440719604492
0.3379772186279297,0.2717250823974609
0.3379772186279297,0.2717250823974609
0.3339654922485352,0.2809129714965820
0.3339654922485352,0.2809129714965820
0.3264593124389648,0.2644781112670898
0.3264593124389648,0.2644781112670898
0.3376195907592773,0.2758020401000976
0.3376195907592773,0.2758020401000976
0.3189079284667969,0.2625726699829101
0.3324188232421875,0.2625726699829101
0.3286182403564453,0.2572196960449218
0.3286182403564453,0.2572196960449218
0.3223348617553711,0.2636226654052734
0.3223348617553711,0.2636226654052734
0.3130599975585938,0.2449888229370117
0.3130599975585938,0.2449888229370117
0.3238506317138672,0.2562475204467773
0.3238506317138672,0.2562475204467773
0.3061094284057617,0.2443771362304688
0.3061094284057617,0.2443771362304688
0.3174253463745117,0.2416265487670898
0.3174253463745117,0.2416265487670898
0.3130783081054687,0.2508247375488281
0.3130783081054687,0.2508247375488281
0.3052837371826172,0.2343744277954102
0.3052837371826172,0.2343744277954102
0.3181125640869141,0.2478778839111328
0.3181125640869141,0.2478778839111328
0.3017789840698242,0.2383237838745117
0.3017789840698242,0.2383237838745117
0.3137420654296875,0.2367633819580078
0.3137420654296875,0.2367633819580078
0.3106704711914062,0.2473222732543945
0.3106704711914062,0.2473222732543945
0.3037845611572266,0.2320112228393555
0.3037845611572266,0.2320112228393555
0.3174694061279297,0.2469594955444336
0.3174694061279297,0.2469594955444336
0.3018785476684570,0.2382345199584961
0.3018785476684570,0.2382345199584961
0.3144052505493164,0.2372852325439453
0.3144052505493164,0.2372852325439453
0.3121685028076172,0.2485868453979492
0.3121685028076172,0.2485868453979492
0.3054508209228515,0.2342262268066406
0.3070821762084961,0.2342262268066406
0.3103185653686523,0.2497741699218750
0.3106487274169922,0.2497741699218750
0.3043979644775390,0.2418416976928711
0.3043979644775390,0.2418416976928711
0.3172880172729492,0.2413255691528320
0.3172880172729492,0.2413255691528320
0.3155422210693359,0.2541200637817383
0.3155422210693359,0.2541200637817383
0.3092136383056641,0.2393972396850586
0.3092136383056641,0.2393972396850586
0.3239439010620117,0.2558589935302734
0.3239439010620117,0.2558589935302734
0.3084154129028320,0.2474784851074219
0.3084154129028320,0.2474784851074219
0.3215538024902344,0.2471918106079102
0.3215538024902344,0.2471918106079102
0.3197135925292969,0.2598861694335937
0.3197135925292969,0.2598861694335937
0.3130937576293945,0.2450117111206055
0.3130937576293945,0.2450117111206055
0.3277730941772461,0.2609241485595703
0.3277730941772461,0.2609241485595703
0.3126085281372070,0.2534374237060547
0.3126085281372070,0.2534374237060547
0.3251741409301758,0.2527187347412109
0.3133129119873047,0.2527187347412109
0.3233785629272461,0.2651390075683593
0.3233785629272461,0.2651390075683593
0.3165201187133789,0.2497604370117187
0.3165201187133789,0.2497604370117187
0.3312847137451172,0.2662879943847656
0.3312847137451172,0.2662879943847656
0.3159164428710937,0.2585054397583008
0.3159164428710937,0.2585054397583008
0.3283304214477539,0.2574520111083984
0.3283304214477539,0.2574520111083984
0.3267276763916016,0.2694431304931640
0.3267276763916016,0.2694431304931640
0.3192844390869141,0.2541109085083008
0.3192844390869141,0.2541109085083008
0.3339317321777344,0.2696033477783203
0.3339317321777344,0.2696033477783203
0.3178419113159179,0.2613327026367188
0.3178419113159179,0.2613327026367188
0.3295440673828125,0.2589151382446289
0.3295440673828125,0.2589151382446289
0.3277027130126953,0.2709983825683593
0.3277027130126953,0.2709983825683593
0.3198434829711914,0.2550619125366211
0.3198434829711914,0.2550619125366211
0.3341171264648438,0.2700736999511719
0.3341171264648438,0.2700736999511719
0.3182790756225586,0.2618448257446289
0.3182790756225586,0.2618448257446289
0.3295766830444336,0.2595554351806640
0.3295766830444336,0.2595554351806640
0.3280923843383789,0.2714349746704102
0.3280923843383789,0.2714349746704102
0.3200328826904297,0.2556169509887695
0.3200328826904297,0.2556169509887695
0.3342304229736328,0.2701200485229492
0.3342304229736328,0.2701200485229492
0.3187282562255859,0.2628198623657226
0.3187282562255859,0.2628198623657226
0.3296281814575195,0.2597476959228516
0.3296281814575195,0.2597476959228516
0.3279115676879883,0.2709039688110351
0.3321172714233399,0.2709039688110351
0.3187728881835937,0.2531673431396484
0.3187728881835937,0.2531673431396484
0.3313373565673828,0.2656299591064453
0.3313373565673828,0.2656299591064453
0.3138753890991211,0.2553703308105469
0.3138753890991211,0.2553703308105469
0.3224092483520508,0.2492048263549805
0.3224092483520508,0.2492048263549805
0.3193382263183593,0.2579092025756836
0.3193382263183593,0.2579092025756836
0.3089275360107422,0.2393634796142578
0.3089275360107422,0.2393634796142578
0.3213649749755859,0.2514535903930664
0.3213649749755859,0.2514535903930664
0.3043556213378906,0.2422634124755859
0.3043556213378906,0.2422634124755859
0.3139938354492187,0.2370660781860351
0.3139938354492187,0.2370660781860351
0.3120809555053711,0.2479871749877930
0.3120809555053711,0.2479871749877930
0.3027980804443359,0.2307666778564453
0.3027980804443359,0.2307666778564453
0.3161190032958984,0.2441871643066406
0.3056625366210937,0.2441871643066406
0.3003627777099609,0.2365716934204102
0.3003627777099609,0.2365716934204102
0.3108032226562500,0.2328638076782227
0.3108032226562500,0.2328638076782227
0.3098814010620117,0.2447261810302734
0.3098814010620117,0.2447261810302734
0.3011135101318359,0.2284292221069336
0.3011135101318359,0.2284292221069336
0.3153900146484375,0.2427228927612305
0.3153900146484375,0.2427228927612305
0.3001333236694336,0.2366901397705078
0.3001333236694336,0.2366901397705078
0.3111116409301758,0.2332574844360351
0.3111116409301758,0.2332574844360351
0.3108095169067382,0.2460016250610352
0.3108095169067382,0.2460016250610352
0.3025611877441406,0.2301652908325195
0.3025611877441406,0.2301652908325195
0.3173961639404297,0.2453504562377929
0.3173961639404297,0.2453504562377929
0.3024530410766602,0.2399883270263672
0.3024530410766602,0.2399883270263672
0.3134399414062500,0.2366781234741211
0.3134399414062500,0.2366781234741211
0.3138141632080078,0.2496133804321289
0.3138141632080078,0.2496133804321289
0.3055641174316406,0.2346937179565430
0.3055641174316406,0.2346937179565430
0.3206062316894531,0.2499132156372070
0.3206062316894531,0.2499132156372070
0.3058485031127929,0.2451616287231445
0.3058485031127929,0.2451616287231445
0.3172428131103516,0.2417964935302734
0.3172428131103516,0.2417964935302734
0.3180393218994140,0.2557537078857422
0.3180393218994140,0.2557537078857422
0.3101068496704101,0.2410583496093750
0.3101068496704101,0.2410583496093750
0.3254487991333008,0.2568008422851563
0.3254487991333008,0.2568008422851563
0.3105772018432617,0.2519548416137695
0.3105772018432617,0.2519548416137695
0.3222387313842773,0.2486715316772461
0.3222387313842773,0.2486715316772461
0.3226306915283203,0.2622894287109375
0.3226306915283203,0.2622894287109375
0.3139978408813476,0.2467844009399414
0.3139978408813476,0.2467844009399414
0.3292167663574219,0.2618270874023437
0.3292167663574219,0.2618270874023437
0.3142684936523437,0.2577724456787109
0.3142684936523437,0.2577724456787109
0.3256742477416992,0.2540805816650391
0.3256742477416992,0.2540805816650391
0.3263151168823242,0.2678186416625977
0.3263151168823242,0.2678186416625977
0.3179037094116211,0.2528949737548828
0.3179037094116211,0.2528949737548828
0.3334785461425781,0.2684926986694336
0.3334785461425781,0.2684926986694336
0.3190647125244140,0.2652551651000977
0.3190647125244140,0.2652551651000977
0.3306135177612304,0.2617229461669922
0.3306135177612304,0.2617229461669922
0.3321767807006836,0.2761259078979492
0.3321767807006836,0.2761259078979492
0.3238454818725586,0.2618654251098633
0.3238454818725586,0.2618654251098633
0.3394775390625000,0.2772079467773437
0.3394775390625000,0.2772079467773437
0.3248777389526367,0.2741163253784180
0.3248777389526367,0.2741163253784180
0.3363115310668945,0.2699060440063477
0.3363115310668945,0.2699060440063477
0.3376253128051758,0.2843507766723632
0.3416753768920898,0.2843507766723632
0.3289489746093750,0.2696142196655273
0.3289489746093750,0.2696142196655273
0.3442039489746094,0.2841213226318359
0.3442039489746094,0.2841213226318359
0.3291515350341797,0.2804008483886719
0.3291515350341797,0.2804008483886719
0.3396869659423828,0.2748207092285156
0.3396869659423828,0.2748207092285156
0.3397819519042969,0.2866012573242188
0.3397819519042969,0.2866012573242188
0.3283859252929687,0.2679725646972656
0.3283859252929687,0.2679725646972656
0.3405532836914062,0.2772554397583007
0.3405532836914062,0.2772554397583007
0.3218450546264648,0.2687141418457031
0.3218450546264648,0.2687141418457031
0.3284980773925781,0.2575269699096679
0.3284980773925781,0.2575269699096679
0.3257463455200195,0.2656219482421875
0.3257463455200195,0.2656219482421875
0.3127115249633789,0.2448909759521484
0.3127115249633789,0.2448909759521484
0.3247358322143555,0.2548404693603515
0.3247358322143555,0.2548404693603515
0.3071474075317382,0.2485422134399414
0.3071474075317382,0.2485422134399414
0.3158884048461914,0.2401473999023437
0.3158884048461914,0.2401473999023437
0.3157361984252929,0.2516624450683594
0.3157361984252929,0.2516624450683594
0.3048751831054687,0.2345249176025390
0.3048751831054687,0.2345249176025390
0.3189617156982422,0.2468479156494141
0.3189617156982422,0.2468479156494141
0.3027975082397461,0.2427080154418945
0.3027975082397461,0.2427080154418945
0.3129323959350586,0.2356424331665039
0.3129323959350586,0.2356424331665039
0.3140201568603516,0.2490972518920898
0.3140201568603516,0.2490972518920898
0.3036678314208984,0.2329519271850586
0.3036678314208984,0.2329519271850586
0.3183059692382812,0.2459032058715820
0.3068893432617187,0.2459032058715820
0.3030315399169922,0.2426301956176758
0.3030315399169922,0.2426301956176758
0.3132608413696289,0.2364646911621094
0.3132608413696289,0.2364646911621094
0.3149110794067383,0.2502977371215820
0.3149110794067383,0.2502977371215820
0.3049278259277344,0.2349477767944336
0.3049278259277344,0.2349477767944336
0.3202766418457031,0.2479585647583008
0.3202766418457031,0.2479585647583008
0.3053764343261718,0.2462865829467773
0.3053764343261718,0.2462865829467773
0.3160915374755859,0.2403945922851562
0.3160915374755859,0.2403945922851562
0.3181514739990234,0.2548387527465820
0.3181514739990234,0.2548387527465820
0.3083662033081054,0.2396907806396484
0.3083662033081054,0.2396907806396484
0.3237379074096680,0.2531398773193359
0.3237379074096680,0.2531398773193359
0.3084497451782227,0.2506965637207031
0.3084497451782227,0.2506965637207031
0.3187643051147461,0.2444234848022461
0.3187643051147461,0.2444234848022461
0.3208808898925781,0.2585638046264648
0.3208808898925781,0.2585638046264648
0.3106464385986328,0.2434089660644531
0.3106464385986328,0.2434089660644531
0.3258762359619141,0.2562801361083984
0.3258762359619141,0.2562801361083984
0.3106727600097656,0.2541973114013672
0.3106727600097656,0.2541973114013672
0.3209941864013672,0.2473863601684570
0.3209941864013672,0.2473863601684570
0.3232772827148437,0.2619386672973633
0.3232772827148437,0.2619386672973633
0.3128786087036133,0.2467134475708008
0.3128786087036133,0.2467134475708008
0.3281644821166992,0.2593545913696289
0.3281644821166992,0.2593545913696289
0.3132871627807617,0.2575349807739258
0.3132871627807617,0.2575349807739258
0.3233802795410156,0.2512195587158203
0.3233802795410156,0.2512195587158203
0.3260610580444336,0.2660505294799805
0.3260610580444336,0.2660505294799805
0.3152589797973633,0.2502582550048828
0.3152589797973633,0.2502582550048828
0.3313253402709961,0.2631643295288086
0.3313253402709961,0.2631643295288086
0.3154163360595703,0.2613372802734375
0.3154163360595703,0.2613372802734375
0.3258264541625976,0.2543329238891601
0.3258264541625976,0.2543329238891601
0.3282840728759766,0.2693143844604492
0.3282840728759766,0.2693143844604492
0.3175088882446289,0.2534740447998047
0.3175088882446289,0.2534740447998047
0.3334012985229492,0.2668258666992188
0.3213878631591797,0.2668258666992188
0.3182773590087891,0.2656534194946289
0.3182773590087891,0.2656534194946289
0.3285175323486328,0.2588476181030273
0.3285175323486328,0.2588476181030273
0.3316892623901367,0.2741197586059570
0.3316892623901367,0.2741197586059570
0.3208688735961914,0.2594970703125000
0.3208688735961914,0.2594970703125000
0.3373889923095703,0.2729530334472656
0.3373889923095703,0.2729530334472656
0.3225952148437500,0.2726354598999023
0.3225952148437500,0.2726354598999023
0.3330780029296875,0.2657552719116211
0.3330780029296875,0.2657552719116211
0.3358921051025390,0.2806703567504883
0.3358921051025390,0.2806703567504883
0.3237573623657227,0.2636627197265625
0.3237573623657227,0.2636627197265625
0.3378421783447266,0.2733186721801757
0.3378421783447266,0.2733186721801757
0.3200792312622070,0.2675949096679687
0.3200792312622070,0.2675949096679687
0.3263540267944336,0.2554664611816406
0.3263540267944336,0.2554664611816406
0.3259946823120117,0.2651464462280274
0.3259946823120117,0.2651464462280274
0.3106933593750000,0.2445951461791992
0.3151107788085937,0.2579446792602539
0.3233018875122070,0.2519119262695312
0.3097126007080078,0.2519119262695312
0.3060029983520507,0.2477903366088867
0.3060029983520507,0.2477903366088867
0.3130897521972656,0.2375043869018555
0.3130897521972656,0.2375043869018555
0.3149522781372070,0.2502405166625977
0.3149522781372070,0.2502405166625977
0.3023878097534179,0.2329381942749023
0.3023878097534179,0.2329381942749023
0.3170225143432617,0.2435817718505859
0.3170225143432617,0.2435817718505859
0.3017360687255859,0.2417690277099609
0.3017360687255859,0.2417690277099609
0.3098201751708984,0.2329610824584961
0.3098201751708984,0.2329610824584961
0.3130943298339844,0.2469760894775390
0.3130943298339844,0.2469760894775390
0.3009206771850586,0.2313795089721680
0.3009206771850586,0.2313795089721680
0.3164079666137695,0.2425415039062500
0.3164079666137695,0.2425415039062500
0.3017372131347656,0.2418016433715820
0.3017372131347656,0.2418016433715820
0.3104558944702148,0.2336511611938477
0.3104558944702148,0.2336511611938477
0.3145454406738281,0.2489547729492188
0.3145454406738281,0.2489547729492188
0.3028753280639648,0.2339790344238281
0.3028753280639648,0.2339790344238281
0.3185422897338867,0.2452789306640625
0.3185422897338867,0.2452789306640625
0.3042812347412109,0.2447645187377930
0.3042812347412109,0.2447645187377930
0.3126228332519531,0.2368251800537109
0.3126228332519531,0.2368251800537109
0.3170413970947266,0.2518095016479492
0.3170413970947266,0.2518095016479492
0.3049959182739257,0.2366380691528320
0.3049959182739257,0.2366380691528320
0.3209421157836914,0.2479705810546875
0.3209421157836914,0.2479705810546875
0.3067005157470703,0.2481193542480469
0.3067005157470703,0.2481193542480469
0.3148773193359375,0.2400941848754883
0.3148773193359375,0.2400941848754883
0.3194612503051757,0.2551557540893555
0.3194612503051757,0.2551557540893555
0.3072732925415039,0.2397399902343750
0.3072732925415039,0.2397399902343750
0.3232458114624023,0.2512790679931641
0.3232458114624023,0.2512790679931641
0.3091186523437500,0.2512498855590820
0.3091186523437500,0.2512498855590820
0.3167856216430664,0.2427040100097656
0.3167856216430664,0.2427040100097656
0.3214387893676758,0.2575080871582031
0.3214387893676758,0.2575080871582031
0.3091770172119140,0.2423767089843750
0.3091770172119140,0.2423767089843750
0.3250276565551758,0.2537784576416016
0.3250276565551758,0.2537784576416016
0.3111373901367188,0.2539855957031250
0.3111373901367188,0.2539855957031250
0.3188329696655273,0.2456617355346680
0.3188329696655273,0.2456617355346680
0.3239805221557617,0.2611621856689453
0.3239805221557617,0.2611621856689453
0.3116678237915039,0.2458002090454101
0.3116678237915039,0.2458002090454101
0.3274961471557617,0.2571372985839844
0.3274961471557617,0.2571372985839844
0.3137981414794922,0.2571561813354492
0.3137981414794922,0.2571561813354492
0.3211086273193359,0.2490343093872070
0.3211086273193359,0.2490343093872070
0.3266223907470703,0.2646532058715820
0.3266223907470703,0.2646532058715820
0.3145757675170898,0.2499601364135742
0.3145757675170898,0.2499601364135742
0.3310873031616211,0.2619638442993164
0.3310873031616211,0.2619638442993164
0.3175374984741211,0.2631597518920898
0.3175374984741211,0.2631597518920898
0.3252576828002929,0.2553525924682617
0.3252576828002929,0.2553525924682617
0.3311931610107422,0.2713171005249023
0.3311931610107422,0.2713171005249023
0.3192626953125000,0.2568414688110351
0.3192626953125000,0.2568414688110351
0.3357215881347656,0.2694311141967773
0.3357215881347656,0.2694311141967773
0.3230192184448242,0.2712781906127930
0.3230192184448242,0.2712781906127930
0.3300241470336914,0.2631820678710937
0.3300241470336914,0.2631820678710937
0.3357753753662109,0.2781354904174805
0.3357753753662109,0.2781354904174805
0.3226015090942383,0.2619277954101563
0.3226015090942383,0.2619277954101563
0.3367395401000977,0.2702836990356445
0.3367395401000977,0.2702836990356445
0.3208356857299804,0.2670965194702148
0.3208356857299804,0.2670965194702148
0.3240921020507813,0.2534236907958984
0.3240921020507813,0.2534236907958984
0.3270143508911132,0.2644832611083984
0.3270143508911132,0.2644832611083984
0.3114892959594727,0.2453413009643555
0.3114892959594727,0.2453413009643555
0.3245029449462891,0.2525751113891602
0.3245029449462891,0.2525751113891602
0.3090110778808594,0.2499155044555664
0.3090110778808594,0.2499155044555664
0.3127401351928711,0.2382293701171875
0.3127401351928711,0.2382293701171875
0.3173143386840820,0.2512481689453125
0.3173143386840820,0.2512481689453125
0.3033090591430664,0.2344213485717773
0.3033090591430664,0.2344213485717773
0.3181348800659179,0.2438587188720703
0.3181348800659179,0.2438587188720703
0.3044528961181641,0.2439645767211914
0.3044528961181641,0.2439645767211914
0.3095014572143555,0.2339046478271484
0.3095014572143555,0.2339046478271484
0.3154340744018554,0.2483121871948242
0.3154340744018554,0.2483121871948242
0.3021635055541992,0.2324552536010742
0.3021635055541992,0.2324552536010742
0.3177961349487304,0.2432647705078125
0.3177961349487304,0.2432647705078125
0.3049123764038086,0.2442804336547851
0.3049123764038086,0.2442804336547851
0.3101692199707031,0.2348602294921875
0.3101692199707031,0.2348602294921875
0.3169578552246093,0.2500230789184570
0.3169578552246093,0.2500230789184570
0.3040340423583984,0.2354890823364258
0.3040340423583984,0.2354890823364258
0.3200174331665039,0.2467557907104492
0.3200174331665039,0.2467557907104492
0.3078392028808594,0.2486749649047851
0.3078392028808594,0.2486749649047851
0.3132734298706055,0.2392404556274414
0.3132734298706055,0.2392404556274414
0.3206005096435547,0.2553279876708984
0.3206005096435547,0.2553279876708984
0.3077962875366211,0.2406927108764648
0.3077962875366211,0.2406927108764648
0.3239244461059570,0.2518655776977539
0.3239244461059570,0.2518655776977539
0.3116998672485352,0.2535020828247070
0.3116998672485352,0.2535020828247070
0.3165739059448242,0.2442420959472656
0.3165739059448242,0.2442420959472656
0.3238168716430664,0.2596481323242187
0.3238168716430664,0.2596481323242187
0.3104885101318359,0.2442615509033203
0.3104885101318359,0.2442615509033203
0.3261646270751953,0.2548233032226562
0.3261646270751953,0.2548233032226562
0.3137460708618164,0.2565570831298828
0.3137460708618164,0.2565570831298828
0.3181652069091797,0.2464822769165039
0.3181652069091797,0.2464822769165039
0.3251592636108399,0.2614952087402344
0.3251592636108399,0.2614952087402344
0.3115499496459961,0.2458190917968750
0.3115499496459961,0.2458190917968750
0.3270343780517578,0.2563253402709961
0.3270343780517578,0.2563253402709961
0.3147068023681641,0.2578479766845703
0.3147068023681641,0.2578479766845703
0.3186510086059570,0.2475265502929687
0.3186510086059570,0.2475265502929687
0.3239221572875977,0.2621875762939453
0.3120414733886719,0.2469171524047852
0.3120414733886719,0.2469171524047852
0.3274715423583984,0.2570669174194336
0.3274715423583984,0.2570669174194336
0.3151851654052734,0.2588756561279297
0.3151851654052734,0.2588756561279297
0.3191820144653320,0.2482263565063476
0.3191820144653320,0.2482263565063476
0.3266429901123047,0.2637067794799804
0.3266429901123047,0.2637067794799804
0.3131309509277344,0.2485078811645508
0.3131309509277344,0.2485078811645508
0.3288270950317383,0.2591188430786133
0.3288270950317383,0.2591188430786133
0.3172359466552734,0.2611238479614258
0.3172359466552734,0.2611238479614258
0.3210800170898437,0.2509941101074218
0.3210800170898437,0.2509941101074218
0.3287401199340820,0.2662868499755859
0.3287401199340820,0.2662868499755859
0.3148944854736328,0.2509037017822265
0.3148944854736328,0.2509037017822265
0.3305809020996094,0.2611724853515625
0.3305809020996094,0.2611724853515625
0.3184032440185547,0.2630315780639648
0.3184032440185547,0.2630315780639648
0.3217781066894531,0.2516458511352539
0.3217781066894531,0.2516458511352539
0.3285650253295898,0.2658605575561523
0.3285650253295898,0.2658605575561523
0.3128900527954102,0.2475036621093750
0.3128900527954102,0.2475036621093750
0.3267997741699218,0.2556964874267578
0.3267997741699218,0.2556964874267578
0.3127944946289062,0.2547466278076172
0.3127944946289062,0.2547466278076172
0.3139377593994140,0.2405937194824219
0.3139377593994140,0.2405937194824219
0.3196277618408203,0.2529470443725586
0.3196277618408203,0.2529470443725586
0.3035951614379883,0.2349843978881836
0.3035951614379883,0.2349843978881836
0.3178985595703125,0.2434295654296875
0.3178985595703125,0.2434295654296875
0.3048517227172852,0.2439228057861328
0.3048517227172852,0.2439228057861328
0.3072046279907226,0.2312782287597656
0.3072046279907226,0.2312782287597656
0.3143720626831055,0.2463014602661133
0.3143720626831055,0.2463014602661133
0.2995628356933593,0.2296463012695312
0.2995628356933593,0.2296463012695312
0.3148115158081055,0.2392524719238281
0.3148115158081055,0.2392524719238281
0.3026269912719726,0.2407819747924805
0.3026269912719726,0.2407819747924805
0.3056058883666992,0.2292331695556641
0.3056058883666992,0.2292331695556641
0.3133867263793945,0.2445899963378906
0.3133867263793945,0.2445899963378906
0.2989362716674804,0.2284744262695312
0.2989362716674804,0.2284744262695312
0.3143829345703125,0.2380268096923828
0.3143829345703125,0.2380268096923828
0.3030086517333984,0.2407064437866211
0.3030086517333984,0.2407064437866211
0.3058862686157227,0.2294288635253906
0.3058862686157227,0.2294288635253906
0.3139778137207031,0.2450225830078125
0.3139778137207031,0.2450225830078125
0.3001951217651367,0.2299535751342773
0.3001951217651367,0.2299535751342773
0.3155244827270507,0.2399368286132812
0.3155244827270507,0.2399368286132812
0.3050291061401367,0.2430662155151367
0.3050291061401367,0.2430662155151367
0.3076412200927734,0.2322521209716797
0.3076412200927734,0.2322521209716797
0.3163232803344727,0.2478246688842773
0.3163232803344727,0.2478246688842773
0.3026739120483398,0.2335773468017578
0.3026739120483398,0.2335773468017578
0.3181703567504883,0.2434564590454101
0.3181703567504883,0.2434564590454101
0.3079359054565430,0.2471048355102539
0.3079359054565430,0.2471048355102539
0.3106224060058594,0.2360893249511719
0.3106224060058594,0.2360893249511719
0.3193977355957031,0.2523290634155274
0.3193977355957031,0.2523290634155274
0.3057952880859375,0.2380393981933594
0.3057952880859375,0.2380393981933594
0.3209535598754883,0.2474681854248047
0.3209535598754883,0.2474681854248047
0.3108100891113281,0.2508470535278320
0.3108100891113281,0.2508470535278320
0.3130737304687500,0.2397159576416016
0.3130737304687500,0.2397159576416016
0.3217546463012695,0.2554475784301758
0.3217546463012695,0.2554475784301758
0.3077854156494140,0.2407665252685547
0.3077854156494140,0.2407665252685547
0.3228532791137695,0.2497867584228516
0.3228532791137695,0.2497867584228516
0.3126623153686524,0.2536840438842773
0.3126623153686524,0.2536840438842773
0.3146667480468750,0.2421981811523437
0.3146667480468750,0.2421981811523437
0.3234575271606445,0.2578279495239258
0.3203664779663086,0.2578279495239258
0.3094797134399414,0.2430347442626953
0.3094797134399414,0.2430347442626953
0.3244354248046875,0.2522272109985351
0.3244354248046875,0.2522272109985351
0.3143983840942383,0.2563201904296875
0.3143983840942383,0.2563201904296875
0.3164113998413086,0.2447650909423828
0.3164113998413086,0.2447650909423828
0.3255781173706054,0.2607290267944336
0.3255781173706054,0.2607290267944336
0.3220155715942383,0.2624193191528320
0.3220155715942383,0.2624193191528320
0.3220155715942383,0.2621749877929687
0.3140630722045898,0.2464845657348633
0.3169595718383789,0.2464845657348633
0.3286205291748047,0.2614048004150391
0.3286205291748047,0.2614048004150391
0.3130033493041992,0.2545326232910156
0.3130033493041992,0.2545326232910156
0.3240783691406250,0.2513065338134766
0.3240783691406250,0.2513065338134766
0.3231388092041015,0.2635980606079101
0.3231388092041015,0.2635980606079101
0.3145465850830078,0.2470773696899414
0.3145465850830078,0.2470773696899414
0.3286851882934570,0.2614139556884765
0.3286851882934570,0.2614139556884765
0.3124408721923828,0.2537973403930664
0.3124408721923828,0.2537973403930664
0.3222061157226562,0.2484191894531250
0.3222061157226562,0.2484191894531250
0.3198938369750977,0.2584465026855469
0.3198938369750977,0.2584465026855469
0.3094390869140625,0.2394012451171875
0.3094390869140625,0.2394012451171875
0.3219875335693359,0.2518363952636719
0.3219875335693359,0.2518363952636719
0.3045850753784179,0.2426702499389648
0.3045850753784179,0.2426702499389648
0.3146055221557617,0.2372634887695312
0.3146055221557617,0.2372634887695312
0.3128345489501953,0.2485662460327148
0.3128345489501953,0.2485662460327148
0.3032695770263672,0.2311700820922852
0.3032695770263672,0.2311700820922852
0.3170425415039063,0.2448348999023438
0.3170425415039063,0.2448348999023438
0.3007862091064453,0.2376256942749023
0.3007862091064453,0.2376256942749023
0.3112564086914062,0.2331413269042969
0.3112564086914062,0.2331413269042969
0.3103288650512695,0.2450969696044922
0.3103288650512695,0.2450969696044922
0.3013257980346680,0.2285053253173828
0.3013257980346680,0.2285053253173828
0.3159072875976562,0.2430147171020508
0.3159072875976562,0.2430147171020508
0.3003948211669922,0.2372514724731445
0.3003948211669922,0.2372514724731445
0.3115173339843750,0.2336185455322266
0.3115173339843750,0.2336185455322266
0.3114824295043945,0.2465652465820312
0.3114824295043945,0.2465652465820312
0.3031230926513672,0.2309423446655273
0.3031230926513672,0.2309423446655273
0.3181995391845703,0.2461515426635742
0.3181995391845703,0.2461515426635742
0.3031969070434570,0.2414863586425781
0.3031969070434570,0.2414863586425781
0.3145814895629883,0.2378442764282226
0.3145814895629883,0.2378442764282226
0.3152824401855469,0.2517339706420899
0.3152824401855469,0.2517339706420899
0.3071176528930664,0.2365905761718750
0.3071176528930664,0.2365905761718750
0.3223205566406250,0.2520383834838867
0.3223205566406250,0.2520383834838867
0.3073974609375000,0.2473691940307617
0.3073974609375000,0.2473691940307617
0.3186098098754883,0.2435211181640625
0.3186098098754883,0.2435211181640625
0.3191499710083008,0.2570354461669922
0.3191499710083008,0.2570354461669922
0.3104804992675781,0.2414857864379883
0.3104804992675781,0.2414857864379883
0.3253847122192383,0.2560398101806641
0.3253847122192383,0.2560398101806641
0.3101875305175781,0.2511869430541992
0.3101875305175781,0.2511869430541992
0.3209970474243164,0.2466453552246094
0.3209970474243164,0.2466453552246094
0.3214038848876953,0.2601287841796875
0.3214038848876953,0.2601287841796875
0.3122377395629883,0.2441282272338867
0.3162723541259765,0.2441282272338867
0.3272472381591797,0.2586851119995117
0.3272472381591797,0.2586851119995117
0.3119029998779297,0.2542333602905273
0.3119029998779297,0.2542333602905273
0.3229665756225586,0.2497352600097656
0.3121953964233398,0.2497352600097656
0.3233957290649414,0.2629915237426758
0.3233957290649414,0.2629915237426758
0.3142799377441406,0.2471220016479492
0.3142799377441406,0.2471220016479492
0.3292837142944336,0.2614276885986328
0.3292837142944336,0.2614276885986328
0.3137832641601562,0.2573530197143555
0.3137832641601562,0.2573530197143555
0.3246540069580078,0.2521768569946289
0.3246540069580078,0.2521768569946289
0.3253875732421875,0.2655939102172851
0.3253875732421875,0.2655939102172851
0.3159467697143555,0.2496820449829101
0.3159467697143555,0.2496820449829101
0.3307279586791992,0.2638732910156250
0.3307279586791992,0.2638732910156250
0.3152664184570312,0.2594844818115234
0.3152664184570312,0.2594844818115234
0.3256547927856445,0.2539123535156250
0.3256547927856445,0.2539123535156250
0.3262487411499023,0.2669712066650390
0.3262487411499023,0.2669712066650390
0.3163484573364257,0.2506170272827148
0.3163484573364257,0.2506170272827148
0.3309225082397461,0.2639614105224609
0.3309225082397461,0.2639614105224609
0.3152429580688477,0.2597013473510742
0.3152429580688477,0.2597013473510742
0.3255352020263672,0.2536851882934570
0.3255352020263672,0.2536851882934570
0.3257858276367188,0.2663166046142578
0.3257858276367188,0.2663166046142578
0.3150409698486328,0.2484706878662109
0.3150409698486328,0.2484706878662109
0.3281101226806640,0.2595256805419922
0.3281101226806640,0.2595256805419922
0.3102533340454102,0.2523902893066406
0.3102533340454102,0.2523902893066406
0.3182510375976562,0.2431371688842773
0.3182510375976562,0.2431371688842773
0.3167970657348633,0.2529836654663086
0.3167970657348633,0.2529836654663086
0.3047086715698242,0.2338399887084961
0.3047086715698242,0.2338399887084961
0.3175117492675781,0.2445402145385742
0.3175117492675781,0.2445402145385742
0.3003370285034180,0.2388816833496094
0.3003370285034180,0.2388816833496094
0.3095386505126953,0.2307569503784180
0.3095386505126953,0.2307569503784180
0.3093955993652344,0.2427183151245117
0.3093955993652344,0.2427183151245117
0.2986667633056641,0.2256597518920898
0.2986667633056641,0.2256597518920898
0.3131515502929688,0.2384737014770508
0.3131515502929688,0.2384737014770508
0.2970428466796875,0.2342147827148438
0.2970428466796875,0.2342147827148438
0.3075033187866211,0.2275056838989258
0.3075033187866211,0.2275056838989258
0.3083026885986328,0.2410085678100586
0.3083026885986328,0.2410085678100586
0.2976802825927734,0.2242069244384766
0.2976802825927734,0.2242069244384766
0.3126760482788086,0.2375415802001953
0.3126760482788086,0.2375415802001953
0.2969627380371094,0.2341341018676758
0.2969627380371094,0.2341341018676758
0.3078020095825195,0.2278696060180664
0.3078020095825195,0.2278696060180664
0.3091238021850586,0.2419858932495117
0.3091238021850586,0.2419858932495117
0.2989133834838867,0.2256975173950195
0.2989133834838867,0.2256975173950195
0.3144927978515625,0.2395288467407226
0.3144927978515625,0.2395288467407226
0.2989259719848633,0.2370666503906250
0.2989259719848633,0.2370666503906250
0.3102487564086914,0.2314367294311523
0.3102487564086914,0.2314367294311523
0.3122056961059570,0.2463077545166016
0.3122056961059570,0.2463077545166016
0.3024759292602539,0.2310041427612305
0.3024759292602539,0.2310041427612305
0.3186670303344726,0.2455701828002930
0.3186670303344726,0.2455701828002930
0.3035041809082031,0.2436424255371094
0.3035041809082031,0.2436424255371094
0.3147279739379883,0.2377361297607422
0.3147279739379883,0.2377361297607422
0.3168926239013672,0.2527313232421875
0.3168926239013672,0.2527313232421875
0.3066930770874023,0.2369619369506836
0.3066930770874023,0.2369619369506836
0.3224138259887695,0.2504711151123047
0.3224138259887695,0.2504711151123047
0.3065866470336914,0.2476776123046875
0.3065866470336914,0.2476776123046875
0.3169950485229492,0.2408718109130859
0.3169950485229492,0.2408718109130859
0.3187602996826172,0.2547306060791015
0.3187602996826172,0.2547306060791015
0.3079227447509765,0.2387781143188477
0.3079227447509765,0.2387781143188477
0.3226530075073242,0.2508436203002929
0.3226530075073242,0.2508436203002929
0.3070993423461914,0.2481485366821289
0.3070993423461914,0.2481485366821289
0.3168891906738281,0.2409009933471680
0.3168891906738281,0.2409009933471680
0.3187597274780273,0.2549686431884766
0.3187597274780273,0.2549686431884766
0.3079187393188477,0.2389062881469727
0.3079187393188477,0.2389062881469727
0.3228647232055664,0.2510616302490234
0.3228647232055664,0.2510616302490234
0.3075553894042969,0.2489965438842773
0.3075553894042969,0.2489965438842773
0.3172668457031250,0.2419206619262695
0.3172668457031250,0.2419206619262695
0.3193948745727539,0.2554183959960937
0.3193948745727539,0.2554183959960937
0.3083553314208984,0.2396032333374023
0.3083553314208984,0.2396032333374023
0.3231971740722656,0.2514375686645507
0.3231971740722656,0.2514375686645507
0.3077459335327148,0.2493513107299805
0.3077459335327148,0.2493513107299805
0.3172290802001953,0.2417518615722656
0.3172290802001953,0.2417518615722656
0.3195550918579101,0.2556947708129882
0.3195550918579101,0.2556947708129882
0.3083690643310547,0.2399803161621094
0.3083690643310547,0.2399803161621094
0.3234151840209961,0.2520017623901367
0.3234151840209961,0.2520017623901367
0.3081047058105469,0.2499561309814453
0.3081047058105469,0.2499561309814453
0.3173446655273438,0.2419761657714844
0.3173446655273438,0.2419761657714844
0.3191505432128906,0.2550533294677734
0.3191505432128906,0.2550533294677734
0.3068058013916016,0.2376262664794922
0.3068058013916016,0.2376262664794922
0.3202886581420898,0.2471002578735352
0.3202886581420898,0.2471002578735352
0.3031843185424805,0.2425998687744141
0.3031843185424805,0.2425998687744141
0.3104496002197266,0.2320987701416015
0.3104496002197266,0.2320987701416015
0.3111745834350586,0.2436492919921875
0.3111745834350586,0.2436492919921875
0.2979114532470703,0.2254085540771484
0.2979114532470703,0.2254085540771484
0.3118223190307617,0.2351749420166016
0.3118223190307617,0.2351749420166016
0.2954521179199219,0.2322229385375977
0.2954521179199219,0.2322229385375977
0.3039728164672851,0.2236925125122070
0.3039728164672851,0.2236925125122070
0.3063926696777344,0.2373991012573242
0.3063926696777344,0.2373991012573242
0.2948553085327149,0.2217744827270508
0.2948553085327149,0.2217744827270508
0.3103597640991211,0.2336139678955078
0.3103597640991211,0.2336139678955078
0.2953874588012695,0.2324884414672851
0.2953874588012695,0.2324884414672851
0.3046234130859375,0.2245903015136719
0.3046234130859375,0.2245903015136719
0.3079421997070312,0.2389926910400391
0.3079421997070312,0.2389926910400391
0.2962360382080078,0.2235380172729492
0.2962360382080078,0.2235380172729492
0.3119905471801758,0.2354358673095703
0.3119905471801758,0.2354358673095703
0.2973787307739258,0.2343721389770508
0.2973787307739258,0.2343721389770508
0.3066421508789062,0.2271898269653320
0.3066421508789062,0.2271898269653320
0.3105497360229492,0.2427629470825195
0.3105497360229492,0.2427629470825195
0.2996452331542969,0.2281482696533203
0.2996452331542969,0.2281482696533203
0.3163747787475586,0.2414583206176758
0.3163747787475586,0.2414583206176758
0.3020530700683594,0.2415040969848633
0.3020530700683594,0.2415040969848633
0.3120288848876953,0.2347337722778320
0.3120288848876953,0.2347337722778320
0.3162139892578125,0.2509374618530273
0.3162139892578125,0.2509374618530273
0.3052539825439453,0.2362283706665039
0.3052539825439453,0.2362283706665039
0.3217803955078125,0.2489284515380859
0.3217803955078125,0.2489284515380859
0.3075731277465820,0.2492214202880859
0.3075731277465820,0.2492214202880859
0.3171403884887695,0.2425907135009766
0.3076641082763672,0.2425907135009766
0.3216196060180664,0.2583280563354492
0.3216196060180664,0.2583280563354492
0.3105216979980469,0.2440092086791992
0.3105216979980469,0.2440092086791992
0.3267093658447265,0.2562309265136719
0.3267093658447265,0.2562309265136719
0.3124586105346679,0.2564706802368164
0.3124586105346679,0.2564706802368164
0.3216573715209961,0.2490961074829101
0.3216573715209961,0.2490961074829101
0.3277473449707031,0.2545120239257813
0.3277473449707031,0.2545120239257813
0.3210805892944336,0.2643590927124023
0.3210805892944336,0.2643590927124023
0.3183792114257812,0.2507938385009765
0.3183792114257812,0.2507938385009765
0.3307800292968750,0.2659177780151367
0.3307800292968750,0.2659177780151367
0.3150718688964844,0.2559242248535156
0.3150718688964844,0.2559242248535156
0.3298662185668945,0.2578742980957031
0.3298662185668945,0.2578742980957031
0.3229831695556640,0.2667474746704102
0.3229831695556640,0.2667474746704102
0.3196443557739257,0.2526180267333984
0.3196443557739257,0.2526180267333984
0.3319187164306641,0.2671428680419922
0.3319187164306641,0.2671428680419922
0.3158306121826172,0.2572837829589844
0.3158306121826172,0.2572837829589844
0.3304058074951172,0.2588407516479492
0.3304058074951172,0.2588407516479492
0.3237482070922851,0.2679073333740234
0.3237482070922851,0.2679073333740234
0.3202508926391601,0.2537635803222656
0.3202508926391601,0.2537635803222656
0.3330316543579102,0.2689556121826172
0.3330316543579102,0.2689556121826172
0.3171003341674805,0.2593677520751953
0.3171003341674805,0.2593677520751953
0.3317916870117187,0.2610139846801758
0.3317916870117187,0.2610139846801758
0.3256822586059570,0.2701606750488281
0.3256822586059570,0.2701606750488281
0.3215990066528320,0.2559047698974609
0.3215990066528320,0.2559047698974609
0.3335105895996094,0.2693315505981445
0.3335105895996094,0.2693315505981445
0.3158546447753906,0.2574525833129883
0.3158546447753906,0.2574525833129883
0.3282709121704102,0.2550624847412109
0.3282709121704102,0.2550624847412109
0.3193262100219726,0.2604040145874023
0.3193262100219726,0.2604040145874023
0.3121627807617187,0.2419841766357422
0.3121627807617187,0.2419841766357422
0.3216625213623047,0.2521791458129883
0.3216625213623047,0.2521791458129883
0.3028221130371094,0.2387088775634766
0.3028221130371094,0.2387088775634766
0.3151262283325195,0.2369201660156250
0.3151262283325195,0.2369201660156250
0.3072916030883789,0.2440080642700195
0.3072916030883789,0.2440080642700195
0.3017028808593750,0.2278472900390625
0.3017028808593750,0.2278472900390625
0.3131664276123047,0.2405879974365234
0.3131664276123047,0.2405879974365234
0.2959293365478515,0.2296680450439453
0.2959293365478515,0.2296680450439453
0.3095472335815430,0.2293241500854492
0.3095472335815430,0.2293241500854492
0.3031219482421875,0.2378808975219726
0.3031219482421875,0.2378808975219726
0.2982324600219726,0.2228427886962891
0.2982324600219726,0.2228427886962891
0.3105577468872070,0.2368789672851562
0.3105577468872070,0.2368789672851562
0.2940811157226562,0.2267824172973633
0.2940811157226562,0.2267824172973633
0.3079656600952148,0.2271543502807617
0.3079656600952148,0.2271543502807617
0.3023866653442382,0.2363067626953125
0.3023866653442382,0.2363067626953125
0.2974399566650390,0.2222511291503906
0.2974399566650390,0.2222511291503906
0.3104587554931640,0.2367605209350586
0.3104587554931640,0.2367605209350586
0.2943849563598633,0.2274993896484375
0.2943849563598633,0.2274993896484375
0.3091232299804688,0.2284652709960937
0.3091232299804688,0.2284652709960937
0.3044551849365234,0.2391695022583008
0.3044551849365234,0.2391695022583008
0.3002540588378906,0.2258331298828125
0.3002540588378906,0.2258331298828125
0.3136516571044922,0.2408472061157226
0.3136516571044922,0.2408472061157226
0.2978284835815430,0.2317977905273437
0.3131092071533203,0.2317977905273437
0.3126537322998047,0.2331075668334961
0.3126537322998047,0.2331075668334961
0.3077276229858398,0.2436258316040039
0.3077276229858398,0.2436258316040039
0.3031259536743164,0.2295965194702148
0.3031259536743164,0.2295965194702148
0.3169149398803711,0.2451387405395508
0.3169149398803711,0.2451387405395508
0.3001905441284179,0.2357482910156250
0.3001905441284179,0.2357482910156250
0.3156480789184570,0.2369470596313477
0.3156480789184570,0.2369470596313477
0.3107597351074219,0.2477857589721680
0.3107597351074219,0.2477857589721680
0.3061414718627929,0.2338525772094726
0.3061414718627929,0.2338525772094726
0.3196941375732422,0.2493896484375000
0.3196941375732422,0.2493896484375000
0.3039813995361328,0.2406326293945312
0.3039813995361328,0.2406326293945312
0.3183282852172851,0.2416179656982422
0.3183282852172851,0.2416179656982422
0.3142547607421875,0.2525407791137695
0.3142547607421875,0.2525407791137695
0.3093852996826172,0.2386894226074219
0.3093852996826172,0.2386894226074219
0.3230781555175781,0.2543266296386719
0.3230781555175781,0.2543266296386719
0.3069826126098633,0.2454076766967773
0.3069826126098633,0.2454076766967773
0.3215978622436523,0.2462184906005859
0.3215978622436523,0.2462184906005859
0.3174848556518555,0.2571304321289062
0.3174848556518555,0.2571304321289062
0.3123424530029297,0.2430559158325195
0.3123424530029297,0.2430559158325195
0.3260038375854492,0.2584922790527344
0.3260038375854492,0.2584922790527344
0.3097286224365234,0.2490308761596680
0.3097286224365234,0.2490308761596680
0.3241670608520508,0.2498617172241211
0.3241670608520508,0.2498617172241211
0.3201026916503906,0.2607295989990234
0.3201026916503906,0.2607295989990234
0.3146759033203125,0.2465744018554688
0.3146759033203125,0.2465744018554688
0.3281513214111328,0.2611879348754882
0.3281513214111328,0.2611879348754882
0.3121467590332031,0.2523273468017578
0.3121467590332031,0.2523273468017578
0.3256685256958008,0.2521991729736328
0.3256685256958008,0.2521991729736328
0.3214868545532226,0.2621171951293945
0.3214868545532226,0.2621171951293945
0.3150192260742187,0.2464908599853516
0.3150192260742187,0.2464908599853516
0.3270252227783203,0.2596109390258789
0.3270252227783203,0.2596109390258789
0.3094545364379883,0.2480850219726562
0.3094545364379883,0.2480850219726562
0.3207275390625000,0.2450334548950195
0.3207275390625000,0.2450334548950195
0.3147880554199219,0.2518941879272461
0.3147880554199219,0.2518941879272461
0.3062484741210937,0.2342931747436523
0.3062484741210937,0.2342931747436523
0.3172863006591797,0.2458488464355469
0.3172863006591797,0.2458488464355469
0.2991222381591797,0.2338411331176758
0.2991222381591797,0.2338411331176758
0.3106819152832031,0.2310144424438476
0.3106819152832031,0.2310144424438476
0.3057546615600586,0.2396707534790039
0.3057546615600586,0.2396707534790039
0.2981403350830078,0.2233016967773437
0.2981403350830078,0.2233016967773437
0.3102807998657227,0.2363119125366211
0.3102807998657227,0.2363119125366211
0.2933532714843750,0.2256797790527344
0.2933532714843750,0.2256797790527344
0.3055778503417969,0.2243242263793945
0.3055778503417969,0.2243242263793945
0.3017629623413086,0.2341386795043945
0.3017629623413086,0.2341386795043945
0.2948289871215820,0.2189758300781250
0.2948289871215820,0.2189758300781250
0.3081224441528320,0.2330835342407226
0.3081224441528320,0.2330835342407226
0.2919050216674804,0.2238801956176758
0.2919050216674804,0.2238801956176758
0.3048414230346679,0.2232147216796875
0.3048414230346679,0.2232147216796875
0.3016439437866211,0.2339630126953125
0.3016439437866211,0.2339630126953125
0.2953273773193359,0.2190994262695312
0.2953273773193359,0.2190994262695312
0.3089675903320312,0.2343996047973633
0.3089675903320312,0.2343996047973633
0.2933017730712891,0.2258897781372070
0.2933017730712891,0.2258897781372070
0.3066656112670899,0.2257272720336914
0.3066656112670899,0.2257272720336914
0.3042875289916992,0.2374271392822266
0.3110549926757812,0.2374271392822266
0.2983726501464843,0.2239311218261719
0.2983726501464843,0.2239311218261719
0.3128133773803711,0.2398847579956055
0.3128133773803711,0.2398847579956055
0.2975641250610351,0.2317274093627930
0.2975641250610351,0.2317274093627930
0.3108535766601562,0.2315425872802734
0.3108535766601562,0.2315425872802734
0.3085927963256836,0.2433271408081055
0.3085927963256836,0.2433271408081055
0.3024856567382813,0.2293407440185547
0.3024856567382813,0.2293407440185547
0.3167741775512695,0.2450660705566406
0.3167741775512695,0.2450660705566406
0.3016679763793945,0.2372137069702148
0.3016679763793945,0.2372137069702148
0.3152017593383789,0.2377801895141601
0.3152017593383789,0.2377801895141601
0.3134651184082031,0.2501655578613281
0.3134651184082031,0.2501655578613281
0.3071708679199219,0.2360755920410156
0.3071708679199219,0.2360755920410156
0.3220293045043945,0.2520950317382812
0.3220293045043945,0.2520950317382812
0.3061019897460938,0.2438415527343750
0.3061019897460938,0.2438415527343750
0.3193553924560547,0.2435314178466797
0.3193553924560547,0.2435314178466797
0.3168846130371094,0.2554779052734375
0.3168846130371094,0.2554779052734375
0.3103380203247070,0.2406784057617187
0.3103380203247070,0.2406784057617187
0.3249217987060547,0.2571590423583984
0.3249217987060547,0.2571590423583984
0.3097766876220703,0.2495819091796875
0.3097766876220703,0.2495819091796875
0.3231462478637695,0.2498834609985351
0.3231462478637695,0.2498834609985351
0.3217866897583008,0.2625205993652344
0.3217866897583008,0.2625205993652344
0.3158632278442383,0.2492174148559570
0.3158632278442383,0.2492174148559570
0.3307462692260742,0.2656471252441406
0.3307462692260742,0.2656471252441406
0.3161802291870117,0.2585987091064453
0.3161802291870117,0.2585987091064453
0.3294015884399414,0.2585912704467773
0.3294015884399414,0.2585912704467773
0.3281398773193359,0.2715545654296875
0.3281398773193359,0.2715545654296875
0.3215898513793945,0.2575447082519531
0.3215898513793945,0.2575447082519531
0.3361392974853515,0.2735692977905274
0.3361392974853515,0.2735692977905274
0.3211584091186523,0.2656574249267578
0.3211584091186523,0.2656574249267578
0.3337469100952148,0.2652505874633789
0.3337469100952148,0.2652505874633789
0.3318008422851562,0.2768835067749023
0.3318008422851562,0.2768835067749023
0.3241258621215820,0.2608858108520508
0.3241258621215820,0.2608858108520508
0.3372808456420898,0.2740350723266601
0.3372808456420898,0.2740350723266601
0.3198102951049804,0.2631975173950195
0.3198102951049804,0.2631975173950195
0.3295463562011718,0.2579446792602539
0.3295463562011718,0.2579446792602539
0.3244050979614257,0.2650880813598633
0.3244050979614257,0.2650880813598633
0.3135818481445312,0.2443559646606445
0.3135818481445312,0.2443559646606445
0.3240503311157226,0.2547277450561523
0.3240503311157226,0.2547277450561523
0.3052860260009765,0.2421770095825195
0.3052860260009765,0.2421770095825195
0.3146095275878906,0.2371501922607422
0.3146095275878906,0.2371501922607422
0.3107236862182617,0.2460508346557617
0.3107236862182617,0.2460508346557617
0.3018373489379882,0.2287570953369140
0.3018373489379882,0.2287570953369140
0.3146764755249024,0.2420757293701172
0.3146764755249024,0.2420757293701172
0.2979143142700195,0.2325078964233398
0.2979143142700195,0.2325078964233398
0.3088674545288086,0.2292491912841797
0.3088674545288086,0.2292491912841797
0.3064682006835938,0.2403963088989258
0.3064682006835938,0.2403963088989258
0.2983457565307617,0.2240810394287109
0.2983457565307617,0.2240810394287109
0.3120489120483398,0.2384433746337891
0.3120489120483398,0.2384433746337891
0.2961004257202148,0.2297212600708008
0.2961004257202148,0.2297212600708008
0.3075393676757812,0.2276138305664062
0.3075393676757812,0.2276138305664062
0.3058416366577149,0.2393817901611328
0.3058416366577149,0.2393817901611328
0.2981060028076172,0.2237983703613281
0.2981060028076172,0.2237983703613281
0.3125341415405273,0.2387180328369141
0.3125341415405273,0.2387180328369141
0.3115545272827148,0.2414737701416015
0.3115545272827148,0.2414737701416015
0.2978370666503906,0.2268104553222656
0.2978370666503906,0.2268104553222656
0.3131755828857422,0.2364601135253906
0.3131755828857422,0.2364601135253906
0.3029491424560547,0.2401273727416992
0.3029491424560547,0.2401273727416992
0.3054222106933593,0.2291038513183594
0.3054222106933593,0.2291038513183594
0.3143411636352539,0.2452102661132812
0.3143411636352539,0.2452102661132812
0.3007158279418945,0.2308193206787109
0.3007158279418945,0.2308193206787109
0.3160869598388672,0.2405479431152344
0.3160869598388672,0.2405479431152344
0.3059898376464844,0.2445837020874023
0.3059898376464844,0.2445837020874023
0.3083679199218750,0.2330142974853515
0.3083679199218750,0.2330142974853515
0.3170328140258789,0.2486589431762695
0.3170328140258789,0.2486589431762695
0.3028558731079101,0.2337335586547852
0.3028558731079101,0.2337335586547852
0.3178316116333008,0.2429168701171875
0.3178316116333008,0.2429168701171875
0.3076601028442383,0.2464433670043945
0.3076601028442383,0.2464433670043945
0.3096576690673828,0.2349706649780273
0.3096576690673828,0.2349706649780273
0.3187774658203125,0.2509660720825195
0.3187774658203125,0.2509660720825195
0.3047309875488281,0.2365327835083008
0.3047309875488281,0.2365327835083008
0.3196483612060547,0.2451822280883789
0.3196483612060547,0.2451822280883789
0.3094179153442383,0.2488380432128906
0.3094179153442383,0.2488380432128906
0.3112987518310547,0.2368635177612305
0.3112987518310547,0.2368635177612305
0.3204248428344726,0.2534362792968750
0.3204248428344726,0.2534362792968750
0.3060041427612304,0.2381710052490234
0.3060041427612304,0.2381710052490234
0.3213535308837890,0.2471477508544922
0.3213535308837890,0.2471477508544922
0.3104576110839843,0.2504779815673828
0.3104576110839843,0.2504779815673828
0.3120111465454101,0.2381618499755859
0.3120111465454101,0.2381618499755859
0.3208854675292969,0.2539066314697265
0.3208854675292969,0.2539066314697265
0.3062776565551757,0.2389039993286133
0.3062776565551757,0.2389039993286133
0.3212511062622070,0.2475053787231445
0.3212511062622070,0.2475053787231445
0.3112787246704101,0.2519176483154297
0.3112787246704101,0.2519176483154297
0.3133747100830078,0.2401817321777344
0.3133747100830078,0.2401817321777344
0.3230535507202149,0.2572683334350586
0.3230535507202149,0.2572683334350586
0.3091684341430664,0.2431594848632812
0.3091684341430664,0.2431594848632812
0.3248136520385742,0.2525693893432617
0.3248136520385742,0.2525693893432617
0.3147359848022461,0.2570503234863281
0.3147359848022461,0.2570503234863281
0.3163238525390625,0.2445287704467773
0.3163238525390625,0.2445287704467773
0.3248966217041016,0.2595886230468750
0.3248966217041016,0.2595886230468750
0.3093257904052734,0.2431062698364258
0.3093257904052734,0.2431062698364258
0.3227788925170899,0.2487934112548828
0.3227788925170899,0.2487934112548828
0.3103506088256836,0.2500888824462891
0.3103506088256836,0.2500888824462891
0.3096673965454101,0.2346736907958984
0.3096673965454101,0.2346736907958984
0.3167810440063477,0.2479831695556640
0.3167810440063477,0.2479831695556640
0.3005990982055664,0.2307546615600586
0.3005990982055664,0.2307546615600586
0.3139022827148437,0.2367851257324219
0.3139022827148437,0.2367851257324219
0.3027889251708984,0.2397388458251953
0.3027889251708984,0.2397388458251953
0.3031122207641602,0.2261907577514648
0.3031122207641602,0.2261907577514648
0.3115259170532226,0.2406257629394531
0.3115259170532226,0.2406257629394531
0.2967327117919922,0.2254348754882812
0.2967327117919922,0.2254348754882812
0.3106355667114258,0.2322046279907226
0.3106355667114258,0.2322046279907226
0.3004617691040039,0.2363256454467773
0.3004617691040039,0.2363256454467773
0.3011140823364258,0.2231969833374023
0.3011140823364258,0.2231969833374023
0.3101102828979492,0.2386304855346680
0.3062084197998047,0.2386304855346680
0.2957685470581055,0.2242177963256836
0.2957685470581055,0.2242177963256836
0.3101812362670898,0.2315340042114258
0.3101812362670898,0.2315340042114258
0.3004703521728516,0.2364446640014648
0.3004703521728516,0.2364446640014648
0.3014997482299804,0.2239128112792969
0.3014997482299804,0.2239128112792969
0.3109680175781250,0.2397668838500976
0.3109680175781250,0.2397668838500976
0.2970954895019531,0.2260648727416992
0.2970954895019531,0.2260648727416992
0.3117244720458984,0.2335103988647461
0.3117244720458984,0.2335103988647461
0.3023694992065429,0.2389017105102539
0.3023694992065429,0.2389017105102539
0.3034492492675781,0.2266777038574219
0.3034492492675781,0.2266777038574219
0.3133832931518555,0.2430358886718750
0.3133832931518555,0.2430358886718750
0.2993888854980469,0.2292726516723633
0.2993888854980469,0.2292726516723633
0.3141609191894531,0.2365299224853515
0.3141609191894531,0.2365299224853515
0.3045724868774414,0.2419532775878906
0.3045724868774414,0.2419532775878906
0.3053661346435547,0.2293905258178711
0.3053661346435547,0.2293905258178711
0.3149894714355468,0.2450792312622070
0.3149894714355468,0.2450792312622070
0.3009784698486328,0.2313806533813476
0.3009784698486328,0.2313806533813476
0.3154375076293945,0.2382328033447265
0.3154375076293945,0.2382328033447265
0.3057563781738281,0.2438598632812500
0.3057563781738281,0.2438598632812500
0.3064075469970703,0.2308851242065429
0.3064075469970703,0.2308851242065429
0.3161407470703125,0.2467746734619141
0.3161407470703125,0.2467746734619141
0.3020936965942383,0.2333518981933594
0.3020936965942383,0.2333518981933594
0.3166826248168945,0.2401021957397461
0.3166826248168945,0.2401021957397461
0.3072275161743164,0.2459878921508789
0.3072275161743164,0.2459878921508789
0.3079856872558593,0.2334646224975586
0.3031602859497070,0.2334646224975586
0.3143508911132812,0.2499973297119140
0.3145351409912109,0.2499973297119140
0.3047344207763672,0.2374757766723633
0.3047344207763672,0.2374757766723633
0.3201084136962891,0.2448944091796875
0.3201084136962891,0.2448944091796875
0.3110338211059570,0.2513912200927734
0.3110338211059570,0.2513912200927734
0.3118263244628906,0.2388307571411133
0.3118263244628906,0.2388307571411133
0.3219005584716797,0.2548707962036132
0.3219005584716797,0.2548707962036132
0.3075387954711914,0.2410732269287109
0.3075387954711914,0.2410732269287109
0.3227737426757812,0.2481428146362304
0.3227737426757812,0.2481428146362304
0.3131744384765625,0.2547048568725586
0.3131744384765625,0.2547048568725586
0.3145202636718750,0.2428161621093750
0.3145202636718750,0.2428161621093750
0.3254796981811524,0.2602237701416015
0.3254796981811524,0.2602237701416015
0.3117622375488281,0.2478178024291992
0.3117622375488281,0.2478178024291992
0.3275047302246094,0.2552616119384766
0.3275047302246094,0.2552616119384766
0.3180015563964844,0.2619054794311523
0.3180015563964844,0.2619054794311523
0.3183586120605469,0.2480392456054688
0.3183586120605469,0.2480392456054688
0.3269182205200195,0.2619592666625977
0.3269182205200195,0.2619592666625977
0.3111230850219727,0.2463924407958984
0.3111230850219727,0.2463924407958984
0.3237379074096680,0.2494325637817383
0.3237379074096680,0.2494325637817383
0.3116214752197266,0.2519010543823242
0.3116214752197266,0.2519010543823242
0.3092227935791015,0.2351097106933594
0.3092227935791015,0.2351097106933594
0.3170270919799805,0.2478109359741211
0.3170270919799805,0.2478109359741211
0.3010402679443359,0.2325725555419922
0.3010402679443359,0.2325725555419922
0.3141466140747070,0.2360858917236328
0.3141466140747070,0.2360858917236328
0.3037015914916992,0.2409862518310547
0.3037015914916992,0.2409862518310547
0.3029354095458984,0.2266696929931641
0.3029354095458984,0.2266696929931641
0.3124414443969726,0.2415618896484375
0.3076023101806640,0.2415618896484375
0.2974233627319336,0.2275228500366211
0.2974233627319336,0.2275228500366211
0.3114572525024414,0.2322057723999023
0.3114572525024414,0.2322057723999023
0.3016954421997070,0.2380222320556641
0.3016954421997070,0.2380222320556641
0.3012908935546875,0.2244369506835937
0.3012908935546875,0.2244369506835937
0.3113822937011719,0.2397577285766601
0.3113822937011719,0.2397577285766601
0.2967927932739258,0.2268470764160156
0.2967927932739258,0.2268470764160156
0.3114051818847656,0.2321039199829101
0.3114051818847656,0.2321039199829101
0.3023540496826172,0.2392690658569336
0.3023540496826172,0.2392690658569336
0.3025302886962891,0.2262817382812500
0.3025302886962891,0.2262817382812500
0.3134954452514648,0.2426656723022461
0.3134954452514648,0.2426656723022461
0.2995645523071289,0.2309206008911133
0.2995645523071289,0.2309206008911133
0.3149974822998047,0.2369585037231445
0.3149974822998047,0.2369585037231445
0.3063983917236328,0.2447324752807617
0.3063983917236328,0.2447324752807617
0.3068275451660156,0.2322875976562500
0.3068275451660156,0.2322875976562500
0.3178499221801758,0.2487836837768554
0.3178499221801758,0.2487836837768554
0.3037576675415039,0.2369338989257812
0.3037576675415039,0.2369338989257812
0.3188020706176758,0.2422010421752930
0.3188020706176758,0.2422010421752930
0.3099660873413086,0.2497604370117187
0.3099660873413086,0.2497604370117187
0.3099042892456055,0.2365676879882812
0.3099042892456055,0.2365676879882812
0.3205650329589844,0.2526346206665039
0.3205650329589844,0.2526346206665039
0.3059766769409180,0.2398899078369141
0.3059766769409180,0.2398899078369141
0.3205410003662109,0.2445138931274414
0.3205410003662109,0.2445138931274414
0.3113004684448242,0.2513334274291992
0.3113004684448242,0.2513334274291992
0.3105480194091797,0.2376571655273437
0.3105480194091797,0.2376571655273437
0.3210205078125000,0.2528657913208008
0.3210205078125000,0.2528657913208008
0.3058582305908203,0.2399723052978515
0.3058582305908203,0.2399723052978515
0.3201885223388672,0.2439411163330078
0.3201885223388672,0.2439411163330078
0.3107906341552734,0.2510673522949219
0.3107906341552734,0.2510673522949219
0.3101314544677734,0.2371633529663086
0.3101314544677734,0.2371633529663086
0.3207201004028320,0.2528348922729492
0.3207201004028320,0.2528348922729492
0.3059240341186523,0.2404037475585937
0.3059240341186523,0.2404037475585937
0.3207000732421875,0.2447959899902344
0.3207000732421875,0.2447959899902344
0.3115264892578125,0.2519617080688477
0.3115264892578125,0.2519617080688477
0.3109972000122070,0.2384365081787109
0.3109972000122070,0.2384365081787109
0.3217397689819336,0.2541429519653320
0.3217397689819336,0.2541429519653320
0.3070615768432617,0.2424562454223633
0.3070615768432617,0.2424562454223633
0.3219503402709961,0.2465681076049805
0.3219503402709961,0.2465681076049805
0.3130863189697266,0.2541561126708984
0.3130863189697266,0.2541561126708984
0.3125089645385742,0.2406303405761719
0.3125089645385742,0.2406303405761719
0.3236423492431640,0.2567602157592773
0.3236423492431640,0.2567602157592773
0.3088531494140625,0.2447725296020508
0.3088531494140625,0.2447725296020508
0.3236137390136719,0.2485376358032226
0.3236137390136719,0.2485376358032226
0.3137472152709961,0.2551792144775391
0.3137472152709961,0.2551792144775391
0.3119441986083984,0.2394584655761719
0.3119441986083984,0.2394584655761719
0.3217065811157226,0.2535953521728516
0.3217065811157226,0.2535953521728516
0.3042068481445312,0.2383283615112305
0.3042068481445312,0.2383283615112305
0.3177188873291015,0.2395328521728516
0.3177188873291015,0.2395328521728516
0.3059320449829102,0.2444337844848633
0.3059320449829102,0.2444337844848633
0.3035591125488281,0.2275909423828125
0.3035591125488281,0.2275909423828125
0.3077104568481445,0.2276504516601562
0.2959962844848633,0.2276504516601562
0.3082014083862304,0.2405742645263672
0.3082014083862304,0.2405742645263672
0.2966823577880859,0.2231941223144531
0.3115728378295898,0.2355514526367187
0.3115728378295898,0.2355514526367187
0.2948232650756836,0.2316730499267578
0.3108718872070312,0.2316730499267578
0.3050605773925781,0.2244174957275391
0.3050605773925781,0.2244174957275391
0.3064693450927734,0.2383815765380859
0.3064693450927734,0.2383815765380859
0.2953926086425781,0.2215616226196289
0.2953926086425781,0.2215616226196289
0.3108816146850586,0.2344041824340820
0.3108816146850586,0.2344041824340820
0.2947013854980469,0.2317176818847656
0.2947013854980469,0.2317176818847656
0.3053518295288086,0.2247276306152344
0.3053518295288086,0.2247276306152344
0.3072681427001953,0.2390996932983398
0.3072681427001953,0.2390996932983398
0.2965627670288086,0.2229457855224609
0.2965627670288086,0.2229457855224609
0.3124134063720703,0.2365482330322266
0.3124134063720703,0.2365482330322266
0.2970903396606445,0.2347166061401367
0.2970903396606445,0.2347166061401367
0.3077018737792969,0.2281763076782226
0.3077018737792969,0.2281763076782226
0.3103563308715820,0.2427841186523437
0.3132471084594726,0.2427841186523437
0.3000480651855469,0.2281225204467773
0.3000480651855469,0.2281225204467773
0.3157276153564453,0.2411624908447265
0.3157276153564453,0.2411624908447265
0.3008949279785156,0.2398492813110351
0.3008949279785156,0.2398492813110351
0.3113010406494141,0.2331464767456055
0.3113010406494141,0.2331464767456055
0.3140167236328125,0.2485507965087891
0.3140167236328125,0.2480815887451172
0.3086952209472656,0.2488706588745117
0.3086952209472656,0.2476936340332031
0.3190990447998047,0.2476936340332031
0.3041622161865234,0.2442089080810547
0.3041622161865234,0.2442089080810547
0.3045845031738281,0.2399665832519531
0.3045845031738281,0.2399665832519531
0.3045845031738281,0.2398332595825195
0.3197914123535156,0.2430902481079101
0.3197914123535156,0.2430902481079101
0.3115167617797852,0.2515073776245117
0.3115167617797852,0.2515073776245117
0.3100038528442383,0.2377395629882812
0.3100038528442383,0.2377395629882812
0.3216482162475586,0.2534059524536132
0.3216482162475586,0.2534059524536132
0.3063074111938476,0.2422027587890625
0.3063074111938476,0.2422027587890625
0.3210382461547852,0.2449848175048828
0.3210382461547852,0.2449848175048828
0.3127407073974609,0.2531427383422851
0.3127407073974609,0.2531427383422851
0.3107637405395507,0.2392152786254883
0.3107637405395507,0.2392152786254883
0.3224761962890625,0.2544542312622070
0.3224761962890625,0.2544542312622070
0.3071119308471680,0.2437591552734375
0.3071119308471680,0.2437591552734375
0.3220825195312500,0.2466859817504883
0.3220825195312500,0.2466859817504883
0.3141437530517578,0.2552341461181640
0.3239130020141601,0.2552341461181640
0.3120941162109375,0.2410903930664062
0.3120941162109375,0.2410903930664062
0.3237184524536132,0.2560798645019531
0.3237184524536132,0.2560798645019531
0.3080892562866211,0.2452766418457031
0.3080892562866211,0.2452766418457031
0.3229631423950195,0.2479259490966797
0.3229631423950195,0.2479259490966797
0.3149362564086914,0.2563974380493164
0.3149362564086914,0.2563974380493164
0.3128837585449218,0.2426187515258789
0.3128837585449218,0.2426187515258789
0.3249286651611328,0.2580385208129883
0.3249286651611328,0.2580385208129883
0.3092599868774414,0.2472856521606445
0.3092599868774414,0.2472856521606445
0.3237653732299804,0.2489788055419922
0.3237653732299804,0.2489788055419922
0.3150083541870117,0.2562910079956054
0.3150083541870117,0.2562910079956054
0.3116306304931640,0.2406726837158203
0.3116306304931640,0.2406726837158203
0.3221111297607422,0.2539741516113281
0.3221111297607422,0.2539741516113281
0.3051338195800781,0.2412437438964844
0.3051338195800781,0.2412437438964844
0.3186275482177734,0.2417655944824219
0.3186275482177734,0.2417655944824219
0.3095518112182617,0.2484186172485351
0.3095518112182617,0.2484186172485351
0.3057689666748047,0.2324197769165039
0.3019357681274414,0.2324197769165039
0.3164909362792969,0.2459861755371094
0.3164909362792969,0.2459861755371094
0.2993602752685547,0.2334451675415039
0.2993602752685547,0.2334451675415039
0.3136070251464844,0.2346576690673828
0.3136070251464844,0.2346576690673828
0.3047807693481445,0.2420642852783203
0.3047807693481445,0.2420642852783203
0.3016765594482422,0.2267475128173828
0.3016765594482422,0.2267475128173828
0.3130170822143555,0.2412248611450195
0.3130170822143555,0.2412248611450195
0.2967298507690430,0.2300542831420898
0.2967298507690430,0.2300542831420898
0.3111522674560547,0.2317296981811523
0.3111522674560547,0.2317296981811523
0.3032289505004883,0.2399837493896484
0.3032289505004883,0.2399837493896484
0.3006019592285156,0.2260019302368164
0.3006019592285156,0.2260019302368164
0.3128202438354492,0.2412586212158203
0.3128202438354492,0.2412586212158203
0.2975549697875977,0.2317062377929687
0.2975549697875977,0.2317062377929687
0.3128505706787109,0.2341089248657227
0.3128505706787109,0.2341089248657227
0.3058954238891601,0.2435897827148437
0.3058954238891601,0.2435897827148437
0.3040048599243164,0.2305606842041016
0.3040048599243164,0.2305606842041016
0.3166322708129883,0.2466928482055664
0.3166322708129883,0.2466928482055664
0.3018407821655273,0.2375444412231445
0.3018407821655273,0.2375444412231445
0.3175151824951172,0.2405668258666992
0.3175151824951172,0.2405668258666992
0.3110280990600586,0.2506908416748047
0.3110280990600586,0.2506908416748047
0.3090637207031250,0.2378665924072265
0.3090637207031250,0.2378665924072265
0.3219142913818359,0.2537429809570312
0.3219142913818359,0.2537429809570312
0.3068504333496094,0.2445425033569336
0.3068504333496094,0.2445425033569336
0.3223033905029297,0.2472845077514648
0.3089715957641602,0.2472845077514648
0.3156652450561523,0.2571498870849609
0.3156652450561523,0.2571498870849609
0.3132516860961914,0.2438964843750000
0.3132516860961914,0.2438964843750000
0.3261314392089844,0.2596401214599609
0.3261314392089844,0.2596401214599609
0.3106945037841797,0.2501306533813477
0.3106945037841797,0.2501306533813477
0.3259243011474609,0.2525093078613281
0.3259243011474609,0.2525093078613281
0.3192449569702148,0.2619077682495117
0.3192449569702148,0.2619077682495117
0.3163976669311523,0.2483493804931640
0.3163976669311523,0.2483493804931640
0.3290937423706055,0.2635608673095703
0.3290937423706055,0.2635608673095703
0.3132076263427734,0.2540548324584961
0.3132076263427734,0.2540548324584961
0.3282079696655273,0.2558715820312500
0.3282079696655273,0.2558715820312500
0.3215034484863281,0.2652969360351562
0.3215034484863281,0.2652969360351562
0.3185817718505859,0.2517911911010742
0.3185817718505859,0.2517911911010742
0.3313768386840820,0.2674255371093750
0.3313768386840820,0.2674255371093750
0.3157985687255859,0.2580030441284180
0.3157985687255859,0.2580030441284180
0.3310741424560547,0.2601413726806641
0.3310741424560547,0.2601413726806641
0.3246603012084961,0.2698757171630859
0.3246603012084961,0.2698757171630859
0.3215641021728515,0.2562641143798828
0.3215641021728515,0.2562641143798828
0.3342453002929687,0.2712707519531250
0.3342453002929687,0.2712707519531250
0.3182722091674804,0.2613492965698242
0.3326860427856445,0.2613492965698242
0.3329229354858398,0.2630012512207031
0.3195648193359375,0.2630012512207031
0.3264467239379883,0.2724563598632813
0.3264467239379883,0.2724563598632813
0.3229951858520508,0.2584768295288086
0.3229951858520508,0.2584768295288086
0.3355058670043945,0.2731492996215820
0.3355058670043945,0.2731492996215820
0.3192014694213867,0.2628067016601562
0.3192014694213867,0.2628067016601562
0.3329195022583007,0.2629863739013672
0.3329195022583007,0.2629863739013672
0.3250070571899414,0.2697309494018554
0.3250070571899414,0.2697309494018554
0.3189428329467773,0.2521064758300781
0.3189428329467773,0.2521064758300781
0.3283859252929687,0.2620988845825195
0.3283859252929687,0.2620988845825195
0.3085510253906250,0.2474229812622070
0.3213449478149414,0.2474229812622070
0.3197101593017578,0.2436172485351562
0.3197101593017578,0.2436172485351562
0.3103740692138672,0.2488912582397461
0.3103740692138672,0.2488912582397461
0.3040689468383789,0.2316741943359375
0.3040689468383789,0.2316741943359375
0.3147583007812500,0.2437671661376953
0.3147583007812500,0.2437671661376953
0.2970703125000000,0.2320426940917969
0.2970703125000000,0.2320426940917969
0.3105852127075195,0.2316444396972656
0.3105852127075195,0.2316444396972656
0.3036306381225586,0.2399528503417969
0.3036306381225586,0.2399528503417969
0.2990598678588867,0.2252054214477539
0.2990598678588867,0.2252054214477539
0.3113616943359375,0.2391014099121094
0.3113616943359375,0.2391014099121094
0.2948799133300781,0.2289030075073242
0.2948799133300781,0.2289030075073242
0.3096376419067383,0.2299575805664062
0.3096376419067383,0.2299575805664062
0.3030412673950195,0.2394859313964844
0.3030412673950195,0.2394859313964844
0.2990369796752930,0.2245038986206055
0.2990369796752930,0.2245038986206055
0.3123292922973633,0.2402978897094726
0.3123292922973633,0.2402978897094726
0.2954435348510742,0.2298831939697266
0.2954435348510742,0.2298831939697266
0.3109342575073242,0.2318298339843750
0.3109342575073242,0.2318298339843750
0.3052682876586914,0.2417993545532227
0.3052682876586914,0.2417993545532227
0.3016284942626953,0.2285202026367187
0.3016284942626953,0.2285202026367187
0.3154718399047852,0.2447250366210937
0.3154718399047852,0.2447250366210937
0.2999576568603515,0.2364383697509765
0.2999576568603515,0.2364383697509765
0.3161899566650391,0.2391969680786133
0.3161899566650391,0.2391969680786133
0.3114601135253906,0.2512235641479492
0.3114601135253906,0.2512235641479492
0.3088165283203125,0.2390642166137695
0.3088165283203125,0.2390642166137695
0.3237190246582031,0.2566720962524414
0.3237190246582031,0.2566720962524414
0.3084228515625000,0.2484655380249023
0.3084228515625000,0.2484655380249023
0.3246768951416015,0.2514066696166992
0.3246768951416015,0.2514066696166992
0.3201284408569336,0.2627099990844726
0.3201284408569336,0.2627099990844726
0.3165287017822265,0.2497730255126953
0.3165287017822265,0.2497730255126953
0.3304258346557617,0.2656579971313476
0.3304258346557617,0.2656579971313476
0.3143520355224609,0.2565673828125000
0.3143520355224609,0.2565673828125000
0.3292854309082031,0.2578187942504883
0.3292854309082031,0.2578187942504883
0.3240680694580078,0.2680418014526367
0.3240680694580078,0.2680418014526367
0.3193422317504883,0.2536600112915039
0.3193422317504883,0.2536600112915039
0.3319232940673828,0.2675811767578125
0.3319232940673828,0.2675811767578125
0.3152612686157226,0.2571224212646484
0.3152612686157226,0.2571224212646484
0.3285272598266601,0.2568700790405273
0.3285272598266601,0.2568700790405273
0.3227302551269531,0.2654851913452148
0.3227302551269531,0.2654851913452148
0.3171655654907227,0.2503990173339843
0.3171655654907227,0.2503990173339843
0.3293695449829102,0.2639516830444336
0.3293695449829102,0.2639516830444336
0.3127916336059570,0.2541120529174805
0.3127916336059570,0.2541120529174805
0.3265314102172852,0.2541509628295898
0.3265314102172852,0.2541509628295898
0.3215120315551758,0.2638006210327148
0.3215120315551758,0.2638006210327148
0.3164360046386719,0.2496271133422852
0.3164360046386719,0.2496271133422852
0.3293489456176757,0.2642618179321289
0.3212396621704102,0.2642618179321289
0.3282165527343750,0.2548255920410156
0.3272460937500000,0.2548255920410156
0.3272975921630859,0.2553903579711914
0.3272975921630859,0.2553903579711914
0.3225969314575195,0.2654314041137695
0.3225969314575195,0.2654314041137695
0.3174362182617188,0.2513631820678711
0.3174362182617188,0.2513631820678711
0.3301557540893554,0.2652832031250000
0.3301557540893554,0.2652832031250000
0.3132230758666992,0.2546705245971679
0.3132230758666992,0.2546705245971679
0.3256896972656250,0.2528331756591797
0.3256896972656250,0.2528331756591797
0.3189073562622070,0.2599714279174805
0.3189073562622070,0.2599714279174805
0.3110218048095703,0.2418096542358398
0.3110218048095703,0.2418096542358398
0.3213283538818359,0.2524881362915039
0.3213283538818359,0.2524881362915039
0.3026121139526367,0.2394041061401367
0.3026121139526367,0.2394041061401367
0.3139686584472656,0.2365802764892578
0.3139686584472656,0.2365802764892578
0.3072898864746094,0.2437665939331055
0.3072898864746094,0.2437665939331055
0.3000497817993164,0.2271497726440430
0.3000497817993164,0.2271497726440430
0.3118492126464844,0.2398933410644531
0.3118492126464844,0.2398933410644531
0.2946578979492188,0.2292755126953125
0.2946578979492188,0.2292755126953125
0.3077093124389648,0.2283588409423828
0.3077093124389648,0.2283588409423828
0.3028678894042969,0.2377498626708984
0.3028678894042969,0.2377498626708984
0.2969123840332031,0.2229480743408203
0.2969123840332031,0.2229480743408203
0.3099328994750977,0.2372251510620117
0.3099328994750977,0.2372251510620117
0.2937566757202149,0.2275600433349609
0.2937566757202149,0.2275600433349609
0.3074764251708984,0.2276802062988281
0.3074764251708984,0.2276802062988281
0.3033880233764648,0.2382202148437500
0.3033880233764648,0.2382202148437500
0.2981781005859375,0.2244695663452148
0.2981781005859375,0.2244695663452148
0.3118240356445313,0.2396598815917969
0.3118240356445313,0.2396598815917969
0.2958938598632813,0.2307575225830078
0.2958938598632813,0.2307575225830078
0.3109010696411132,0.2321451187133789
0.3109010696411132,0.2321451187133789
0.3072246551513672,0.2439462661743164
0.3072246551513672,0.2439462661743164
0.3025074005126953,0.2304199218750000
0.3025074005126953,0.2304199218750000
0.3169561386108398,0.2468164443969726
0.3169561386108398,0.2468164443969726
0.3014934539794922,0.2386774063110352
0.3014934539794922,0.2386774063110352
0.3164566040039062,0.2406629562377930
0.3164566040039062,0.2406629562377930
0.3135108947753906,0.2523502349853515
0.3135108947753906,0.2523502349853515
0.3085012435913086,0.2392107009887695
0.3085012435913086,0.2392107009887695
0.3226833343505859,0.2552845001220703
0.3226833343505859,0.2552845001220703
0.3077384948730469,0.2477703094482422
0.3077384948730469,0.2477703094482422
0.3224407196044922,0.2490194320678711
0.3224407196044922,0.2490194320678711
0.3196512222290039,0.2607450485229492
0.3196512222290039,0.2607450485229492
0.3144235610961914,0.2475620269775390
0.3144235610961914,0.2475620269775390
0.3285604476928711,0.2634567260742187
0.3285604476928711,0.2634567260742187
0.3131006240844726,0.2549463272094726
0.3131006240844726,0.2549463272094726
0.3269439697265625,0.2554658889770507
0.3269439697265625,0.2554658889770507
0.3236463546752930,0.2664888381958008
0.3236463546752930,0.2664888381958008
0.3179632186889648,0.2525436401367188
0.3179632186889648,0.2525436401367188
0.3314884185791016,0.2673248291015625
0.3314884185791016,0.2673248291015625
0.3155908584594727,0.2583200454711914
0.3155908584594727,0.2583200454711914
0.3290330886840820,0.2582473754882812
0.3290330886840820,0.2582473754882812
0.3253984451293945,0.2689544677734375
0.3253984451293945,0.2689544677734375
0.3193748474121094,0.2542997360229492
0.3193748474121094,0.2542997360229492
0.3326723098754883,0.2690843582153320
0.3326723098754883,0.2690843582153320
0.3167495727539062,0.2599039077758789
0.3167495727539062,0.2599039077758789
0.3298810958862304,0.2597826004028320
0.3298810958862304,0.2597826004028320
0.3265966415405273,0.2705760955810547
0.3265966415405273,0.2705760955810547
0.3204294204711914,0.2561302185058594
0.3204294204711914,0.2561302185058594
0.3340364456176758,0.2711935043334961
0.3340364456176758,0.2711935043334961
0.3183231353759766,0.2627489089965820
0.3183231353759766,0.2627489089965820
0.3319965362548828,0.2628553390502930
0.3319965362548828,0.2628553390502930
0.3288900375366211,0.2740253448486328
0.3288900375366211,0.2740253448486328
0.3225660324096680,0.2592807769775390
0.3230735778808594,0.2592807769775390
0.3357244491577148,0.2735166549682617
0.3357244491577148,0.2735166549682617
0.3186973571777343,0.2625223159790039
0.3186973571777343,0.2625223159790039
0.3298210144042968,0.2590198516845703
0.3298210144042968,0.2590198516845703
0.3237991333007812,0.2658210754394531
0.3237991333007812,0.2658210754394531
0.3141489028930664,0.2465360641479492
0.3141489028930664,0.2465360641479492
0.3241922378540039,0.2564495086669922
0.3241922378540039,0.2564495086669922
0.3049375534057617,0.2429557800292969
0.3049375534057617,0.2429557800292969
0.3152097702026367,0.2387111663818359
0.3152097702026367,0.2387111663818359
0.3098562240600586,0.2468999862670898
0.3098562240600586,0.2468999862670898
0.3016067504882812,0.2296800613403320
0.3016067504882812,0.2296800613403320
0.3138376235961914,0.2427148818969727
0.3138376235961914,0.2427148818969727
0.2967596054077148,0.2323064804077148
0.2967596054077148,0.2323064804077148
0.3089687347412109,0.2307695388793945
0.2964586257934570,0.2307695388793945
0.3054056167602539,0.2409095764160156
0.3115207672119141,0.2409095764160156
0.2984487533569336,0.2254858016967773
0.2984487533569336,0.2254858016967773
0.3119144439697266,0.2400770187377930
0.3119144439697266,0.2400770187377930
0.2956443786621094,0.2308713912963867
0.2956443786621094,0.2308713912963867
0.3085315704345703,0.2300434112548828
0.3085315704345703,0.2300434112548828
0.3057369232177734,0.2411012649536133
0.3057369232177734,0.2411012649536133
0.2992498397827149,0.2264413833618164
0.2992498397827149,0.2264413833618164
0.3131355285644531,0.2419069290161133
0.3131355285644531,0.2419069290161133
0.2974548339843750,0.2331493377685547
0.2974548339843750,0.2331493377685547
0.3106750488281250,0.2330274581909180
0.3106750488281250,0.2330274581909180
0.3083988189697265,0.2447908401489258
0.3083988189697265,0.2447908401489258
0.3022647857666015,0.2308753967285156
0.3022647857666015,0.2308753967285156
0.3167873382568359,0.2468313217163086
0.3167873382568359,0.2468313217163086
0.3016719818115234,0.2389389038085937
0.3016719818115234,0.2389389038085937
0.3158260345458984,0.2396581649780273
0.3158260345458984,0.2396581649780273
0.3135681152343750,0.2528383255004883
0.3135681152343750,0.2528383255004883
0.3079216003417969,0.2379261016845703
0.3079216003417969,0.2379261016845703
0.3230083465576172,0.2551540374755859
0.3230083465576172,0.2551540374755859
0.3067348480224609,0.2462825775146484
0.3067348480224609,0.2462825775146484
0.3207778930664062,0.2467191696166992
0.3207778930664062,0.2467191696166992
0.3182619094848633,0.2588567733764648
0.3182619094848633,0.2588567733764648
0.3119567871093750,0.2440498352050781
0.3119567871093750,0.2440498352050781
0.3264410018920899,0.2603330612182617
0.3264410018920899,0.2603330612182617
0.3105640411376953,0.2518341064453125
0.3105640411376953,0.2518341064453125
0.3242717742919922,0.2515880584716797
0.3242717742919922,0.2515880584716797
0.3212041854858398,0.2634103775024414
0.3212041854858398,0.2634103775024414
0.3144504547119141,0.2475671768188477
0.3144504547119141,0.2475671768188477
0.3290273666381836,0.2641010284423828
0.3290273666381836,0.2641010284423828
0.3126880645751953,0.2547941207885742
0.3126880645751953,0.2547941207885742
0.3261817932128906,0.2545068740844726
0.3261817932128906,0.2545068740844726
0.3236366271972656,0.2664390563964844
0.3236366271972656,0.2664390563964844
0.3167907714843750,0.2511714935302734
0.3167907714843750,0.2511714935302734
0.3312435150146484,0.2670461654663086
0.3312435150146484,0.2670461654663086
0.3150901794433594,0.2580287933349609
0.3150901794433594,0.2580287933349609
0.3279853820800781,0.2573490142822266
0.3279853820800781,0.2573490142822266
0.3256341934204102,0.2692377090454102
0.3256341934204102,0.2692377090454102
0.3186601638793945,0.2538414001464844
0.3201536178588867,0.2538414001464844
0.3327249526977539,0.2688051223754883
0.3327249526977539,0.2688051223754883
0.3167387008666992,0.2601676940917969
0.3167387008666992,0.2601676940917969
0.3287309646606445,0.2587509155273438
0.3287309646606445,0.2587509155273438
0.3262910842895508,0.2696279525756836
0.3262910842895508,0.2696279525756836
0.3184970855712890,0.2533601760864257
0.3184970855712890,0.2533601760864257
0.3313287734985351,0.2665529251098633
0.3313287734985351,0.2665529251098633
0.3137489318847656,0.2553869247436523
0.3137489318847656,0.2553869247436523
0.3233808517456054,0.2504882812500000
0.3233808517456054,0.2504882812500000
0.3184690475463867,0.2578605651855468
0.3184690475463867,0.2578605651855468
0.3080926895141601,0.2383558273315430
0.3080926895141601,0.2383558273315430
0.3190378189086914,0.2494222640991211
0.3190378189086914,0.2494222640991211
0.3008983612060547,0.2374408721923828
0.3008983612060547,0.2374408721923828
0.3105720520019531,0.2331121444702148
0.3105720520019531,0.2331121444702148
0.3067583084106445,0.2421913146972656
0.3067583084106445,0.2421913146972656
0.2978553771972656,0.2251167297363281
0.2978553771972656,0.2251167297363281
0.3106922149658203,0.2383197784423828
0.3106922149658203,0.2383197784423828
0.2940542221069336,0.2286546707153320
0.2940542221069336,0.2286546707153320
0.3051069259643555,0.2259103775024414
0.3051069259643555,0.2259103775024414
0.3027425765991211,0.2368984222412109
0.3027425765991211,0.2368984222412109
0.2947380065917969,0.2206935882568359
0.2947380065917969,0.2206935882568359
0.3084749221801757,0.2351634979248047
0.3084749221801757,0.2351634979248047
0.2924812316894531,0.2264299392700195
0.2924812316894531,0.2264299392700195
0.3042171478271484,0.2246818542480469
0.3042171478271484,0.2246818542480469
0.3023729324340820,0.2362466812133789
0.3023729324340820,0.2362466812133789
0.2949056625366211,0.2209110260009766
0.2949056625366211,0.2209110260009766
0.3091020584106445,0.2360675811767578
0.3091020584106445,0.2360675811767578
0.2938236236572265,0.2283599853515625
0.2938236236572265,0.2283599853515625
0.3057975769042969,0.2268533706665039
0.3057975769042969,0.2268533706665039
0.3044734954833984,0.2391946792602539
0.3044734954833984,0.2391946792602539
0.2973049163818359,0.2241531372070313
0.2973049163818359,0.2241531372070313
0.3117937088012695,0.2398046493530273
0.3117937088012695,0.2398046493530273
0.2965845108032226,0.2321382522583008
0.2965845108032226,0.2321382522583008
0.3089189529418945,0.2310705184936523
0.3089189529418945,0.2310705184936523
0.3078844070434570,0.2438947677612305
0.3078844070434570,0.2438947677612305
0.3010414123535156,0.2297006607055664
0.3010414123535156,0.2297006607055664
0.3160886764526367,0.2460468292236328
0.3160886764526367,0.2460468292236328
0.3017309188842773,0.2395036697387695
0.3017309188842773,0.2395036697387695
0.3143766403198242,0.2391242980957031
0.3143766403198242,0.2391242980957031
0.3138364791870117,0.2527788162231445
0.3138364791870117,0.2527788162231445
0.3072263717651367,0.2382328033447265
0.3072263717651367,0.2382328033447265
0.3230106353759766,0.2553314208984375
0.3136030197143554,0.2417078018188477
0.3079216003417969,0.2485033035278320
0.3241905212402343,0.2485033035278320
0.3208374023437500,0.2479391098022461
0.3208374023437500,0.2479391098022461
0.3200860977172851,0.2612749099731445
0.3200860977172851,0.2612749099731445
0.3133152008056641,0.2469617843627930
0.3160829544067383,0.2469617843627930
0.3284420013427734,0.2632164001464843
0.3284420013427734,0.2632164001464843
0.3136430740356445,0.2565816879272461
0.3136430740356445,0.2565816879272461
0.3256118774414062,0.2551128387451172
0.3256118774414062,0.2551128387451172
0.3250734329223633,0.2684309005737305
0.3250734329223633,0.2684309005737305
0.3182332992553711,0.2544038772583008
0.3182332992553711,0.2544038772583008
0.3335861206054687,0.2711717605590820
0.3335861206054687,0.2711717605590820
0.3193250656127929,0.2651950836181641
0.3353261947631836,0.2651950836181641
0.3319198608398438,0.2647567749023437
0.3319198608398438,0.2647567749023437
0.3319107055664062,0.2787912368774414
0.3319107055664062,0.2787912368774414
0.3251375198364257,0.2648036956787109
0.3251375198364257,0.2648036956787109
0.3404949188232422,0.2809713363647461
0.3404949188232422,0.2809713363647461
0.3257589340209961,0.2745883941650391
0.3257589340209961,0.2745883941650391
0.3378559112548828,0.2732128143310547
0.3378559112548828,0.2732128143310547
0.3371515274047852,0.2858757019042968
0.3371515274047852,0.2858757019042968
0.3289558410644531,0.2695295333862305
0.3289558410644531,0.2695295333862305
0.3423145294189453,0.2827331542968750
0.3423145294189453,0.2827331542968750
0.3247587203979492,0.2721313476562500
0.3247587203979492,0.2721313476562500
0.3332788467407227,0.2654422760009765
0.3332788467407227,0.2654422760009765
0.3285655975341797,0.2722698211669922
0.3285655975341797,0.2722698211669922
0.3165355682373047,0.2508121490478515
0.3165355682373047,0.2508121490478515
0.3269107818603516,0.2600767135620117
0.3269107818603516,0.2600767135620117
0.3075021743774414,0.2477663040161133
0.3075021743774414,0.2477663040161133
0.3157390594482422,0.2406377792358398
0.3157390594482422,0.2406377792358398
0.3120849609375000,0.2494869232177734
0.3120849609375000,0.2494869232177734
0.3018934249877930,0.2309766769409179
0.3018934249877930,0.2309766769409179
0.3148092269897461,0.2440904617309570
0.3148092269897461,0.2440904617309570
0.2979915618896484,0.2349786758422852
0.2979915618896484,0.2349786758422852
0.3082878112792969,0.2309801101684570
0.3082878112792969,0.2309801101684570
0.3067342758178711,0.2424488067626953
0.3067342758178711,0.2424488067626953
0.2979022979736328,0.2260580062866211
0.2979022979736328,0.2260580062866211
0.3122354507446289,0.2404649734497070
0.3122354507446289,0.2404649734497070
0.2963819503784180,0.2331653594970703
0.2963819503784180,0.2331653594970703
0.3075983047485352,0.2302659988403320
0.3075983047485352,0.2302659988403320
0.3069442749023437,0.2429689407348633
0.3069442749023437,0.2429689407348633
0.2988401412963867,0.2271303176879883
0.2988401412963867,0.2271303176879883
0.3135343551635742,0.2423006057739258
0.3135343551635742,0.2423006057739258
0.2981866836547851,0.2356201171875000
0.2981866836547851,0.2356201171875000
0.3095867156982422,0.2330686569213867
0.3095867156982422,0.2330686569213867
0.3090648651123047,0.2457653045654297
0.3090648651123047,0.2457653045654297
0.3010374069213867,0.2300125122070312
0.3010374069213867,0.2300125122070312
0.3157888412475586,0.2452869415283203
0.3157888412475586,0.2452869415283203
0.3004211425781250,0.2387895584106445
0.3004211425781250,0.2387895584106445
0.3119184494018555,0.2360544204711914
0.3119184494018555,0.2360544204711914
0.3113365173339844,0.2489404678344727
0.3113365173339844,0.2489404678344727
0.3031877517700195,0.2331550598144531
0.3031877517700195,0.2331550598144531
0.3179208755493164,0.2486120223999023
0.3179208755493164,0.2486120223999023
0.3026613235473632,0.2420139312744141
0.3026613235473632,0.2420139312744141
0.3139177322387695,0.2390573501586914
0.3139177322387695,0.2390573501586914
0.3135017395019531,0.2517786026000977
0.3135017395019531,0.2517786026000977
0.3051641464233398,0.2361093521118164
0.3051641464233398,0.2361093521118164
0.3199779510498047,0.2509923934936523
0.3199779510498047,0.2509923934936523
0.3046119689941406,0.2445201873779297
0.3046119689941406,0.2445201873779297
0.3157688140869140,0.2412557601928711
0.3157688140869140,0.2412557601928711
0.3153070449829101,0.2540216445922852
0.3153070449829101,0.2540216445922852
0.3068773269653320,0.2379226684570312
0.3068773269653320,0.2379226684570312
0.3219755172729492,0.2536033630371093
0.3219755172729492,0.2536033630371093
0.3059766769409180,0.2469898223876953
0.3059766769409180,0.2469898223876953
0.3181251525878906,0.2443422317504883
0.3181251525878906,0.2443422317504883
0.3174951553344726,0.2574394226074219
0.3174951553344726,0.2574394226074219
0.3090333938598633,0.2412792205810547
0.3090333938598633,0.2412792205810547
0.3244646072387695,0.2572402954101562
0.3244646072387695,0.2572402954101562
0.3088811874389648,0.2513236999511719
0.3088811874389648,0.2513236999511719
0.3209140777587891,0.2484214782714844
0.3209140777587891,0.2484214782714844
0.3207023620605469,0.2621612548828125
0.3207023620605469,0.2621612548828125
0.3125541687011719,0.2460960388183594
0.3125541687011719,0.2460960388183594
0.3278337478637695,0.2623334884643554
0.3278337478637695,0.2623334884643554
0.3117542266845703,0.2558778762817382
0.3117542266845703,0.2558778762817382
0.3239662170410156,0.2531330108642578
0.3239662170410156,0.2531330108642578
0.3237768173217773,0.2669855117797851
0.3237768173217773,0.2669855117797851
0.3155067443847656,0.2507211685180664
0.3155067443847656,0.2507211685180664
0.3303251266479492,0.2655401229858398
0.3303251266479492,0.2655401229858398
0.3133460998535156,0.2575510025024414
0.3133460998535156,0.2575510025024414
0.3235227584838867,0.2516109466552734
0.3235227584838867,0.2516109466552734
0.3208620071411133,0.2617944717407226
0.3208620071411133,0.2617944717407226
0.3093538284301758,0.2411195755004883
0.3093538284301758,0.2411195755004883
0.3212030410766601,0.2519353866577148
0.3212030410766601,0.2519353866577148
0.3024850845336914,0.2419075012207031
0.3024850845336914,0.2419075012207031
0.3109319686889648,0.2348127365112305
0.3109319686889648,0.2348127365112305
0.3086242675781250,0.2449035644531250
0.3086242675781250,0.2449035644531250
0.2982856750488281,0.2268144607543945
0.2982856750488281,0.2268144607543945
0.3119161605834961,0.2398738861083984
0.3119161605834961,0.2398738861083984
0.2953863143920898,0.2330005645751953
0.2953863143920898,0.2330005645751953
0.3056728363037109,0.2279714584350586
0.3056728363037109,0.2279714584350586
0.3048557281494140,0.2399854660034180
0.3048557281494140,0.2399854660034180
0.2957239151000977,0.2233526229858398
0.2957239151000977,0.2233526229858398
0.3102258682250976,0.2378477096557617
0.3102258682250976,0.2378477096557617
0.2946710586547852,0.2317880630493164
0.2946710586547852,0.2317880630493164
0.3055595397949218,0.2276756286621094
0.3055595397949218,0.2276756286621094
0.3055109024047851,0.2406938552856445
0.3055109024047851,0.2406938552856445
0.2968883514404297,0.2249479293823242
0.2968883514404297,0.2249479293823242
0.3117639541625977,0.2397399902343750
0.3117639541625977,0.2397399902343750
0.2965393066406250,0.2346359252929687
0.2965393066406250,0.2346359252929687
0.3078020095825195,0.2310510635375976
0.3078020095825195,0.2310510635375976
0.3083387374877929,0.2447851181030273
0.3083387374877929,0.2447851181030273
0.2999816894531250,0.2293327331542969
0.2999816894531250,0.2293327331542969
0.3154838562011719,0.2449052810668945
0.3154838562011719,0.2449052810668945
0.3006116867065430,0.2404232025146484
0.3006116867065430,0.2404232025146484
0.3121261596679688,0.2373315811157226
0.3121261596679688,0.2373315811157226
0.3128231048583984,0.2509071350097656
0.3128231048583984,0.2509071350097656
0.3044843673706055,0.2356441497802734
0.3044843673706055,0.2356441497802734
0.3197965621948242,0.2511594772338867
0.3197965621948242,0.2511594772338867
0.3048173904418945,0.2467174530029297
0.3048173904418945,0.2467174530029297
0.3163444519042969,0.2429517745971680
0.3163444519042969,0.2429517745971680
0.3169269561767578,0.2566623687744141
0.3169269561767578,0.2566623687744141
0.3082677841186524,0.2411630630493164
0.3082677841186524,0.2411630630493164
0.3234947204589844,0.2562692642211914
0.3234947204589844,0.2562692642211914
0.3082500457763672,0.2516687393188476
0.3082500457763672,0.2516687393188476
0.3194515228271484,0.2475013732910156
0.3194515228271484,0.2475013732910156
0.3197765350341797,0.2609807968139649
0.3197765350341797,0.2609807968139649
0.3111001968383789,0.2454214096069336
0.3151926040649414,0.2454214096069336
0.3262155532836914,0.2603908538818359
0.3262155532836914,0.2603908538818359
0.3111013412475586,0.2559602737426758
0.3111013412475586,0.2559602737426758
0.3226787567138672,0.2520870208740234
0.3226787567138672,0.2520870208740234
0.3234066009521484,0.2662233352661132
0.3234066009521484,0.2662233352661132
0.3151405334472656,0.2510066986083984
0.3151405334472656,0.2510066986083984
0.3305814743041992,0.2667234420776367
0.3305814743041992,0.2667234420776367
0.3157808303833008,0.2627557754516601
0.3157808303833008,0.2627557754516601
0.3277015686035156,0.2593442916870117
0.3277015686035156,0.2593442916870117
0.3285289764404297,0.2739686965942383
0.3285289764404297,0.2739686965942383
0.3201118469238281,0.2586599349975586
0.3201118469238281,0.2586599349975586
0.3362634658813476,0.2747766494750977
0.3362634658813476,0.2747766494750977
0.3210588455200195,0.2712707519531250
0.3210588455200195,0.2712707519531250
0.3334241867065429,0.2679130554199219
0.3334241867065429,0.2679130554199219
0.3344610214233398,0.2828155517578125
0.3390335083007812,0.2828155517578125
0.3260473251342773,0.2676464080810547
0.3260473251342773,0.2676464080810547
0.3412885665893555,0.2824190139770508
0.3412885665893555,0.2824190139770508
0.3256084442138672,0.2771890640258789
0.3256084442138672,0.2771890640258789
0.3357089996337890,0.2708198547363281
0.3357089996337890,0.2708198547363281
0.3343557357788086,0.2812528610229492
0.3343557357788086,0.2812528610229492
0.3222352981567383,0.2609270095825195
0.3222352981567383,0.2609270095825195
0.3336719512939453,0.2701927185058594
0.3207206726074219,0.2701927185058594
0.3143703460693359,0.2601642608642578
0.3143703460693359,0.2601642608642578
0.3214416503906250,0.2498502731323242
0.3214416503906250,0.2498502731323242
0.3184238433837890,0.2585334777832031
0.3184238433837890,0.2585334777832031
0.3064155578613281,0.2385086059570312
0.3064155578613281,0.2385086059570312
0.3189617156982422,0.2497856140136719
0.3189617156982422,0.2497856140136719
0.3017480850219726,0.2429758071899414
0.3017480850219726,0.2429758071899414
