REDsignal,IRsignal
0.5374992370605468,0.6331752777099610
0.5308977127075195,0.6309917449951171
0.5308977127075195,0.6309917449951171
0.5376525878906250,0.6314008712768554
0.5376525878906250,0.6314008712768554
0.5357276916503906,0.6353050231933594
0.5357276916503906,0.6353050231933594
0.5329565048217774,0.6294971466064453
0.5329565048217774,0.6294971466064453
0.5386796951293945,0.6354978561401367
0.5386796951293945,0.6354978561401367
0.5328340530395508,0.6324050903320312
0.5328340530395508,0.6324050903320312
0.5374889373779297,0.6321224212646485
0.5374889373779297,0.6321224212646485
0.5361968994140625,0.6362411499023437
0.5361968994140625,0.6362411499023437
0.5334863662719727,0.6300710678100586
0.5334863662719727,0.6300710678100586
0.5400655746459960,0.6360191345214844
0.5400655746459960,0.6360191345214844
0.5323007583618163,0.6327810287475586
0.5323007583618163,0.6327810287475586
0.5379764556884765,0.6332502365112305
0.5379764556884765,0.6332502365112305
0.5367788314819336,0.6375715255737304
0.5367788314819336,0.6375715255737304
0.5351966857910156,0.6317127227783202
0.5351966857910156,0.6317127227783202
0.5400283813476562,0.6377912521362304
0.5400283813476562,0.6377912521362304
0.5331727981567382,0.6354085922241210
0.5331727981567382,0.6354085922241210
0.5389606475830078,0.6357364654541016
0.5389606475830078,0.6357364654541016
0.5386831283569335,0.6399278640747070
0.5386831283569335,0.6399278640747070
0.5351274490356445,0.6337303161621094
0.5351274490356445,0.6337303161621094
0.5409187316894531,0.6404857635498047
0.5409187316894531,0.6404857635498047
0.5339149475097656,0.6372024536132812
0.5339149475097656,0.6372024536132812
0.5405347824096679,0.6370399475097656
0.5405347824096679,0.6370399475097656
0.5381286621093749,0.6401756286621093
0.5381286621093749,0.6401756286621093
0.5355554580688476,0.6347087860107422
0.5355554580688476,0.6347087860107422
0.5413461685180664,0.6413286209106445
0.5413461685180664,0.6413286209106445
0.5348659515380859,0.6370954513549805
0.5348659515380859,0.6370954513549805
0.5385274887084961,0.6335649490356445
0.5385274887084961,0.6335649490356445
0.5351057052612305,0.6336107254028320
0.5351057052612305,0.6336107254028320
0.5303993225097656,0.6234821319580078
0.5303993225097656,0.6234821319580078
0.5352230072021484,0.6262876510620117
0.5352230072021484,0.6262876510620117
0.5261054992675781,0.6202611923217773
0.5261054992675781,0.6202611923217773
0.5306808471679687,0.6186967849731445
0.5247344970703125,0.6186967849731445
0.5287107467651367,0.6211103439331055
0.5287107467651367,0.6211103439331055
0.5265890121459961,0.6145191192626953
0.5265890121459961,0.6145191192626953
0.5309583663940429,0.6198097229003906
0.5309583663940429,0.6198097229003906
0.5241474151611328,0.6170991897583008
0.5241474151611328,0.6170991897583008
0.5297075271606445,0.6172136306762696
0.5297075271606445,0.6172136306762696
0.5294443130493164,0.6213838577270507
0.5294443130493164,0.6213838577270507
0.5262405395507812,0.6156068801879883
0.5262405395507812,0.6156068801879883
0.5321147918701171,0.6228286743164062
0.5321147918701171,0.6228286743164062
0.5257776260375976,0.6209873199462891
0.5257776260375976,0.6209873199462891
0.5328432083129883,0.6223171234130859
0.5328432083129883,0.6223171234130859
0.5314115524291992,0.6274040222167968
0.5314115524291992,0.6274040222167968
0.5295495986938477,0.6235845565795898
0.5295495986938477,0.6235845565795898
0.5358747482299805,0.6314123153686523
0.5358747482299805,0.6314123153686523
0.5308284759521484,0.6301797866821289
0.5308284759521484,0.6301797866821289
0.5361253738403320,0.6314146041870117
0.5361253738403320,0.6314146041870117
0.5356550216674805,0.6370330810546875
0.5356550216674805,0.6370330810546875
0.5334457397460938,0.6322351455688476
0.5334457397460938,0.6322351455688476
0.5405010223388672,0.6393161773681640
0.5405010223388672,0.6393161773681640
0.5330022811889649,0.6365409851074219
0.5330022811889649,0.6365409851074219
0.5388696670532226,0.6374376296997070
0.5388696670532226,0.6374376296997070
0.5375713348388672,0.6417119979858398
0.5375713348388672,0.6417119979858398
0.5360321044921875,0.6357479095458984
0.5360321044921875,0.6357479095458984
0.5406108856201172,0.6413269042968750
0.5406108856201172,0.6413269042968750
0.5336391448974609,0.6384939193725586
0.5336391448974609,0.6384939193725586
0.5390333175659180,0.6386329650878906
0.5390333175659180,0.6386329650878906
0.5387689590454101,0.6425971984863281
0.5387689590454101,0.6425971984863281
0.5351251602172852,0.6361948013305664
0.5351251602172852,0.6361948013305664
0.5407985687255860,0.6427820205688476
0.5407985687255860,0.6427820205688476
0.5339796066284179,0.6399696350097656
0.5339796066284179,0.6399696350097656
0.5405902862548828,0.6404783248901367
0.5405902862548828,0.6404783248901367
0.5387008666992187,0.6444293975830078
0.5387008666992187,0.6444293975830078
0.5362855911254882,0.6392040252685547
0.5362855911254882,0.6392040252685547
0.5421243667602539,0.6459651947021484
0.5421243667602539,0.6459651947021484
0.5367233276367187,0.6438016891479492
0.5367233276367187,0.6438016891479492
0.5416860580444336,0.6438783645629883
0.5416860580444336,0.6438783645629883
0.5409811019897460,0.6491729736328125
0.5409811019897460,0.6491729736328125
0.5386127471923828,0.6438829421997070
0.5386127471923828,0.6438829421997070
0.5457429885864258,0.6506406784057617
0.5457429885864258,0.6506406784057617
0.5381275177001953,0.6480194091796875
0.5381275177001953,0.6480194091796875
0.5439256668090821,0.6487340927124023
0.5439256668090821,0.6487340927124023
0.5431451797485352,0.6531291961669922
0.5431451797485352,0.6531291961669922
0.5409873962402344,0.6461425781250000
0.5409873962402344,0.6461425781250000
0.5449676513671875,0.6493869781494140
0.5449676513671875,0.6493869781494140
0.5361345291137695,0.6422744750976562
0.5361345291137695,0.6422744750976562
0.5389446258544922,0.6364133834838867
0.5389446258544922,0.6364133834838867
0.5359605789184571,0.6349405288696289
0.5359605789184571,0.6349405288696289
0.5298837661743164,0.6237762451171874
0.5298837661743164,0.6237762451171874
0.5335950851440430,0.6264020919799804
0.5335950851440430,0.6264020919799804
0.5251665115356445,0.6207944869995117
0.5251665115356445,0.6207944869995117
0.5305984497070312,0.6187620162963867
0.5305984497070312,0.6187620162963867
0.5280824661254883,0.6216379165649414
0.5280824661254883,0.6216379165649414
0.5248329162597656,0.6152469635009765
0.5248329162597656,0.6152469635009765
0.5304725646972656,0.6212968826293945
0.5304725646972656,0.6212968826293945
0.5245382308959960,0.6186985015869141
0.5245382308959960,0.6186985015869141
0.5292892456054688,0.6188089370727539
0.5292892456054688,0.6188089370727539
0.5288120269775390,0.6240308761596679
0.5288120269775390,0.6240308761596679
0.5341615676879883,0.6241104125976562
0.5333135604858398,0.6241104125976562
0.5295627593994140,0.6215354919433593
0.5295627593994140,0.6215354919433593
0.5326051712036133,0.6278949737548828
0.5326051712036133,0.6278949737548828
0.5264625549316406,0.6231925964355468
0.5264625549316406,0.6231925964355468
0.5345678329467773,0.6277645111083984
0.5345678329467773,0.6277645111083984
0.5302694320678710,0.6298822402954102
0.5302694320678710,0.6298822402954102
0.5322269439697266,0.6273502349853516
0.5322269439697266,0.6273502349853516
0.5343641281127930,0.6339694976806640
0.5343641281127930,0.6339694976806640
0.5309514999389648,0.6290788650512695
0.5309514999389648,0.6290788650512695
0.5378454208374023,0.6338207244873046
0.5378454208374023,0.6338207244873046
0.5329948425292969,0.6360071182250976
0.5329948425292969,0.6360071182250976
0.5337060928344727,0.6334104537963867
0.5337060928344727,0.6334104537963867
0.5384531021118164,0.6396577835083007
0.5384531021118164,0.6396577835083007
0.5335212707519531,0.6346435546875000
0.5377550125122070,0.6346435546875000
0.5398361206054687,0.6385997772216797
0.5398361206054687,0.6385997772216797
0.5335750579833984,0.6402723312377929
0.5335750579833984,0.6402723312377929
0.5369899749755859,0.6370874404907226
0.5369899749755859,0.6370874404907226
0.5402910232543945,0.6425840377807617
0.5402910232543945,0.6425840377807617
0.5348379135131835,0.6372459411621093
0.5348379135131835,0.6372459411621093
0.5396450042724609,0.6408823013305663
0.5396450042724609,0.6408823013305663
0.5359428405761718,0.6415586471557617
0.5359428405761718,0.6415586471557617
0.5376886367797852,0.6379732131958008
0.5376886367797852,0.6379732131958008
0.5405582427978516,0.6435264587402344
0.5405582427978516,0.6435264587402344
0.5342336654663086,0.6385454177856446
0.5342336654663086,0.6385454177856446
0.5420150756835938,0.6428277969360351
0.5420150756835938,0.6428277969360351
0.5373933792114257,0.6442634582519531
0.5373933792114257,0.6442634582519531
0.5391878128051758,0.6417097091674805
0.5391878128051758,0.6417097091674805
0.5411870956420898,0.6485223770141602
0.5411870956420898,0.6485223770141602
0.5380931854248047,0.6445415496826171
0.5380931854248047,0.6445415496826171
0.5448400497436523,0.6495460510253906
0.5448400497436523,0.6495460510253906
0.5403162002563476,0.6517301559448242
0.5403162002563476,0.6517301559448242
0.5411750793457031,0.6496335983276367
0.5411750793457031,0.6496335983276367
0.5459203720092773,0.6558013916015625
0.5459203720092773,0.6558013916015625
0.5412918090820312,0.6508855819702148
0.5412918090820312,0.6508855819702148
0.5472593307495117,0.6545906066894531
0.5472593307495117,0.6545906066894531
0.5404964447021484,0.6539274215698242
0.5404964447021484,0.6539274215698242
0.5422147750854492,0.6467800140380859
0.5422147750854492,0.6467800140380859
0.5427200317382812,0.6463588714599610
0.5427200317382812,0.6463588714599610
0.5344694137573242,0.6343711853027344
0.5344694137573242,0.6343711853027344
0.5363674163818359,0.6327924728393555
0.5363674163818359,0.6327924728393555
0.5308170318603516,0.6296705245971680
0.5308170318603516,0.6296705245971680
0.5310888290405273,0.6230804443359375
0.5310888290405273,0.6230804443359375
0.5325714111328125,0.6264392852783203
0.5325714111328125,0.6264392852783203
0.5250532150268554,0.6194475173950195
0.5250532150268554,0.6194475173950195
0.5320266723632813,0.6221391677856445
0.5320266723632813,0.6221391677856445
0.5270627975463867,0.6230203628540039
0.5270627975463867,0.6230203628540039
0.5284807205200195,0.6194704055786132
0.5241439819335937,0.6194704055786132
0.5301315307617187,0.6253051757812500
0.5301315307617187,0.6253051757812500
0.5264511108398438,0.6199298858642578
0.5264511108398438,0.6199298858642578
0.5329730987548827,0.6238992691040038
0.5329730987548827,0.6238992691040038
0.5282844543457031,0.6258373260498047
0.5282844543457031,0.6258373260498047
0.5288148880004883,0.6233139038085938
0.5288148880004883,0.6233139038085938
0.5335899353027344,0.6295766830444336
0.5335899353027344,0.6295766830444336
0.5288766860961914,0.6249795913696289
0.5288766860961914,0.6249795913696289
0.5351766586303711,0.6295383453369140
0.5351766586303711,0.6295383453369140
0.5295112609863281,0.6321933746337890
0.5295112609863281,0.6321933746337890
0.5331962585449218,0.6301403045654297
0.5331962585449218,0.6301403045654297
0.5369722366333007,0.6368156433105469
0.5369722366333007,0.6368156433105469
0.5318836212158203,0.6324394226074218
0.5318836212158203,0.6324394226074218
0.5371147155761719,0.6369009017944336
0.5371147155761719,0.6369009017944336
0.5340906143188476,0.6393224716186523
0.5340906143188476,0.6393224716186523
0.5363193511962890,0.6368940353393554
0.5363193511962890,0.6368940353393554
0.5395711898803711,0.6428112030029297
0.5395711898803711,0.6428112030029297
0.5332775115966797,0.6380687713623047
0.5332775115966797,0.6380687713623047
0.5409673690795899,0.6417583465576172
0.5409673690795899,0.6417583465576172
0.5365430831909179,0.6430492401123047
0.5365430831909179,0.6430492401123047
0.5378757476806640,0.6396194458007812
0.5378757476806640,0.6396194458007812
0.5397153854370117,0.6451589584350585
0.5397153854370117,0.6451589584350585
0.5356653213500976,0.6391862869262696
0.5356653213500976,0.6391862869262696
0.5418634414672852,0.6423362731933594
0.5418634414672852,0.6423362731933594
0.5368005752563476,0.6432701110839844
0.5368005752563476,0.6432701110839844
0.5370082855224609,0.6400806427001953
0.5370082855224609,0.6400806427001953
0.5414234161376953,0.6456087112426757
0.5414234161376953,0.6456087112426757
0.5362981796264649,0.6401235580444335
0.5362981796264649,0.6401235580444335
0.5422834396362305,0.6438966751098633
0.5422834396362305,0.6438966751098633
0.5362701416015625,0.6459383010864258
0.5362701416015625,0.6459383010864258
0.5396095275878906,0.6433095932006836
0.5396095275878906,0.6433095932006836
0.5431749343872070,0.6497806549072266
0.5431749343872070,0.6497806549072266
0.5380754470825195,0.6448030471801758
0.5380754470825195,0.6448030471801758
0.5431285858154297,0.6490562438964843
0.5431285858154297,0.6490562438964843
0.5401044845581054,0.6509817123413085
0.5401044845581054,0.6509817123413085
0.5421483993530273,0.6483072280883789
0.5421483993530273,0.6483072280883789
0.5451272964477539,0.6545196533203125
0.5451272964477539,0.6545196533203125
0.5385354995727539,0.6495386123657226
0.5385354995727539,0.6495386123657226
0.5462024688720702,0.6534072875976562
0.5462024688720702,0.6534072875976562
0.5417604446411133,0.6550815582275390
0.5417604446411133,0.6550815582275390
0.5428035736083984,0.6505651473999023
0.5428035736083984,0.6505651473999023
0.5433294296264648,0.6535795211791992
0.5433294296264648,0.6535795211791992
0.5376440048217773,0.6435939788818359
0.5376440048217773,0.6435939788818359
0.5414772033691406,0.6413200378417968
0.5414772033691406,0.6413200378417968
0.5339189529418945,0.6376459121704101
0.5339189529418945,0.6376459121704101
0.5316358566284179,0.6295337677001953
0.5316358566284179,0.6295337677001953
0.5343973159790039,0.6316875457763672
0.5343973159790039,0.6316875457763672
0.5277225494384765,0.6235044479370117
0.5277225494384765,0.6235044479370117
0.5328655242919922,0.6250041961669922
0.5328655242919922,0.6250041961669922
0.5262445449829102,0.6256479263305664
0.5320775985717773,0.6256479263305664
0.5288280487060547,0.6215251922607422
0.5288280487060547,0.6215251922607422
0.5323162078857422,0.6269382476806641
0.5323162078857422,0.6269382476806641
0.5265678405761719,0.6215377807617187
0.5265678405761719,0.6215377807617187
0.5313795089721679,0.6253892898559570
0.5313795089721679,0.6253892898559570
0.5283617019653321,0.6272998809814453
0.5283617019653321,0.6272998809814453
0.5301870346069336,0.6245069503784180
0.5301870346069336,0.6245069503784180
0.5335521697998047,0.6307725906372070
0.5335521697998047,0.6307725906372070
0.5272579193115234,0.6263259887695313
0.5272579193115234,0.6263259887695313
0.5352727890014648,0.6307348251342774
0.5352727890014648,0.6307348251342774
0.5313097000122070,0.6333452224731445
0.5313097000122070,0.6333452224731445
0.5331676483154296,0.6311897277832031
0.5331676483154296,0.6311897277832031
0.5354307174682617,0.6376710891723633
0.5354307174682617,0.6376710891723633
0.5319013595581055,0.6327089309692383
0.5319013595581055,0.6327089309692383
0.5383729934692383,0.6365661621093750
0.5383729934692383,0.6365661621093750
0.5338073730468750,0.6383188247680663
0.5338073730468750,0.6383188247680663
0.5344099044799805,0.6360403060913086
0.5344099044799805,0.6360403060913086
0.5392272949218749,0.6421669006347656
0.5392272949218749,0.6421669006347656
0.5342788696289062,0.6368185043334961
0.5342788696289062,0.6368185043334961
0.5401657104492187,0.6406917572021484
0.5401657104492187,0.6406917572021484
0.5343584060668946,0.6428489685058594
0.5343584060668946,0.6428489685058594
0.5377584457397461,0.6404365539550781
0.5377584457397461,0.6404365539550781
0.5412940979003906,0.6467863082885742
0.5412940979003906,0.6467863082885742
0.5360767364501953,0.6413045883178711
0.5360767364501953,0.6413045883178711
0.5408020019531250,0.6449993133544921
0.5408020019531250,0.6449993133544921
0.5375667572021484,0.6461637496948242
0.5375667572021484,0.6461637496948242
0.5393583297729492,0.6425977706909179
0.5393583297729492,0.6425977706909179
0.5420459747314453,0.6479061126708984
0.5420459747314453,0.6479061126708984
0.5350061416625976,0.6416885375976562
0.5350061416625976,0.6416885375976562
0.5423160552978515,0.6444173812866211
0.5423160552978515,0.6444173812866211
0.5376171112060547,0.6455263137817383
0.5376171112060547,0.6455263137817383
0.5386837005615234,0.6418029785156250
0.5386837005615234,0.6418029785156250
0.5405313491821289,0.6473768234252929
0.5398595809936523,0.6473768234252929
0.5364509582519531,0.6419300079345703
0.5364509582519531,0.6419300079345703
0.5429088592529296,0.6455411911010742
0.5429088592529296,0.6455411911010742
0.5382219314575195,0.6476423263549804
0.5382219314575195,0.6476423263549804
0.5384696960449219,0.6448928833007812
0.5384696960449219,0.6448928833007812
0.5435852050781250,0.6513233184814453
0.5435852050781250,0.6513233184814453
0.5385469436645508,0.6468149185180664
0.5385469436645508,0.6468149185180664
0.5450546264648437,0.6512323379516601
0.5450546264648437,0.6512323379516601
0.5393468856811523,0.6534450531005859
0.5393468856811523,0.6534450531005859
0.5420883178710937,0.6490699768066406
0.5420883178710937,0.6490699768066406
0.5444561004638672,0.6519264221191406
0.5444561004638672,0.6519264221191406
0.5367261886596679,0.6420026779174804
0.5367261886596679,0.6420026779174804
0.5387334823608398,0.6400760650634766
0.5387334823608398,0.6400760650634766
0.5330789566040038,0.6364952087402344
0.5330789566040038,0.6364952087402344
0.5322601318359375,0.6289375305175781
0.5322601318359375,0.6289375305175781
0.5336757659912109,0.6311084747314453
0.5336757659912109,0.6311084747314453
0.5257896423339844,0.6236846923828124
0.5257896423339844,0.6236846923828124
0.5322326660156250,0.6256422042846680
0.5322326660156250,0.6256422042846680
0.5275663375854492,0.6262624740600585
0.5275663375854492,0.6262624740600585
0.5284938812255859,0.6225660324096679
0.5284938812255859,0.6225660324096679
0.5301498413085938,0.6279951095581054
0.5301498413085938,0.6279951095581054
0.5261507034301758,0.6225156784057617
0.5271715164184571,0.6222072601318359
0.5285837173461914,0.6293661117553710
0.5285837173461914,0.6243352890014648
0.5269266128540039,0.6274034500122070
0.5269266128540039,0.6274034500122070
0.5332208633422851,0.6271059036254882
0.5332208633422851,0.6271059036254882
0.5321840286254883,0.6321590423583984
0.5321840286254883,0.6321590423583984
0.5296033859252930,0.6269966125488281
0.5296033859252930,0.6269966125488281
0.5356498718261719,0.6340318679809570
0.5356498718261719,0.6340318679809570
0.5304668426513671,0.6323793411254882
0.5304668426513671,0.6323793411254882
0.5351732254028320,0.6320955276489257
0.5351732254028320,0.6320955276489257
0.5351016998291015,0.6382209777832031
0.5351016998291015,0.6382209777832031
0.5324838638305663,0.6328073501586914
0.5324838638305663,0.6328073501586914
0.5396352767944336,0.6400114059448242
0.5396352767944336,0.6400114059448242
0.5325159072875977,0.6381511688232422
0.5325159072875977,0.6381511688232422
0.5378368377685546,0.6381872177124023
0.5378368377685546,0.6381872177124023
0.5376520156860352,0.6436500549316406
0.5376520156860352,0.6436500549316406
0.5356876373291015,0.6374965667724609
0.5356876373291015,0.6374965667724609
0.5407001495361328,0.6433399200439452
0.5407001495361328,0.6433399200439452
0.5339063644409180,0.6409790039062500
0.5339063644409180,0.6409790039062500
0.5386264801025390,0.6398895263671874
0.5386264801025390,0.6398895263671874
0.5390762329101563,0.6444911956787109
0.5390762329101563,0.6444911956787109
0.5350284576416016,0.6377878189086914
0.5350284576416016,0.6377878189086914
0.5407419204711914,0.6442972183227539
0.5407419204711914,0.6442972183227539
0.5341249465942383,0.6419168472290039
0.5341249465942383,0.6419168472290039
0.5399900436401367,0.6410882949829101
0.5399900436401367,0.6410882949829101
0.5387660980224609,0.6458736419677734
0.5387660980224609,0.6458736419677734
0.5359004974365235,0.6400629043579101
0.5359004974365235,0.6400629043579101
0.5416585922241210,0.6467113494873047
0.5416585922241210,0.6467113494873047
0.5362564086914062,0.6447658538818359
0.5362564086914062,0.6447658538818359
0.5404724121093750,0.6437055587768554
0.5404724121093750,0.6437055587768554
0.5402687072753906,0.6491643905639648
0.5402687072753906,0.6491643905639648
0.5381715774536132,0.6430749893188477
0.5381715774536132,0.6497400283813476
0.5441236495971680,0.6496730804443359
0.5441236495971680,0.6496730804443359
0.5369338989257812,0.6475702285766601
0.5369338989257812,0.6475702285766601
0.5419984817504883,0.6472326278686523
0.5419984817504883,0.6472326278686523
0.5418949127197266,0.6526079177856445
0.5418949127197266,0.6526079177856445
0.5398052215576171,0.6464807510375976
0.5398052215576171,0.6464807510375976
0.5445842742919922,0.6519458770751952
0.5445842742919922,0.6519458770751952
0.5374328613281250,0.6479982376098633
0.5374328613281250,0.6479982376098633
0.5405817031860352,0.6432083129882812
0.5405817031860352,0.6432083129882812
0.5386831283569335,0.6429811477661133
0.5386831283569335,0.6429811477661133
0.5323442459106446,0.6315885543823242
0.5323442459106446,0.6315885543823242
0.5360727310180664,0.6341623306274414
0.5360727310180664,0.6341623306274414
0.5278947830200195,0.6286525726318359
0.5278947830200195,0.6286525726318359
0.5325422286987305,0.6254047393798828
0.5325422286987305,0.6254047393798828
0.5302888870239257,0.6281770706176758
0.5302888870239257,0.6281770706176758
0.5266525268554687,0.6208671569824219
0.5266525268554687,0.6208671569824219
0.5319133758544922,0.6260742187500000
0.5319133758544922,0.6260742187500000
0.5260236740112304,0.6231056213378906
0.5260236740112304,0.6231056213378906
0.5300817489624023,0.6218267440795898
0.5300817489624023,0.6218267440795898
0.5296468734741211,0.6269720077514648
0.5296468734741211,0.6269720077514648
0.5265541076660156,0.6207595825195312
0.5265541076660156,0.6207595825195312
0.5332317352294922,0.6271728515625000
0.5332317352294922,0.6271728515625000
0.5260225296020508,0.6249275207519531
0.5260225296020508,0.6249275207519531
0.5314332962036132,0.6253669738769531
0.5314332962036132,0.6253669738769531
0.5315872192382812,0.6314363479614258
0.5315872192382812,0.6314363479614258
0.5299776077270507,0.6261440277099609
0.5299776077270507,0.6261440277099609
0.5354467391967773,0.6330791473388672
0.5354467391967773,0.6330791473388672
0.5292800903320313,0.6317584991455077
0.5292800903320313,0.6317584991455077
0.5347709655761719,0.6316612243652343
0.5347709655761719,0.6316612243652343
0.5356224060058593,0.6373540878295898
0.5356224060058593,0.6373540878295898
0.5321147918701171,0.6311199188232421
0.5321147918701171,0.6311199188232421
0.5379718780517578,0.6379005432128906
0.5379718780517578,0.6379005432128906
0.5314876556396484,0.6359344482421875
0.5314876556396484,0.6359344482421875
0.5374814987182617,0.6354927062988281
0.5374814987182617,0.6354927062988281
0.5365030288696289,0.6403083801269531
0.5365030288696289,0.6403083801269531
0.5334371566772461,0.6343042373657226
0.5334371566772461,0.6343042373657226
0.5389961242675781,0.6405796051025391
0.5389961242675781,0.6405796051025391
0.5336505889892578,0.6386587142944335
0.5400856018066406,0.6386587142944335
0.5377933502197265,0.6377540588378906
0.5322813034057617,0.6377540588378906
0.5376096725463867,0.6433645248413086
0.5376096725463867,0.6433645248413086
0.5345157623291016,0.6371767044067382
0.5345157623291016,0.6371767044067382
0.5411785125732421,0.6438463211059570
0.5411785125732421,0.6438463211059570
0.5341615676879883,0.6416015625000000
0.5341615676879883,0.6416015625000000
0.5391563415527344,0.6413085937499999
0.5391563415527344,0.6413085937499999
0.5387998580932617,0.6466415405273437
0.5387998580932617,0.6466415405273437
0.5368675231933594,0.6407438278198242
0.5368675231933594,0.6407438278198242
0.5418107986450195,0.6472211837768554
0.5418107986450195,0.6472211837768554
0.5356121063232422,0.6458272933959961
0.5356121063232422,0.6458272933959961
0.5406520843505859,0.6452459335327149
0.5406520843505859,0.6452459335327149
0.5415058135986328,0.6507448196411133
0.5415058135986328,0.6507448196411133
0.5376508712768554,0.6446525573730468
0.5376508712768554,0.6446525573730468
0.5435153961181640,0.6517639160156250
0.5398578643798828,0.6517639160156250
0.5374013900756835,0.6504278182983398
0.5374013900756835,0.6504278182983398
0.5434123992919921,0.6502693176269531
0.5434123992919921,0.6502693176269531
0.5427154541015625,0.6556766510009765
0.5427154541015625,0.6556766510009765
0.5398916244506836,0.6500942230224609
0.5398916244506836,0.6500942230224609
0.5454002380371094,0.6558254241943359
0.5454002380371094,0.6558254241943359
0.5392364501953125,0.6514549255371094
0.5392364501953125,0.6514549255371094
0.5414016723632812,0.6455039978027344
0.5414016723632812,0.6455039978027344
0.5382339477539062,0.6446783065795898
0.5382339477539062,0.6446783065795898
0.5321720123291015,0.6322614669799804
0.5321720123291015,0.6322614669799804
0.5363033294677734,0.6335832595825195
0.5363033294677734,0.6335832595825195
0.5272527694702148,0.6273662567138671
0.5272527694702148,0.6273662567138671
0.5306339263916016,0.6237888336181641
0.5306339263916016,0.6237888336181641
0.5292852401733398,0.6268884658813476
0.5292852401733398,0.6268884658813476
0.5264053344726562,0.6190670013427734
0.5264053344726562,0.6190670013427734
0.5309194564819336,0.6243610382080078
0.5309194564819336,0.6243610382080078
0.5241863250732421,0.6218381881713867
0.5241863250732421,0.6218381881713867
0.5288022994995117,0.6203556060791016
0.5288022994995117,0.6203556060791016
0.5295055389404296,0.6254425048828125
0.5295055389404296,0.6254425048828125
0.5254772186279296,0.6186492919921874
0.5254772186279296,0.6186492919921874
0.5314235687255859,0.6257423400878906
0.5314235687255859,0.6257423400878906
0.5250858306884766,0.6241973876953125
0.5250858306884766,0.6241973876953125
0.5312278747558593,0.6237384796142578
0.5247980117797851,0.6237384796142578
0.5305189132690430,0.6291658401489257
0.5305189132690430,0.6291658401489257
0.5275857925415038,0.6236429214477539
0.5275857925415038,0.6236429214477539
0.5336952209472656,0.6308681488037109
0.5336952209472656,0.6308681488037109
0.5285379409790039,0.6294994354248047
0.5285379409790039,0.6294994354248047
0.5327413558959960,0.6287378311157227
0.5327413558959960,0.6287378311157227
0.5328918457031250,0.6348930358886719
0.5328918457031250,0.6348930358886719
0.5298397064208984,0.6290222167968750
0.5298397064208984,0.6290222167968750
0.5368034362792968,0.6360054016113281
0.5368034362792968,0.6360054016113281
0.5298648834228515,0.6340747833251953
0.5298648834228515,0.6340747833251953
0.5347017288208008,0.6334030151367187
0.5347017288208008,0.6334030151367187
0.5346118927001953,0.6387411117553711
0.5346118927001953,0.6387411117553711
0.5323047637939453,0.6320606231689453
0.5323047637939453,0.6320606231689453
0.5372829437255859,0.6380796432495117
0.5372829437255859,0.6380796432495117
0.5308891296386719,0.6362113952636719
0.5308891296386719,0.6362113952636719
0.5355234146118164,0.6349233627319336
0.5355234146118164,0.6349233627319336
0.5362581253051758,0.6399822235107422
0.5362581253051758,0.6399822235107422
0.5322246551513672,0.6330722808837891
0.5322246551513672,0.6330722808837891
0.5379375457763672,0.6396863937377929
0.5379375457763672,0.6396863937377929
0.5314687728881836,0.6377031326293945
0.5314687728881836,0.6377031326293945
0.5373504638671874,0.6365364074707031
0.5373504638671874,0.6365364074707031
0.5364046096801758,0.6416782379150391
0.5364046096801758,0.6416782379150391
0.5332380294799804,0.6356809616088867
0.5332380294799804,0.6356809616088867
0.5391397476196289,0.6422842025756835
0.5391397476196289,0.6422842025756835
0.5335384368896484,0.6400709152221680
0.5335384368896484,0.6400709152221680
0.5373979568481445,0.6383640289306640
0.5373979568481445,0.6383640289306640
0.5370912551879883,0.6436717987060546
0.5370912551879883,0.6436717987060546
0.5335910797119140,0.6366949081420898
0.5335910797119140,0.6366949081420898
0.5403121948242188,0.6430601119995117
0.5403121948242188,0.6430601119995117
0.5328123092651367,0.6402585983276367
0.5328123092651367,0.6402585983276367
0.5374282836914063,0.6384544372558594
0.5374282836914063,0.6384544372558594
0.5365768432617187,0.6424043655395507
0.5365768432617187,0.6424043655395507
0.5335218429565429,0.6342275619506835
0.5335218429565429,0.6342275619506835
0.5380285263061523,0.6394403457641601
0.5380285263061523,0.6394403457641601
0.5305950164794921,0.6354606628417968
0.5305950164794921,0.6354606628417968
0.5340213775634766,0.6310655593872070
0.5340213775634766,0.6310655593872070
0.5328718185424804,0.6329423904418945
0.5328718185424804,0.6329423904418945
0.5272899627685547,0.6230220794677734
0.5272899627685547,0.6230220794677734
0.5318658828735351,0.6273771286010742
0.5318658828735351,0.6273771286010742
0.5244380950927734,0.6231399536132812
0.5244380950927734,0.6231399536132812
0.5292800903320313,0.6202646255493164
0.5292800903320313,0.6202646255493164
0.5276063919067383,0.6239587783813476
0.5276063919067383,0.6239587783813476
0.5238882064819336,0.6168645858764649
0.5238882064819336,0.6168645858764649
0.5293825149536132,0.6228183746337891
0.5293825149536132,0.6228183746337891
0.5238155364990235,0.6204700469970703
0.5238155364990235,0.6204700469970703
0.5276332855224609,0.6186395645141601
0.5276332855224609,0.6186395645141601
0.5274902343750000,0.6240537643432617
0.5274902343750000,0.6240537643432617
0.5254634857177735,0.6175575256347656
0.5254634857177735,0.6244125366210938
0.5310390472412109,0.6241950988769531
0.5261741638183594,0.6241950988769531
0.5240226745605469,0.6223400115966796
0.5312622070312499,0.6223400115966796
0.5289007186889648,0.6218828201293946
0.5289007186889648,0.6218828201293946
0.5292457580566406,0.6281696319580078
0.5292457580566406,0.6281696319580078
0.5271520614624023,0.6224664688110352
0.5271520614624023,0.6224664688110352
0.5326904296875000,0.6296321868896484
0.5326904296875000,0.6296321868896484
0.5270135879516601,0.6292510986328125
0.5270135879516601,0.6292510986328125
0.5320289611816406,0.6287693023681641
0.5320289611816406,0.6287693023681641
0.5333524703979492,0.6353662490844726
0.5333524703979492,0.6353662490844726
0.5297109603881835,0.6295183181762695
0.5297109603881835,0.6295183181762695
0.5357917785644531,0.6367692947387695
0.5357917785644531,0.6367692947387695
0.5299375534057617,0.6354017257690430
0.5299375534057617,0.6354017257690430
0.5354976654052734,0.6341669082641601
0.5354976654052734,0.6341669082641601
0.5346221923828125,0.6391382217407227
0.5346221923828125,0.6391382217407227
0.5313554763793945,0.6327953338623047
0.5313554763793945,0.6327953338623047
0.5368846893310547,0.6386953353881836
0.5368846893310547,0.6386953353881836
0.5313858032226563,0.6366336822509765
0.5375473022460937,0.6366336822509765
0.5349266052246093,0.6346384048461914
0.5349266052246093,0.6346384048461914
0.5348384857177734,0.6400445938110352
0.5348384857177734,0.6400445938110352
0.5314441680908203,0.6333692550659179
0.5314441680908203,0.6333692550659179
0.5380050659179687,0.6394031524658202
0.5380050659179687,0.6394031524658202
0.5310396194458008,0.6370313644409179
0.5310396194458008,0.6370313644409179
0.5354335784912109,0.6358314514160156
0.5354335784912109,0.6358314514160156
0.5352682113647461,0.6410614013671875
0.5352682113647461,0.6410614013671875
0.5330160140991210,0.6346612930297851
0.5330160140991210,0.6346612930297851
0.5379409790039062,0.6407649993896484
0.5379409790039062,0.6407649993896484
0.5318183898925781,0.6390913009643554
0.5318183898925781,0.6390913009643554
0.5363611221313477,0.6375474929809570
0.5363611221313477,0.6375474929809570
0.5371553421020507,0.6426675796508788
0.5371553421020507,0.6426675796508788
0.5330068588256835,0.6355144500732421
0.5330068588256835,0.6355144500732421
0.5388628005981445,0.6420701980590821
0.5388628005981445,0.6420701980590821
0.5324707031250000,0.6397819519042969
0.5324707031250000,0.6397819519042969
0.5376520156860352,0.6375160217285156
0.5309360504150390,0.6375160217285156
0.5362432479858398,0.6411706924438476
0.5362432479858398,0.6411706924438476
0.5317325592041016,0.6321630477905273
0.5317325592041016,0.6321630477905273
0.5357139587402343,0.6347030639648438
0.5357139587402343,0.6347030639648438
0.5283588409423828,0.6289289474487304
0.5283588409423828,0.6289289474487304
0.5300457000732421,0.6234226226806641
0.5300457000732421,0.6234226226806641
0.5284086227416992,0.6257217407226562
0.5284086227416992,0.6257217407226562
0.5236261367797851,0.6166013717651367
0.5236261367797851,0.6166013717651367
0.5291799545288086,0.6208625793457031
0.5291799545288086,0.6208625793457031
0.5213842391967773,0.6169492721557617
0.5213842391967773,0.6169492721557617
0.5251035690307617,0.6144773483276367
0.5251035690307617,0.6144773483276367
0.5245754241943359,0.6192443847656249
0.5245754241943359,0.6192443847656249
0.5220354080200195,0.6123584747314453
0.5220354080200195,0.6123584747314453
0.5267349243164062,0.6182630538940429
0.5267349243164062,0.6182630538940429
0.5205436706542969,0.6166952133178710
0.5205436706542969,0.6166952133178710
0.5248249053955077,0.6152875900268554
0.5248249053955077,0.6152875900268554
0.5260597229003906,0.6213449478149414
0.5260597229003906,0.6213449478149414
0.5220737457275391,0.6147897720336913
0.5220737457275391,0.6147897720336913
0.5281419754028320,0.6218530654907226
0.5281419754028320,0.6218530654907226
0.5222877502441406,0.6206886291503906
0.5222877502441406,0.6206886291503906
0.5279090881347656,0.6198995590209960
0.5279090881347656,0.6198995590209960
0.5277008056640625,0.6260370254516602
0.5277008056640625,0.6260370254516602
0.5249473571777343,0.6205146789550781
0.5257061004638671,0.6205146789550781
0.5309263229370117,0.6275093078613281
0.5309263229370117,0.6275093078613281
0.5261106491088867,0.6264387130737304
0.5261106491088867,0.6264387130737304
0.5298574447631835,0.6249607086181640
0.5298574447631835,0.6249607086181640
0.5302373886108398,0.6311822891235351
0.5302373886108398,0.6311822891235351
0.5269918441772461,0.6247306823730469
0.5269918441772461,0.6247306823730469
0.5336431503295899,0.6311685562133789
0.5336431503295899,0.6311685562133789
0.5267663955688476,0.6290954589843750
0.5267663955688476,0.6290954589843750
0.5310962677001952,0.6276763916015625
0.5310962677001952,0.6276763916015625
0.5311597824096680,0.6330591201782226
0.5311597824096680,0.6330591201782226
0.5287342071533203,0.6262687683105469
0.5287342071533203,0.6262687683105469
0.5335624694824218,0.6319604873657226
0.5335624694824218,0.6319604873657226
0.5271932601928710,0.6299503326416015
0.5271932601928710,0.6299503326416015
0.5314590454101562,0.6277547836303711
0.5314590454101562,0.6277547836303711
0.5320741653442382,0.6327466964721680
0.5320741653442382,0.6327466964721680
0.5277214050292969,0.6248302459716797
0.5277214050292969,0.6248302459716797
0.5330886840820312,0.6305391311645507
0.5330886840820312,0.6305391311645507
0.5263870239257812,0.6276741027832031
0.5263870239257812,0.6276741027832031
0.5311964035034179,0.6248725891113281
0.5311964035034179,0.6248725891113281
0.5300817489624023,0.6295709609985352
0.5300817489624023,0.6295709609985352
0.5268127441406250,0.6231513977050781
0.5268127441406250,0.6231513977050781
0.5328735351562500,0.6303857803344727
0.5328735351562500,0.6303857803344727
0.5277534484863281,0.6289913177490234
0.5277534484863281,0.6289913177490234
0.5316364288330078,0.6279979705810547
0.5316364288330078,0.6279979705810547
0.5321411132812500,0.6352512359619140
0.5321411132812500,0.6352512359619140
0.5298362731933594,0.6306283950805663
0.5298362731933594,0.6306283950805663
0.5371971130371094,0.6388732910156250
0.5371971130371094,0.6388732910156250
0.5310939788818360,0.6382999420166016
0.5310939788818360,0.6382999420166016
0.5356801986694336,0.6370822906494140
0.5356801986694336,0.6370822906494140
0.5351749420166015,0.6408508300781249
0.5351749420166015,0.6408508300781249
0.5312805175781250,0.6306192398071289
0.5312805175781250,0.6306192398071289
0.5338479995727539,0.6319507598876953
0.5338479995727539,0.6319507598876953
0.5256191253662109,0.6261657714843750
0.5256191253662109,0.6261657714843750
0.5278169631958007,0.6206050872802734
0.5278169631958007,0.6206050872802734
0.5274444580078125,0.6228864669799804
0.5274444580078125,0.6228864669799804
0.5219718933105468,0.6135995864868163
0.5219718933105468,0.6135995864868163
0.5267772674560547,0.6183689117431640
0.5267772674560547,0.6183689117431640
0.5202060699462890,0.6158901214599609
0.5202060699462890,0.6158901214599609
0.5247871398925781,0.6136104583740234
0.5247871398925781,0.6136104583740234
0.5242200851440429,0.6187419891357422
0.5242200851440429,0.6187419891357422
0.5209459304809571,0.6124980926513671
0.5209459304809571,0.6124980926513671
0.5265260696411133,0.6187894821166992
0.5265260696411133,0.6187894821166992
0.5216714859008789,0.6173658370971680
0.5216714859008789,0.6173658370971680
0.5250188827514648,0.6156177520751953
0.5250188827514648,0.6156177520751953
0.5254343032836913,0.6217145919799805
0.5254343032836913,0.6217145919799805
0.5223890304565429,0.6155427932739258
0.5223890304565429,0.6155427932739258
0.5289356231689453,0.6221111297607421
0.5289356231689453,0.6221111297607421
0.5224067687988281,0.6206422805786133
0.5224067687988281,0.6206422805786133
0.5268493652343750,0.6197593688964843
0.5268493652343750,0.6197593688964843
0.5274089813232422,0.6259386062622070
0.5274089813232422,0.6259386062622070
0.5251476287841796,0.6197988510131835
0.5251476287841796,0.6197988510131835
0.5301321029663085,0.6261651992797851
0.5301321029663085,0.6261651992797851
0.5243288040161133,0.6251729965209961
0.5243288040161133,0.6251729965209961
0.5285230636596679,0.6237962722778320
0.5285230636596679,0.6237962722778320
0.5298374176025390,0.6298095703125000
0.5298374176025390,0.6298095703125000
0.5259784698486328,0.6230415344238281
0.5259784698486328,0.6230415344238281
0.5314361572265625,0.6295309066772461
0.5314361572265625,0.6295309066772461
0.5255275726318359,0.6279464721679687
0.5255275726318359,0.6279464721679687
0.5305435180664062,0.6259923934936523
0.5305435180664062,0.6259923934936523
0.5299816131591797,0.6310346603393554
0.5299816131591797,0.6310346603393554
0.5264911651611328,0.6243083953857421
0.5264911651611328,0.6243083953857421
0.5318721771240235,0.6301940917968750
0.5318721771240235,0.6301940917968750
0.5266954421997070,0.6279561996459960
0.5266954421997070,0.6279561996459960
0.5297092437744141,0.6252210617065429
0.5297092437744141,0.6252210617065429
0.5299369812011718,0.6307376861572266
0.5299369812011718,0.6307376861572266
0.5265340805053711,0.6237573623657227
0.5265340805053711,0.6237573623657227
0.5328861236572265,0.6297391891479492
0.5328861236572265,0.6297391891479492
0.5258188247680664,0.6274652481079102
0.5258188247680664,0.6274652481079102
0.5300548553466796,0.6258522033691406
0.5300548553466796,0.6258522033691406
0.5303329467773438,0.6319072723388671
0.5303329467773438,0.6319072723388671
0.5281694412231445,0.6258487701416016
0.5281694412231445,0.6258487701416016
0.5331693649291992,0.6323667526245117
0.5331693649291992,0.6323667526245117
0.5276664733886719,0.6320251464843750
0.5276664733886719,0.6320251464843750
0.5320261001586913,0.6310049057006836
0.5320261001586913,0.6310049057006836
0.5338680267333984,0.6378593444824219
0.5338680267333984,0.6378593444824219
0.5299764633178711,0.6318712234497070
0.5299764633178711,0.6318712234497070
0.5359193801879882,0.6388040542602539
0.5359193801879882,0.6388040542602539
0.5302740097045898,0.6378250122070312
0.5302740097045898,0.6378250122070312
0.5353683471679688,0.6359945297241211
0.5353683471679688,0.6359945297241211
0.5343091964721679,0.6396148681640624
0.5343091964721679,0.6396148681640624
0.5295684814453124,0.6298553466796875
0.5295684814453124,0.6298553466796875
0.5327138900756836,0.6315204620361328
0.5274238586425781,0.6315204620361328
0.5258205413818359,0.6257354736328125
0.5258205413818359,0.6257354736328125
0.5270885467529297,0.6198057174682617
0.5270885467529297,0.6198057174682617
0.5258359909057617,0.6227891921997070
0.5258359909057617,0.6227891921997070
0.5212377548217774,0.6134370803833008
0.5212377548217774,0.6134370803833008
0.5266239166259765,0.6176336288452148
0.5266239166259765,0.6176336288452148
0.5191503524780273,0.6145374298095703
0.5191503524780273,0.6145374298095703
0.5228376388549805,0.6117919921875000
0.5228376388549805,0.6117919921875000
0.5227397918701172,0.6169767379760742
0.5227397918701172,0.6169767379760742
0.5202884674072266,0.6102087020874023
0.5202884674072266,0.6102087020874023
0.5250440597534179,0.6162769317626953
0.5250440597534179,0.6162769317626953
0.5192905426025390,0.6152910232543946
0.5192905426025390,0.6152910232543946
0.5233394622802734,0.6136510848999023
0.5233394622802734,0.6136510848999023
0.5248683929443360,0.6197027206420899
0.5248683929443360,0.6197027206420899
0.5221830368041992,0.6204751968383789
0.5221830368041992,0.6204751968383789
0.5221830368041992,0.6199647903442382
0.5215919494628906,0.6160852432250976
0.5186056137084961,0.6160852432250976
0.5272630691528321,0.6234844207763671
0.5272630691528321,0.6234844207763671
0.5215341567993164,0.6191774368286133
0.5215341567993164,0.6191774368286133
0.5279577255249023,0.6225059509277343
0.5279577255249023,0.6225059509277343
0.5235740661621093,0.6262361526489257
0.5235740661621093,0.6262361526489257
0.5258554458618164,0.6227136611938476
0.5258554458618164,0.6227136611938476
0.5302608489990234,0.6294284820556640
0.5288286209106445,0.6294284820556640
0.5242790222167969,0.6245876312255859
0.5242790222167969,0.6245876312255859
0.5292303085327148,0.6272609710693359
0.5292303085327148,0.6272609710693359
0.5270267486572265,0.6294942855834961
0.5270267486572265,0.6294942855834961
0.5274564743041992,0.6243404388427735
0.5274564743041992,0.6243404388427735
0.5307552337646484,0.6292367935180664
0.5307552337646484,0.6292367935180664
0.5225372314453125,0.6225173950195312
0.5225372314453125,0.6225173950195312
0.5298305511474609,0.6252811431884765
0.5298305511474609,0.6252811431884765
0.5265266418457031,0.6280391693115234
0.5265266418457031,0.6280391693115234
0.5268613815307617,0.6234140396118164
0.5268613815307617,0.6234140396118164
0.5292634963989258,0.6297426223754883
0.5292634963989258,0.6297426223754883
0.5244718551635742,0.6246740341186523
0.5244718551635742,0.6246740341186523
0.5312610626220703,0.6287109375000000
0.5312610626220703,0.6287109375000000
0.5281545639038085,0.6325281143188476
0.5281545639038085,0.6325281143188476
0.5279439926147461,0.6292419433593750
0.5279439926147461,0.6292419433593750
0.5337209701538086,0.6365444183349609
0.5337209701538086,0.6365444183349609
0.5279943466186523,0.6317865371704101
0.5279943466186523,0.6317865371704101
0.5343852996826172,0.6353067398071289
0.5343852996826172,0.6353067398071289
0.5298511505126953,0.6386970520019531
0.5298511505126953,0.6386970520019531
0.5318733215332031,0.6346532821655273
0.5318733215332031,0.6346532821655273
0.5360338211059570,0.6412347793579102
0.5360338211059570,0.6412347793579102
0.5300640106201172,0.6361232757568359
0.5300640106201172,0.6361232757568359
0.5345838546752929,0.6389734268188476
0.5345838546752929,0.6389734268188476
0.5328964233398438,0.6418098449707031
0.5328964233398438,0.6418098449707031
0.5335258483886719,0.6377437591552734
0.5335258483886719,0.6377437591552734
0.5374094009399414,0.6446542739868164
0.5374094009399414,0.6446542739868164
0.5300067901611328,0.6397727966308594
0.5300067901611328,0.6397727966308594
0.5375061035156250,0.6420982360839843
0.5375061035156250,0.6420982360839843
0.5338766098022460,0.6435676574707031
0.5338766098022460,0.6435676574707031
0.5327819824218750,0.6355230331420898
0.5327819824218750,0.6355230331420898
0.5331310272216797,0.6372064590454102
0.5331310272216797,0.6372064590454102
0.5260997772216797,0.6269977569580077
0.5260997772216797,0.6269977569580077
0.5302522659301757,0.6251197814941406
0.5302522659301757,0.6251197814941406
0.5246515274047852,0.6241842269897461
0.5246515274047852,0.6241842269897461
0.5221384048461913,0.6166917800903320
0.5221384048461913,0.6166917800903320
0.5263320922851562,0.6209569931030273
0.5263320922851562,0.6209569931030273
0.5193889617919921,0.6143148422241210
0.5193889617919921,0.6143148422241210
0.5249141693115235,0.6158958435058594
0.5249141693115235,0.6158958435058594
0.5199411392211913,0.6183986663818359
0.5199411392211913,0.6183986663818359
0.5214271545410156,0.6136745452880860
0.5214271545410156,0.6136745452880860
0.5254692077636719,0.6200254440307617
0.5254692077636719,0.6200254440307617
0.5192029953002929,0.6153018951416015
0.5192029953002929,0.6153018951416015
0.5242040634155273,0.6182298660278320
0.5242040634155273,0.6182298660278320
0.5225887298583984,0.6217987060546875
0.5225887298583984,0.6217987060546875
0.5231935501098632,0.6179265975952148
0.5231935501098632,0.6179265975952148
0.5275142669677734,0.6251123428344726
0.5275142669677734,0.6251123428344726
0.5204870223999023,0.6209913253784179
0.5204870223999023,0.6209913253784179
0.5284927368164062,0.6243587493896484
0.5284927368164062,0.6243587493896484
0.5259326934814453,0.6278743743896484
0.5259326934814453,0.6278743743896484
0.5263051986694336,0.6238706588745117
0.5263051986694336,0.6238706588745117
0.5294145584106446,0.6313339233398437
0.5294145584106446,0.6313339233398437
0.5249628067016602,0.6267139434814453
0.5249628067016602,0.6267139434814453
0.5314704895019531,0.6297048568725586
0.5314704895019531,0.6297048568725586
0.5281997680664062,0.6327369689941406
0.5281997680664062,0.6327369689941406
0.5272739410400390,0.6284437179565430
0.5272739410400390,0.6284437179565430
0.5329896926879882,0.6352907180786133
0.5329896926879882,0.6352907180786133
0.5270473480224609,0.6304040908813476
0.5270473480224609,0.6304040908813476
0.5330955505371093,0.6328136444091796
0.5330955505371093,0.6328136444091796
0.5283828735351562,0.6356666564941406
0.5283828735351562,0.6356666564941406
0.5298997879028320,0.6309333801269531
0.5298997879028320,0.6309333801269531
0.5340494155883789,0.6372917175292968
0.5340494155883789,0.6372917175292968
0.5274387359619140,0.6315748214721679
0.5274387359619140,0.6315748214721679
0.5321136474609375,0.6337915420532226
0.5321136474609375,0.6337915420532226
0.5300628662109375,0.6361970901489258
0.5300628662109375,0.6361970901489258
0.5300548553466796,0.6306312561035156
0.5300548553466796,0.6306312561035156
0.5336345672607422,0.6366857528686524
0.5336345672607422,0.6366857528686524
0.5256248474121094,0.6312475204467773
0.5256248474121094,0.6312475204467773
0.5331687927246094,0.6335083007812500
0.5331687927246094,0.6335083007812500
0.5300376892089843,0.6365186691284179
0.5300376892089843,0.6365186691284179
0.5300153732299805,0.6318529129028320
0.5300153732299805,0.6318529129028320
0.5329187393188476,0.6387834548950195
0.5329187393188476,0.6387834548950195
0.5281877517700195,0.6341062545776367
0.5281877517700195,0.6341062545776367
0.5348098754882812,0.6368030548095703
0.5348098754882812,0.6368030548095703
0.5316478729248046,0.6403524398803710
0.5316478729248046,0.6403524398803710
0.5305761337280274,0.6357931137084961
0.5305761337280274,0.6357931137084961
0.5365041732788086,0.6427791595458984
0.5365041732788086,0.6427791595458984
0.5303844451904297,0.6378999710083008
0.5303844451904297,0.6378999710083008
0.5365734100341797,0.6400720596313476
0.5365734100341797,0.6400720596313476
0.5316793441772460,0.6421342849731445
0.5316793441772460,0.6421342849731445
0.5322618484497070,0.6346189498901367
0.5322618484497070,0.6346189498901367
0.5349220275878906,0.6370851516723632
0.5349220275878906,0.6370851516723632
0.5259309768676758,0.6273376464843750
0.5259309768676758,0.6273376464843750
0.5285974502563476,0.6253400802612304
0.5285974502563476,0.6253400802612304
0.5250514984130860,0.6247541427612304
0.5250514984130860,0.6247541427612304
0.5235752105712891,0.6167655944824219
0.5235752105712891,0.6167655944824219
0.5265340805053711,0.6207424163818359
0.5265340805053711,0.6207424163818359
0.5177982330322265,0.6139062881469727
0.5177982330322265,0.6139062881469727
0.5247608184814453,0.6151760101318359
0.5247608184814453,0.6151760101318359
0.5215993881225586,0.6176284790039063
0.5215993881225586,0.6176284790039063
0.5212217330932617,0.6122875213623047
0.5212217330932617,0.6122875213623047
0.5239082336425781,0.6186235427856445
0.5239082336425781,0.6186235427856445
0.5188934326171875,0.6132963180541992
0.5188934326171875,0.6132963180541992
0.5253873825073242,0.6161699295043945
0.5253873825073242,0.6161699295043945
0.5223604202270508,0.6198394775390624
0.5223604202270508,0.6198394775390624
0.5214895248413086,0.6157756805419922
0.5214895248413086,0.6157756805419922
0.5272768020629882,0.6229385375976563
0.5272768020629882,0.6229385375976563
0.5215599060058593,0.6184610366821289
0.5276733398437500,0.6184610366821289
0.5279760360717773,0.6220424652099609
0.5279760360717773,0.6220424652099609
0.5239162445068359,0.6265325546264648
0.5239162445068359,0.6265325546264648
0.5260717391967773,0.6226856231689453
0.5260717391967773,0.6226856231689453
0.5308141708374023,0.6301357269287109
0.5308141708374023,0.6301357269287109
0.5246509552001953,0.6256502151489257
0.5246509552001953,0.6256502151489257
0.5297035217285156,0.6286479949951171
0.5297035217285156,0.6286479949951171
0.5282135009765625,0.6321693420410156
0.5341615676879883,0.6321693420410156
0.5284893035888671,0.6271894454956054
0.5284893035888671,0.6271894454956054
0.5323242187500000,0.6330780029296875
0.5323242187500000,0.6330780029296875
0.5241319656372070,0.6272764205932617
0.5241319656372070,0.6272764205932617
0.5314018249511718,0.6287841796875000
0.5314018249511718,0.6287841796875000
0.5281579971313476,0.6314546585083007
0.5281579971313476,0.6314546585083007
0.5277557373046875,0.6258756637573242
0.5277557373046875,0.6258756637573242
0.5304113388061523,0.6321521759033203
0.5304113388061523,0.6321521759033203
0.5253244400024414,0.6269594192504883
0.5253244400024414,0.6269594192504883
0.5316627502441406,0.6293340682983398
0.5316627502441406,0.6293340682983398
0.5285533905029297,0.6329544067382812
0.5285533905029297,0.6329544067382812
0.5272430419921875,0.6284345626831055
0.5272430419921875,0.6284345626831055
0.5330646514892577,0.6354480743408203
0.5330646514892577,0.6354480743408203
0.5269992828369140,0.6311347961425781
0.5269992828369140,0.6311347961425781
0.5334692001342773,0.6339643478393554
0.5334692001342773,0.6339643478393554
0.5292606353759766,0.6379268646240234
0.5292606353759766,0.6379268646240234
0.5310344696044922,0.6334939956665039
0.5310344696044922,0.6334939956665039
0.5357162475585937,0.6407169342041016
0.5357162475585937,0.6407169342041016
0.5292612075805664,0.6362279891967774
0.5292612075805664,0.6362279891967774
0.5341999053955078,0.6389019012451171
0.5341999053955078,0.6389019012451171
0.5327751159667968,0.6425886154174805
0.5327751159667968,0.6425886154174805
0.5329668045043945,0.6381311416625977
0.5329668045043945,0.6381311416625977
0.5373453140258789,0.6451641082763672
0.5373453140258789,0.6451641082763672
0.5298076629638672,0.6409996032714843
0.5298076629638672,0.6409996032714843
0.5377721786499023,0.6438858032226562
0.5377721786499023,0.6438858032226562
0.5351886749267578,0.6471651077270507
0.5351886749267578,0.6471651077270507
0.5345867156982421,0.6410287857055664
0.5345867156982421,0.6410287857055664
0.5361808776855469,0.6442451477050781
0.5361808776855469,0.6442451477050781
0.5288022994995117,0.6338951110839843
0.5288022994995117,0.6338951110839843
0.5322212219238281,0.6304143905639649
0.5322212219238281,0.6304143905639649
0.5265323638916015,0.6280895233154297
0.5265323638916015,0.6280895233154297
0.5229440689086914,0.6187299728393555
0.5229440689086914,0.6187299728393555
0.5268573760986328,0.6220184326171875
0.5268573760986328,0.6220184326171875
0.5196762084960938,0.6146999359130859
0.5196762084960938,0.6146999359130859
0.5250028610229492,0.6155296325683594
0.5250028610229492,0.6155296325683594
0.5199668884277343,0.6176193237304687
0.5199668884277343,0.6176193237304687
0.5210317611694336,0.6118898391723633
0.5210317611694336,0.6118898391723633
0.5251264572143555,0.6182659149169921
0.5251264572143555,0.6182659149169921
0.5186079025268554,0.6130874633789062
0.5186079025268554,0.6130874633789062
0.5236318588256835,0.6154432296752930
0.5236318588256835,0.6154432296752930
0.5270725250244140,0.6187065124511718
0.5270725250244140,0.6187065124511718
0.5205419540405273,0.6179494857788086
0.5205419540405273,0.6179494857788086
0.5244478225708008,0.6162534713745117
0.5244478225708008,0.6162534713745117
0.5258090972900390,0.6233636856079101
0.5258090972900390,0.6233636856079101
0.5234447479248047,0.6173023223876953
0.5234447479248047,0.6173023223876953
0.5286598205566406,0.6240165710449218
0.5286598205566406,0.6240165710449218
0.5231718063354492,0.6242517471313477
0.5231718063354492,0.6242517471313477
0.5272052764892577,0.6226009368896485
0.5272052764892577,0.6226009368896485
0.5294488906860352,0.6299983978271484
0.5294488906860352,0.6299983978271484
0.5256694793701172,0.6235828399658203
0.5274702072143554,0.6235828399658203
0.5316141128540038,0.6308086395263671
0.5316141128540038,0.6308086395263671
0.5259881973266601,0.6308441162109375
0.5259881973266601,0.6308441162109375
0.5309429168701172,0.6289049148559570
0.5309429168701172,0.6289049148559570
0.5315185546875000,0.6354389190673828
0.5331893920898437,0.6354389190673828
0.5280509948730469,0.6287984848022461
0.5280509948730469,0.6287984848022461
0.5336820602416992,0.6347740173339843
0.5336820602416992,0.6347740173339843
0.5286071777343749,0.6339134216308594
0.5286071777343749,0.6339134216308594
0.5313394546508788,0.6305631637573242
0.5313394546508788,0.6305631637573242
0.5323591232299805,0.6367418289184570
0.5323591232299805,0.6367418289184570
0.5285242080688476,0.6292528152465821
0.5285242080688476,0.6292528152465821
0.5347537994384766,0.6348798751831054
0.5347537994384766,0.6348798751831054
0.5279806137084960,0.6334997177124023
0.5279806137084960,0.6334997177124023
0.5314464569091797,0.6307199478149413
0.5314464569091797,0.6307199478149413
0.5325725555419921,0.6370639801025391
0.5325725555419921,0.6370639801025391
0.5297389984130859,0.6301883697509766
0.5297389984130859,0.6301883697509766
0.5348110198974609,0.6364288330078125
0.5348110198974609,0.6364288330078125
0.5290798187255860,0.6363046646118163
0.5290798187255860,0.6363046646118163
0.5329856872558594,0.6343357086181640
0.5329856872558594,0.6343357086181640
0.5352521896362304,0.6413234710693360
0.5363971710205078,0.6413234710693360
0.5312524795532226,0.6346801757812500
0.5312524795532226,0.6346801757812500
0.5371885299682617,0.6417909622192383
0.5371885299682617,0.6417909622192383
0.5315036773681641,0.6416152954101563
0.5315036773681641,0.6416152954101563
0.5363811492919922,0.6394317626953124
0.5363811492919922,0.6394317626953124
0.5366220474243164,0.6455675125122070
0.5366220474243164,0.6455675125122070
0.5332695007324219,0.6387914657592774
0.5332695007324219,0.6387914657592774
0.5389377593994140,0.6454868316650391
0.5389377593994140,0.6454868316650391
0.5340934753417969,0.6451572418212891
0.5340934753417969,0.6451572418212891
0.5368572235107422,0.6413566589355468
0.5368572235107422,0.6413566589355468
0.5368869781494140,0.6450542449951172
0.5368869781494140,0.6450542449951172
0.5313177108764648,0.6336376190185546
0.5313177108764648,0.6336376190185546
0.5351097106933593,0.6343957901000976
0.5351097106933593,0.6343957901000976
0.5259447097778320,0.6283006668090820
0.5259447097778320,0.6283006668090820
0.5273277282714843,0.6213661193847656
0.5273277282714843,0.6213661193847656
0.5265312194824219,0.6238185882568359
0.5265312194824219,0.6238185882568359
0.5224565505981446,0.6142690658569335
0.5224565505981446,0.6142690658569335
0.5263040542602538,0.6183048248291015
0.5263040542602538,0.6183048248291015
0.5198478698730469,0.6166557312011719
0.5198478698730469,0.6166557312011719
0.5231420516967773,0.6134759902954101
0.5231420516967773,0.6134759902954101
0.5248844146728515,0.6190532684326172
0.5248844146728515,0.6190532684326172
0.5205368041992188,0.6116729736328125
0.5205368041992188,0.6116729736328125
0.5259538650512695,0.6180107116699218
0.5259538650512695,0.6180107116699218
0.5202575683593750,0.6176719665527344
0.5202575683593750,0.6176719665527344
0.5249027252197266,0.6156646728515625
0.5249027252197266,0.6156646728515625
0.5256923675537110,0.6224945068359374
0.5256923675537110,0.6224945068359374
0.5226453781127930,0.6168388366699219
0.5226453781127930,0.6168388366699219
0.5286306381225586,0.6242145538330078
0.5286306381225586,0.6242145538330078
0.5242063522338867,0.6249853134155273
0.5242063522338867,0.6249853134155273
0.5278272628784180,0.6234472274780273
0.5278272628784180,0.6234472274780273
0.5296165466308593,0.6314186096191406
0.5296165466308593,0.6314186096191406
0.5267045974731445,0.6261051177978515
0.5267045974731445,0.6261051177978515
0.5337232589721680,0.6334447860717773
0.5284212112426757,0.6334447860717773
0.5276332855224609,0.6338396072387695
0.5276332855224609,0.6338396072387695
0.5317199707031249,0.6322202682495117
0.5331384658813476,0.6391244888305664
0.5306848526000977,0.6327272415161133
0.5306848526000977,0.6327272415161133
0.5355554580688476,0.6387582778930664
0.5355554580688476,0.6387582778930664
0.5299415588378906,0.6386444091796875
0.5299415588378906,0.6386444091796875
0.5332975387573242,0.6358589172363281
0.5332975387573242,0.6358589172363281
0.5353380203247070,0.6420455932617187
0.5353380203247070,0.6420455932617187
0.5309864044189453,0.6350589752197265
0.5309864044189453,0.6350589752197265
0.5364938735961914,0.6410848617553710
0.5364938735961914,0.6410848617553710
0.5306459426879883,0.6403959274291992
0.5306459426879883,0.6403959274291992
0.5348814010620117,0.6377483367919922
0.5348814010620117,0.6377483367919922
0.5353265762329101,0.6434955596923828
0.5369121551513671,0.6434955596923828
0.5318733215332031,0.6367258071899414
0.5318733215332031,0.6367258071899414
0.5372303009033202,0.6426481246948242
0.5372303009033202,0.6426481246948242
0.5321416854858398,0.6420015335083008
0.5321416854858398,0.6420015335083008
0.5350862503051758,0.6389848709106445
0.5293390274047851,0.6389848709106445
0.5362724304199219,0.6452814102172851
0.5377069473266601,0.6452814102172851
0.5327556610107421,0.6386672973632812
0.5327556610107421,0.6386672973632812
0.5394315719604492,0.6453563690185546
0.5394315719604492,0.6453563690185546
0.5331476211547851,0.6452825546264648
0.5331476211547851,0.6452825546264648
0.5369276046752930,0.6431190490722656
0.5369276046752930,0.6431190490722656
0.5383798599243164,0.6500564575195312
0.5383798599243164,0.6500564575195312
0.5358427047729492,0.6438686370849609
0.5358427047729492,0.6438686370849609
0.5411928176879882,0.6503585815429688
0.5411928176879882,0.6503585815429688
0.5356258392333985,0.6510103225708007
0.5356258392333985,0.6510103225708007
0.5392879486083985,0.6482791900634766
0.5392879486083985,0.6482791900634766
0.5411653518676758,0.6533071517944335
0.5411653518676758,0.6533071517944335
0.5353551864624023,0.6427305221557617
0.5353551864624023,0.6427305221557617
0.5386276245117188,0.6432369232177734
0.5386276245117188,0.6432369232177734
0.5292612075805664,0.6355733871459961
0.5292612075805664,0.6355733871459961
0.5301258087158203,0.6260885238647461
0.5301258087158203,0.6260885238647461
0.5282609939575195,0.6270498275756836
0.5282609939575195,0.6270498275756836
0.5225652694702149,0.6167438507080077
0.5225652694702149,0.6167438507080077
0.5268373489379883,0.6200145721435547
0.5268373489379883,0.6200145721435547
0.5209167480468749,0.6179340362548827
0.5209167480468749,0.6179340362548827
0.5229578018188477,0.6138833999633789
0.5229578018188477,0.6138833999633789
0.5240461349487304,0.6198263168334961
0.5240461349487304,0.6198263168334961
0.5203182220458984,0.6129798889160156
0.5203182220458984,0.6129798889160156
0.5266542434692383,0.6190961837768555
0.5266542434692383,0.6190961837768555
0.5202970504760742,0.6187179565429687
0.5202970504760742,0.6187179565429687
0.5238870620727539,0.6164600372314453
0.5238870620727539,0.6164600372314453
0.5256237030029297,0.6234569549560547
0.5256237030029297,0.6234569549560547
0.5231597900390624,0.6173446655273437
0.5231597900390624,0.6173446655273437
0.5283897399902343,0.6237201690673828
0.5283897399902343,0.6237201690673828
0.5229274749755859,0.6244354248046875
0.5229274749755859,0.6244354248046875
0.5268516540527344,0.6222507476806640
0.5268516540527344,0.6222507476806640
0.5295049667358398,0.6298084259033203
0.5295049667358398,0.6298084259033203
0.5254680633544921,0.6235931396484374
0.5254680633544921,0.6235931396484374
0.5317348480224610,0.6305843353271484
0.5317348480224610,0.6305843353271484
0.5260711669921875,0.6311920166015624
0.5260711669921875,0.6311920166015624
0.5306825637817383,0.6290748596191406
0.5306825637817383,0.6290748596191406
0.5318670272827148,0.6359458923339844
0.5318670272827148,0.6359458923339844
0.5282466888427734,0.6299972534179688
0.5282466888427734,0.6299972534179688
0.5342994689941406,0.6363544464111328
0.5342994689941406,0.6363544464111328
0.5292766571044921,0.6364534378051757
0.5292766571044921,0.6364534378051757
0.5320604324340820,0.6336021423339844
0.5320604324340820,0.6336021423339844
0.5338457107543945,0.6406059265136719
0.5338457107543945,0.6406059265136719
0.5300714492797851,0.6337841033935546
0.5300714492797851,0.6337841033935546
0.5366460800170898,0.6393447875976562
0.5366460800170898,0.6393447875976562
0.5298780441284180,0.6383285522460938
0.5298780441284180,0.6383285522460938
0.5333518981933594,0.6359504699707031
0.5333518981933594,0.6359504699707031
0.5350719451904297,0.6428712844848633
0.5350719451904297,0.6428712844848633
0.5323797225952148,0.6361787796020507
0.5323797225952148,0.6361787796020507
0.5373281478881836,0.6417892456054687
0.5373281478881836,0.6417892456054687
0.5315935134887695,0.6418939590454101
0.5315935134887695,0.6418939590454101
0.5352315902709961,0.6396120071411132
0.5352315902709961,0.6396120071411132
0.5378740310668945,0.6468332290649413
0.5378740310668945,0.6468332290649413
0.5337472915649414,0.6405052185058594
0.5359434127807617,0.6405052185058594
0.5396387100219726,0.6470420837402343
0.5396387100219726,0.6470420837402343
0.5338932037353515,0.6470712661743164
0.5338932037353515,0.6470712661743164
0.5383449554443359,0.6444231033325195
0.5383449554443359,0.6444231033325195
0.5390722274780273,0.6506086349487304
0.5404449462890625,0.6506086349487304
0.5354026794433594,0.6442245483398438
0.5354026794433594,0.6442245483398438
0.5410394668579102,0.6497509002685546
0.5410394668579102,0.6497509002685546
0.5358432769775391,0.6490682601928711
0.5358432769775391,0.6490682601928711
0.5380067825317383,0.6450897216796875
0.5380067825317383,0.6450897216796875
0.5389995574951172,0.6498018264770508
0.5389995574951172,0.6498018264770508
0.5335721969604492,0.6395067214965821
0.5343984603881836,0.6395067214965821
0.5377275466918945,0.6395690917968749
0.5377275466918945,0.6395690917968749
0.5282936096191406,0.6334367752075195
0.5282936096191406,0.6334367752075195
0.5291759490966796,0.6257434844970703
0.5291759490966796,0.6257434844970703
0.5288354873657226,0.6281936645507812
0.5288354873657226,0.6281936645507812
0.5244174957275390,0.6186149597167968
0.5244174957275390,0.6186149597167968
0.5281276702880859,0.6217500686645507
0.5281276702880859,0.6217500686645507
0.5216148376464843,0.6201187133789062
0.5216148376464843,0.6201187133789062
0.5242115020751953,0.6159278869628906
0.5242115020751953,0.6159278869628906
0.5263212203979492,0.6217575073242188
0.5263212203979492,0.6217575073242188
0.5233840942382812,0.6212448120117188
0.5233840942382812,0.6212448120117188
0.5211278915405273,0.6156898498535156
0.5190891265869141,0.6156898498535156
0.5272356033325195,0.6225608825683594
0.5272356033325195,0.6225608825683594
0.5208383560180664,0.6183454513549804
0.5208383560180664,0.6183454513549804
0.5271257400512696,0.6203636169433594
0.5271257400512696,0.6203636169433594
0.5233297348022461,0.6245206832885742
0.5233297348022461,0.6245206832885742
0.5241119384765625,0.6196123123168945
0.5241119384765625,0.6196123123168945
0.5291347503662109,0.6271522521972656
0.5291347503662109,0.6271522521972656
0.5227197647094727,0.6235038757324218
0.5227197647094727,0.6235038757324218
0.5280979156494140,0.6262790679931640
0.5280979156494140,0.6262790679931640
0.5274799346923827,0.6310289382934570
0.5274799346923827,0.6310289382934570
0.5273546218872071,0.6265748977661133
0.5273546218872071,0.6265748977661133
0.5324129104614258,0.6345989227294921
0.5324129104614258,0.6345989227294921
0.5247694015502929,0.6312103271484375
0.5247694015502929,0.6312103271484375
0.5330904006958007,0.6339586257934570
0.5330904006958007,0.6339586257934570
0.5309417724609374,0.6382553100585937
0.5309417724609374,0.6382553100585937
0.5303998947143554,0.6332262039184570
0.5303998947143554,0.6332262039184570
0.5341032028198242,0.6409469604492187
0.5317657470703124,0.6409469604492187
0.5290369033813477,0.6370136260986328
0.5290369033813477,0.6370136260986328
0.5360023498535156,0.6388910293579101
0.5360023498535156,0.6388910293579101
0.5331401824951172,0.6427820205688476
0.5331401824951172,0.6427820205688476
0.5308851242065430,0.6373764038085937
0.5308851242065430,0.6373764038085937
0.5374380111694336,0.6446405410766601
0.5374380111694336,0.6446405410766601
0.5307226181030273,0.6406820297241210
0.5307226181030273,0.6406820297241210
0.5373052597045899,0.6421789169311524
0.5373052597045899,0.6421789169311524
0.5335035324096680,0.6462661743164062
0.5335035324096680,0.6462661743164062
0.5337352752685547,0.6405246734619140
0.5337352752685547,0.6405246734619140
0.5390819549560547,0.6473230361938477
0.5390819549560547,0.6473230361938477
0.5318836212158203,0.6431058883666992
0.5318836212158203,0.6431058883666992
0.5367816925048828,0.6445198059082031
0.5367816925048828,0.6445198059082031
0.5357963562011718,0.6481470108032227
0.5357963562011718,0.6481470108032227
0.5345226287841797,0.6419963836669922
0.5345226287841797,0.6419963836669922
0.5393383026123046,0.6487358093261718
0.5393383026123046,0.6487358093261718
0.5308794021606446,0.6447572708129883
0.5308794021606446,0.6447572708129883
0.5389051437377930,0.6461631774902343
0.5389051437377930,0.6461631774902343
0.5368263244628906,0.6503362655639648
0.5368263244628906,0.6503362655639648
0.5353952407836914,0.6449066162109375
0.5353952407836914,0.6449066162109375
0.5390739440917969,0.6522045135498047
0.5390739440917969,0.6522045135498047
0.5340396881103515,0.6485549926757812
0.5340396881103515,0.6485549926757812
0.5405347824096679,0.6496736526489257
0.5405347824096679,0.6496736526489257
0.5376234054565430,0.6520523071289063
0.5376234054565430,0.6520523071289063
0.5335189819335937,0.6424839019775390
0.5335189819335937,0.6424839019775390
0.5376188278198242,0.6435041427612305
0.5376188278198242,0.6435041427612305
0.5280275344848633,0.6327381134033203
0.5280275344848633,0.6327381134033203
0.5315568923950195,0.6286325454711914
0.5315568923950195,0.6286325454711914
0.5256088256835937,0.6281204223632812
0.5256088256835937,0.6281204223632812
0.5243522644042968,0.6190435409545898
0.5243522644042968,0.6190435409545898
0.5282501220703125,0.6235530853271484
0.5282501220703125,0.6235530853271484
0.5203714370727539,0.6177835464477539
0.5203714370727539,0.6177835464477539
0.5250698089599609,0.6183700561523438
0.5250698089599609,0.6183700561523438
0.5238401412963867,0.6219463348388672
0.5238401412963867,0.6219463348388672
0.5227518081665039,0.6157367706298827
0.5227518081665039,0.6157367706298827
0.5275732040405273,0.6225831985473632
0.5275732040405273,0.6225831985473632
0.5191160202026367,0.6183752059936524
0.5191160202026367,0.6183752059936524
0.5272808074951172,0.6202136993408203
0.5272808074951172,0.6202136993408203
0.5250171661376953,0.6245006561279297
0.5250171661376953,0.6245006561279297
0.5238950729370117,0.6190807342529296
0.5238950729370117,0.6190807342529296
0.5279880523681640,0.6263151168823242
0.5279880523681640,0.6263151168823242
0.5224376678466797,0.6222284317016601
0.5224376678466797,0.6222284317016601
0.5295438766479492,0.6243381500244141
0.5295438766479492,0.6243381500244141
0.5271600723266602,0.6292957305908203
0.5271600723266602,0.6292957305908203
0.5251293182373047,0.6246007919311524
0.5251293182373047,0.6246007919311524
0.5321599960327148,0.6326642990112304
0.5321599960327148,0.6326642990112304
0.5256780624389649,0.6295314788818359
0.5256780624389649,0.6295314788818359
0.5329708099365235,0.6328777313232422
0.5329708099365235,0.6328777313232422
0.5299283981323242,0.6387279510498046
0.5299283981323242,0.6387279510498046
0.5309062957763672,0.6347013473510742
0.5300720214843749,0.6347013473510742
0.5366804122924804,0.6424243927001952
0.5340494155883789,0.6424243927001952
0.5300542831420898,0.6388704299926757
0.5300542831420898,0.6388704299926757
0.5352996826171875,0.6407678604125976
0.5352996826171875,0.6407678604125976
0.5343858718872070,0.6448883056640625
0.5343858718872070,0.6448883056640625
0.5333581924438476,0.6393545150756835
0.5333581924438476,0.6393545150756835
0.5380920410156250,0.6455131530761719
0.5380920410156250,0.6455131530761719
0.5297143936157226,0.6408725738525390
0.5297143936157226,0.6408725738525390
0.5372617721557617,0.6417549133300781
0.5372617721557617,0.6417549133300781
0.5351314544677734,0.6451892852783203
0.5351314544677734,0.6451892852783203
0.5332094192504883,0.6389413833618164
0.5332094192504883,0.6389413833618164
0.5367439270019531,0.6452264785766602
0.5367439270019531,0.6452264785766602
0.5310882568359375,0.6408983230590820
0.5310882568359375,0.6408983230590820
0.5376205444335938,0.6419992446899414
0.5376205444335938,0.6419992446899414
0.5352659225463867,0.6460138320922851
0.5352659225463867,0.6460138320922851
0.5324180603027343,0.6408674240112304
0.5324180603027343,0.6408674240112304
0.5393526077270507,0.6478986740112305
0.5393526077270507,0.6478986740112305
0.5329130172729492,0.6444877624511719
0.5329130172729492,0.6444877624511719
0.5392341613769531,0.6464939117431641
0.5392341613769531,0.6464939117431641
0.5358398437499999,0.6512157440185546
0.5358398437499999,0.6512157440185546
0.5364521026611327,0.6464235305786132
0.5364521026611327,0.6464235305786132
0.5419446945190429,0.6539165496826171
0.5419446945190429,0.6539165496826171
0.5353145599365234,0.6506349563598632
0.5353145599365234,0.6506349563598632
0.5404850006103515,0.6529678344726563
0.5404850006103515,0.6529678344726563
0.5400770187377929,0.6572296142578125
0.5400770187377929,0.6572296142578125
0.5387111663818359,0.6505640029907226
0.5387111663818359,0.6505640029907226
0.5423984527587891,0.6544189453125000
0.5423984527587891,0.6544189453125000
0.5320884704589843,0.6454954147338867
0.5320884704589843,0.6454954147338867
0.5369756698608398,0.6402431488037109
0.5369756698608398,0.6402431488037109
0.5315334320068359,0.6373706817626953
0.5315334320068359,0.6373706817626953
0.5272968292236327,0.6260313034057617
0.5272968292236327,0.6260313034057617
0.5288709640502930,0.6285982131958008
0.5288709640502930,0.6285982131958008
0.5220279693603516,0.6217403411865234
0.5220279693603516,0.6217403411865234
0.5279062271118163,0.6212608337402343
0.5279062271118163,0.6212608337402343
0.5248237609863281,0.6240703582763671
0.5248237609863281,0.6240703582763671
0.5216754913330078,0.6175008773803711
0.5216754913330078,0.6175008773803711
0.5280944824218750,0.6237487792968750
0.5280944824218750,0.6237487792968750
0.5213390350341797,0.6197175979614258
0.5213390350341797,0.6197175979614258
0.5278827667236328,0.6211772918701172
0.5278827667236328,0.6211772918701172
0.5244209289550781,0.6257720947265625
0.5244209289550781,0.6257720947265625
0.5245977401733398,0.6205747604370117
0.5245977401733398,0.6205747604370117
0.5305583953857421,0.6279905319213867
0.5305583953857421,0.6279905319213867
0.5237731933593750,0.6251787185668946
0.5237731933593750,0.6251787185668946
0.5293888092041016,0.6275705337524414
0.5293888092041016,0.6275705337524414
0.5292474746704101,0.6330024719238281
0.5347549438476562,0.6330024719238281
0.5282484054565429,0.6284185409545898
0.5282484054565429,0.6284185409545898
0.5341432571411132,0.6362857818603516
0.5341432571411132,0.6362857818603516
0.5262754440307617,0.6339242935180663
0.5262754440307617,0.6339242935180663
0.5348052978515625,0.6366514205932617
0.5348052978515625,0.6366514205932617
0.5334526062011719,0.6414522171020508
0.5334526062011719,0.6414522171020508
0.5317314147949218,0.6361581802368164
0.5317314147949218,0.6361581802368164
0.5358106613159179,0.6432140350341796
0.5358106613159179,0.6432140350341796
0.5303163528442383,0.6394884109497070
0.5303163528442383,0.6394884109497070
0.5369070053100585,0.6410224914550781
0.5311471939086914,0.6410224914550781
0.5345701217651367,0.6448637008666992
0.5389726638793945,0.6448637008666992
0.5313783645629883,0.6387731552124023
0.5313783645629883,0.6387731552124023
0.5380336761474609,0.6451251983642577
0.5380336761474609,0.6451251983642577
0.5310848236083984,0.6408863067626953
0.5310848236083984,0.6408863067626953
0.5371770858764648,0.6416399002075195
0.5371770858764648,0.6416399002075195
0.5333387374877929,0.6453140258789062
0.5333387374877929,0.6453140258789062
0.5328672409057617,0.6385963439941406
0.5328672409057617,0.6385963439941406
0.5382865905761719,0.6447978973388672
0.5382865905761719,0.6447978973388672
0.5306018829345703,0.6403072357177734
0.5306018829345703,0.6403072357177734
0.5357139587402343,0.6410076141357421
0.5357139587402343,0.6410076141357421
0.5348201751708984,0.6448699951171875
0.5348201751708984,0.6448699951171875
0.5332626342773438,0.6384252548217774
0.5332626342773438,0.6384252548217774
0.5384433746337890,0.6450496673583984
0.5384433746337890,0.6450496673583984
0.5295530319213867,0.6412324905395508
0.5295530319213867,0.6412324905395508
0.5377515792846680,0.6424095153808593
0.5377515792846680,0.6424095153808593
0.5357746124267578,0.6470106124877929
0.5357746124267578,0.6470106124877929
0.5339452743530273,0.6410287857055664
0.5339452743530273,0.6410287857055664
0.5384199142456054,0.6486631393432617
0.5384199142456054,0.6486631393432617
0.5326108932495117,0.6454313278198242
0.5326108932495117,0.6454313278198242
0.5400644302368164,0.6470523834228515
0.5400644302368164,0.6470523834228515
0.5380313873291015,0.6523836135864257
0.5380313873291015,0.6523836135864257
0.5348922729492187,0.6461311340332031
0.5348922729492187,0.6461311340332031
0.5415842056274414,0.6512031555175781
0.5415842056274414,0.6512031555175781
0.5325050354003906,0.6430143356323242
0.5325050354003906,0.6430143356323242
0.5364818572998047,0.6382701873779296
0.5364818572998047,0.6382701873779296
0.5304290771484375,0.6371349334716797
0.5304290771484375,0.6371349334716797
0.5277820587158203,0.6263288497924805
0.5277820587158203,0.6263288497924805
0.5315940856933593,0.6290164947509765
0.5315940856933593,0.6290164947509765
0.5224296569824218,0.6219285964965821
0.5224296569824218,0.6219285964965821
0.5264625549316406,0.6210062026977539
0.5264625549316406,0.6210062026977539
0.5232215881347656,0.6222238540649414
0.5232215881347656,0.6222238540649414
0.5227426528930664,0.6221391677856445
0.5227426528930664,0.6221391677856445
0.5255104064941406,0.6185148239135742
0.5255104064941406,0.6185148239135742
0.5276973724365234,0.6245332717895508
0.5276973724365234,0.6245332717895508
0.5239763259887695,0.6182024002075195
0.5239763259887695,0.6182024002075195
0.5294420242309570,0.6229528427124024
0.5294420242309570,0.6229528427124024
0.5238967895507812,0.6240291595458984
0.5238967895507812,0.6240291595458984
0.5266977310180664,0.6212053298950195
0.5266977310180664,0.6212053298950195
0.5302070617675781,0.6278091430664062
0.5302070617675781,0.6278091430664062
0.5251928329467773,0.6221374511718750
0.5251928329467773,0.6221374511718750
0.5316736221313476,0.6280054092407227
0.5316736221313476,0.6280054092407227
0.5262989044189453,0.6294193267822266
0.5262989044189453,0.6294193267822266
0.5304279327392578,0.6272695541381835
0.5304279327392578,0.6272695541381835
0.5324930191040039,0.6344186782836914
0.5324930191040039,0.6344186782836914
0.5283628463745117,0.6297008514404296
0.5283628463745117,0.6297008514404296
0.5350433349609375,0.6357410430908202
0.5350433349609375,0.6357410430908202
0.5307306289672852,0.6374588012695312
0.5307306289672852,0.6374588012695312
0.5332334518432617,0.6349330902099609
0.5332334518432617,0.6349330902099609
0.5360361099243164,0.6422475814819336
0.5360361099243164,0.6422475814819336
0.5314470291137695,0.6368001937866211
0.5314470291137695,0.6368001937866211
0.5388547897338867,0.6419752120971679
0.5388547897338867,0.6419752120971679
0.5324220657348633,0.6426080703735352
0.5324220657348633,0.6426080703735352
0.5353952407836914,0.6394083023071289
0.5353952407836914,0.6394083023071289
0.5375558853149414,0.6455732345581054
0.5375558853149414,0.6455732345581054
0.5335985183715820,0.6394020080566406
0.5335985183715820,0.6394020080566406
0.5389932632446289,0.6435373306274413
0.5389932632446289,0.6435373306274413
0.5330772399902344,0.6443206787109375
0.5330772399902344,0.6443206787109375
0.5355594635009765,0.6406791687011718
0.5355594635009765,0.6406791687011718
0.5386590957641602,0.6467931747436523
0.5386590957641602,0.6467931747436523
0.5330331802368163,0.6404817581176757
0.5330331802368163,0.6404817581176757
0.5393737792968750,0.6453523635864258
0.5338766098022460,0.6453523635864258
0.5335533142089843,0.6463296890258788
0.5335533142089843,0.6463296890258788
0.5371267318725585,0.6433753967285156
0.5371267318725585,0.6433753967285156
0.5391420364379883,0.6496759414672851
0.5391420364379883,0.6496759414672851
0.5345643997192383,0.6442405700683593
0.5345643997192383,0.6442405700683593
0.5409925460815429,0.6496175765991211
0.5409925460815429,0.6496175765991211
0.5365385055541992,0.6505668640136718
0.5365385055541992,0.6505668640136718
0.5384840011596680,0.6474529266357422
0.5384840011596680,0.6474529266357422
0.5412254333496094,0.6543073654174805
0.5412254333496094,0.6543073654174805
0.5367576599121093,0.6489309310913086
0.5367576599121093,0.6489309310913086
0.5441093444824219,0.6529747009277344
0.5441093444824219,0.6529747009277344
0.5367725372314452,0.6510194778442383
0.5367725372314452,0.6510194778442383
0.5374694824218750,0.6433416366577148
0.5374694824218750,0.6433416366577148
0.5373905181884765,0.6434658050537109
0.5373905181884765,0.6434658050537109
0.5303209304809570,0.6309534072875976
0.5303209304809570,0.6309534072875976
0.5333175659179688,0.6299806594848633
0.5333175659179688,0.6299806594848633
0.5253725051879883,0.6263631820678711
0.5253725051879883,0.6263631820678711
0.5262519836425781,0.6194400787353516
0.5262519836425781,0.6194400787353516
0.5284767150878906,0.6232515335083008
0.5284767150878906,0.6232515335083008
0.5219524383544921,0.6153888702392578
0.5219524383544921,0.6153888702392578
0.5277282714843750,0.6188976287841796
0.5219026565551758,0.6188976287841796
0.5216846466064453,0.6189863204956054
0.5216846466064453,0.6189863204956054
0.5248678207397460,0.6149797439575195
0.5248678207397460,0.6149797439575195
0.5266342163085938,0.6209037780761718
0.5266342163085938,0.6209037780761718
0.5218334197998047,0.6154661178588867
0.5218334197998047,0.6154661178588867
0.5283479690551758,0.6202686309814452
0.5283479690551758,0.6202686309814452
0.5237371444702148,0.6216802597045898
0.5237371444702148,0.6216802597045898
0.5256666183471680,0.6186498641967774
0.5256666183471680,0.6186498641967774
0.5288223266601563,0.6259700775146484
0.5288223266601563,0.6259700775146484
0.5241222381591797,0.6209947586059570
0.5241222381591797,0.6209947586059570
0.5319620132446289,0.6262859344482422
0.5319620132446289,0.6262859344482422
0.5259601593017578,0.6279447555541992
0.5259601593017578,0.6279447555541992
0.5287570953369141,0.6255237579345703
0.5287570953369141,0.6255237579345703
0.5319293975830078,0.6327621459960937
0.5319293975830078,0.6327621459960937
0.5280315399169921,0.6274532318115235
0.5280315399169921,0.6274532318115235
0.5340122222900391,0.6321361541748046
0.5340122222900391,0.6321361541748046
0.5286066055297851,0.6334379196166992
0.5286066055297851,0.6334379196166992
0.5310682296752930,0.6303045272827148
0.5310682296752930,0.6303045272827148
0.5348476409912110,0.6367624282836913
0.5348476409912110,0.6367624282836913
0.5289390563964843,0.6305437088012695
0.5289390563964843,0.6305437088012695
0.5354518890380859,0.6354864120483398
0.5354518890380859,0.6354864120483398
0.5297355651855469,0.6365301132202148
0.5297355651855469,0.6365301132202148
0.5331356048583984,0.6331912994384765
0.5271692276000977,0.6331912994384765
0.5352636337280273,0.6398008346557617
0.5354003906250000,0.6398008346557617
0.5300519943237304,0.6337989807128906
0.5300519943237304,0.6337989807128906
0.5367862701416015,0.6387708663940429
0.5367862701416015,0.6387708663940429
0.5320129394531250,0.6399049758911133
0.5320129394531250,0.6399049758911133
0.5338657379150390,0.6364099502563476
0.5338657379150390,0.6364099502563476
0.5366718292236328,0.6432981491088867
0.5366718292236328,0.6432981491088867
0.5313308715820312,0.6370960235595703
0.5313308715820312,0.6370960235595703
0.5391180038452148,0.6417858123779296
0.5325107574462891,0.6417858123779296
0.5323968887329101,0.6424238204956054
0.5323968887329101,0.6424238204956054
0.5351612091064453,0.6396778106689452
0.5351612091064453,0.6396778106689452
0.5383661270141601,0.6471279144287109
0.5383661270141601,0.6471279144287109
0.5345117568969726,0.6422676086425781
0.5345117568969726,0.6422676086425781
0.5407911300659179,0.6472223281860351
0.5407911300659179,0.6472223281860351
0.5355131149291992,0.6495294570922852
0.5355131149291992,0.6495294570922852
0.5383335113525390,0.6476308822631835
0.5383335113525390,0.6476308822631835
0.5428676605224609,0.6554431915283203
0.5428676605224609,0.6554431915283203
0.5375730514526367,0.6506961822509766
0.5375730514526367,0.6506961822509766
0.5443359375000000,0.6552812576293945
0.5384468078613281,0.6552812576293945
0.5381698608398438,0.6542821884155273
0.5381698608398438,0.6542821884155273
0.5397108078002929,0.6466438293457031
0.5397108078002929,0.6466438293457031
0.5389308929443359,0.6460859298706054
0.5389308929443359,0.6460859298706054
0.5305675506591797,0.6329715728759765
0.5305675506591797,0.6329715728759765
0.5337129592895508,0.6309402465820312
0.5337129592895508,0.6309402465820312
0.5268390655517577,0.6268953323364258
0.5268390655517577,0.6268953323364258
0.5265123367309570,0.6197502136230468
0.5265123367309570,0.6197502136230468
0.5279869079589844,0.6235078811645508
0.5279869079589844,0.6235078811645508
0.5219427108764648,0.6161132812500000
0.5219427108764648,0.6161132812500000
0.5288000106811523,0.6195344924926758
0.5288000106811523,0.6195344924926758
0.5223947525024414,0.6198646545410156
0.5223947525024414,0.6198646545410156
0.5245679855346680,0.6167570114135742
0.5245679855346680,0.6167570114135742
0.5273712158203124,0.6230421066284180
0.5273712158203124,0.6230421066284180
0.5234098434448242,0.6178333282470703
0.5234098434448242,0.6178333282470703
0.5292829513549805,0.6224750518798828
0.5292829513549805,0.6224750518798828
0.5242733001708985,0.6244548797607422
0.5242733001708985,0.6244548797607422
0.5269134521484374,0.6220916748046875
0.5269134521484374,0.6220916748046875
0.5310922622680664,0.6293558120727539
0.5310922622680664,0.6293558120727539
0.5256408691406250,0.6245058059692382
0.5256408691406250,0.6245058059692382
0.5327356338500976,0.6301345825195312
0.5327356338500976,0.6301345825195312
0.5277837753295899,0.6326648712158203
0.5277837753295899,0.6326648712158203
0.5316175460815430,0.6307147979736328
0.5316175460815430,0.6307147979736328
0.5342994689941406,0.6378078460693359
0.5342994689941406,0.6378078460693359
0.5296165466308593,0.6335535049438477
0.5296165466308593,0.6335535049438477
0.5364841461181641,0.6386724472045898
0.5364841461181641,0.6386724472045898
0.5324460983276367,0.6406585693359375
0.5324460983276367,0.6406585693359375
0.5339561462402344,0.6375646591186523
0.5339561462402344,0.6375646591186523
0.5370283126831055,0.6440826416015625
0.5370283126831055,0.6440826416015625
0.5316873550415039,0.6386472702026367
0.5316873550415039,0.6386472702026367
0.5392370223999023,0.6427459716796875
0.5392370223999023,0.6427459716796875
0.5331350326538086,0.6436305999755859
0.5395265579223633,0.6436305999755859
0.5350965499877930,0.6404056549072266
0.5350965499877930,0.6404056549072266
0.5380577087402344,0.6462810516357421
0.5380577087402344,0.6462810516357421
0.5336030960083008,0.6405773162841797
0.5336030960083008,0.6405773162841797
0.5392971038818359,0.6441976547241210
0.5392971038818359,0.6441976547241210
0.5339973449707031,0.6453294754028320
0.5339973449707031,0.6453294754028320
0.5359857559204101,0.6422487258911133
0.5359857559204101,0.6422487258911133
0.5399877548217773,0.6482528686523438
0.5399877548217773,0.6482528686523438
0.5339578628540039,0.6422418594360352
0.5339578628540039,0.6422418594360352
0.5404226303100585,0.6464950561523437
0.5404226303100585,0.6464950561523437
0.5351211547851562,0.6480142593383789
0.5351211547851562,0.6480142593383789
0.5383569717407226,0.6451269149780273
0.5383569717407226,0.6451269149780273
0.5406126022338867,0.6512334823608398
0.5404958724975586,0.6512334823608398
0.5353981018066406,0.6460493087768554
0.5353981018066406,0.6460493087768554
0.5419807434082031,0.6505594253540039
0.5419807434082031,0.6505594253540039
0.5378677368164062,0.6523933410644531
0.5378677368164062,0.6523933410644531
0.5394361495971679,0.6494270324707031
0.5394361495971679,0.6494270324707031
0.5427114486694335,0.6562889099121093
0.5427114486694335,0.6562889099121093
0.5375530242919921,0.6508266448974609
0.5375530242919921,0.6508266448974609
0.5447639465332031,0.6539857864379882
0.5447639465332031,0.6539857864379882
0.5376308441162109,0.6526525497436523
0.5376308441162109,0.6526525497436523
0.5378093719482422,0.6450256347656250
0.5378093719482422,0.6450256347656250
0.5380966186523437,0.6447658538818359
0.5380966186523437,0.6447658538818359
0.5303323745727538,0.6320125579833984
0.5303323745727538,0.6320125579833984
0.5332460403442383,0.6298473358154296
0.5332460403442383,0.6298473358154296
0.5257678985595703,0.6266876220703125
0.5257678985595703,0.6266876220703125
0.5258989334106445,0.6198606491088867
0.5258989334106445,0.6198606491088867
0.5287576675415039,0.6231090545654296
0.5287576675415039,0.6231090545654296
0.5248929977416992,0.6208848953247070
0.5248929977416992,0.6208848953247070
0.5194644927978516,0.6134325027465820
0.5219352722167968,0.6134325027465820
0.5274650573730468,0.6195304870605468
0.5274650573730468,0.6195304870605468
0.5203737258911133,0.6167432785034179
0.5203737258911133,0.6167432785034179
0.5262491226196289,0.6164600372314453
0.5262491226196289,0.6164600372314453
0.5237640380859375,0.6215194702148438
0.5237640380859375,0.6215194702148438
0.5227186203002929,0.6154397964477539
0.5227186203002929,0.6154397964477539
0.5295312881469726,0.6229116439819335
0.5295312881469726,0.6229116439819335
0.5223810195922851,0.6211750030517578
0.5223810195922851,0.6211750030517578
0.5271257400512696,0.6218954086303711
0.5271257400512696,0.6218954086303711
0.5284217834472656,0.6278469085693359
0.5284217834472656,0.6278469085693359
0.5259716033935546,0.6225654602050781
0.5259716033935546,0.6225654602050781
0.5326246261596680,0.6304555892944336
0.5326246261596680,0.6304555892944336
0.5244100570678710,0.6293140411376953
0.5244100570678710,0.6293140411376953
0.5324380874633788,0.6302953720092773
0.5324380874633788,0.6302953720092773
0.5326103210449219,0.6363584518432617
0.5326103210449219,0.6363584518432617
0.5296440124511719,0.6309373855590820
0.5296440124511719,0.6309373855590820
0.5345941543579101,0.6382135391235352
0.5345941543579101,0.6382135391235352
0.5291147232055664,0.6357553482055663
0.5291147232055664,0.6357553482055663
0.5350410461425781,0.6358503341674805
0.5350410461425781,0.6358503341674805
0.5344179153442382,0.6405744552612305
0.5344179153442382,0.6405744552612305
0.5299226760864257,0.6346881866455077
0.5299226760864257,0.6346881866455077
0.5379083633422851,0.6416130065917969
0.5379083633422851,0.6416130065917969
0.5310802459716797,0.6389276504516601
0.5310802459716797,0.6389276504516601
0.5364618301391602,0.6386655807495117
0.5364618301391602,0.6386655807495117
0.5341255187988281,0.6436014175415039
0.5375724792480469,0.6436014175415039
0.5327842712402343,0.6374668121337891
0.5327842712402343,0.6374668121337891
0.5390367507934570,0.6444797515869141
0.5390367507934570,0.6444797515869141
0.5319242477416992,0.6416587829589844
0.5319242477416992,0.6416587829589844
0.5361150741577149,0.6415002822875976
0.5361150741577149,0.6415002822875976
0.5369155883789062,0.6464286804199219
0.5369155883789062,0.6464286804199219
0.5342634201049804,0.6399003982543945
0.5342634201049804,0.6399003982543945
0.5400249481201171,0.6465545654296875
0.5400249481201171,0.6465545654296875
0.5312026977539063,0.6435544967651367
0.5312026977539063,0.6435544967651367
0.5384445190429688,0.6425903320312499
0.5384445190429688,0.6425903320312499
0.5375856399536133,0.6469453811645508
0.5375856399536133,0.6469453811645508
0.5341615676879883,0.6398786544799805
0.5341615676879883,0.6398786544799805
0.5384193420410156,0.6462816238403321
0.5384193420410156,0.6462816238403321
0.5328598022460938,0.6434675216674804
0.5328598022460938,0.6434675216674804
0.5386905670166016,0.6428117752075195
0.5386905670166016,0.6428117752075195
0.5376914978027344,0.6471261978149414
0.5376914978027344,0.6471261978149414
0.5321050643920898,0.6388578414916992
0.5321050643920898,0.6388578414916992
0.5385234832763671,0.6420478820800781
0.5385234832763671,0.6420478820800781
0.5293493270874023,0.6346555709838867
0.5293493270874023,0.6346555709838867
0.5323648452758789,0.6287492752075196
0.5323648452758789,0.6287492752075196
0.5280206680297851,0.6288454055786132
0.5280206680297851,0.6288454055786132
0.5246109008789063,0.6185806274414062
0.5246109008789063,0.6185806274414062
0.5294403076171875,0.6219142913818360
0.5294403076171875,0.6219142913818360
0.5210952758789062,0.6171924591064453
0.5210952758789062,0.6171924591064453
0.5242864608764648,0.6147954940795898
0.5242864608764648,0.6147954940795898
0.5247505187988281,0.6185062408447265
0.5247505187988281,0.6185062408447265
0.5212858200073242,0.6111373901367188
0.5212858200073242,0.6111373901367188
0.5270364761352538,0.6171009063720703
0.5270364761352538,0.6171009063720703
0.5184379577636719,0.6144699096679688
0.5184379577636719,0.6144699096679688
0.5253118515014649,0.6138530731201172
0.5253118515014649,0.6138530731201172
0.5250835418701172,0.6188289642333984
0.5250835418701172,0.6188289642333984
0.5215953826904297,0.6123865127563476
0.5215953826904297,0.6123865127563476
0.5262113571166992,0.6194847106933593
0.5262113571166992,0.6194847106933593
0.5209888458251953,0.6174556732177734
0.5209888458251953,0.6174556732177734
0.5268951416015625,0.6175987243652343
0.5268951416015625,0.6175987243652343
0.5266204833984375,0.6233219146728516
0.5266204833984375,0.6233219146728516
0.5222133636474610,0.6176782608032226
0.5222133636474610,0.6176782608032226
0.5304210662841796,0.6254344940185547
0.5304210662841796,0.6254344940185547
0.5241233825683593,0.6237768173217774
0.5241233825683593,0.6237768173217774
0.5296903610229492,0.6236972808837891
0.5296903610229492,0.6236972808837891
0.5280824661254883,0.6296682357788086
0.5280824661254883,0.6296682357788086
0.5267595291137696,0.6237510681152344
0.5267595291137696,0.6237510681152344
0.5332975387573242,0.6308652877807617
0.5332975387573242,0.6308652877807617
0.5262056350708008,0.6285764694213867
0.5262056350708008,0.6285764694213867
0.5301521301269531,0.6278778076171875
0.5301521301269531,0.6278778076171875
0.5314195632934570,0.6334796905517578
0.5314195632934570,0.6334796905517578
0.5283433914184570,0.6268186569213867
0.5283433914184570,0.6268186569213867
0.5343578338623046,0.6337635040283203
0.5343578338623046,0.6337635040283203
0.5258022308349609,0.6315198898315429
0.5258022308349609,0.6315198898315429
0.5328289031982422,0.6304990768432617
0.5328289031982422,0.6304990768432617
0.5327167510986328,0.6359899520874023
0.5327167510986328,0.6359899520874023
0.5291284561157227,0.6288505554199219
0.5291284561157227,0.6288505554199219
0.5336231231689453,0.6353410720825196
0.5336231231689453,0.6353410720825196
0.5280475616455078,0.6327587127685547
0.5280475616455078,0.6327587127685547
0.5334211349487304,0.6312881469726562
0.5334211349487304,0.6312881469726562
0.5328786849975585,0.6365467071533203
0.5328786849975585,0.6365467071533203
0.5278833389282226,0.6298873901367187
0.5278833389282226,0.6298873901367187
0.5357065200805664,0.6366971969604492
0.5357065200805664,0.6366971969604492
0.5289785385131835,0.6346115112304688
0.5289785385131835,0.6346115112304688
0.5340110778808593,0.6336919784545898
0.5340110778808593,0.6336919784545898
0.5326234817504882,0.6396566390991211
0.5326234817504882,0.6396566390991211
0.5309526443481445,0.6332118988037109
0.5309526443481445,0.6332118988037109
0.5376050949096679,0.6402254104614258
0.5376050949096679,0.6402254104614258
0.5306081771850586,0.6381717681884765
0.5306081771850586,0.6381717681884765
0.5341981887817383,0.6370393753051757
0.5341981887817383,0.6370393753051757
0.5355342864990235,0.6416719436645507
0.5355342864990235,0.6416719436645507
0.5312513351440430,0.6325733184814453
0.5312513351440430,0.6325733184814453
0.5357156753540039,0.6352552413940430
0.5357156753540039,0.6352552413940430
0.5250177383422852,0.6279830932617188
0.5250177383422852,0.6279830932617188
0.5293218612670898,0.6216705322265624
0.5293218612670898,0.6216705322265624
0.5274896621704102,0.6229087829589843
0.5274896621704102,0.6229087829589843
0.5220674514770508,0.6121902465820312
0.5220674514770508,0.6121902465820312
0.5253799438476562,0.6162763595581054
0.5253799438476562,0.6162763595581054
0.5189243316650390,0.6119224548339843
0.5189243316650390,0.6119224548339843
0.5233675003051758,0.6089727401733398
0.5233675003051758,0.6089727401733398
0.5226613998413085,0.6133684158325196
0.5226613998413085,0.6133684158325196
0.5173032760620117,0.6055332183837890
0.5173032760620117,0.6055332183837890
0.5247894287109375,0.6121158599853516
0.5247894287109375,0.6121158599853516
0.5181049346923828,0.6097663879394531
0.5181049346923828,0.6097663879394531
0.5229263305664062,0.6082969665527344
0.5229263305664062,0.6082969665527344
0.5214672088623047,0.6138999938964843
0.5214672088623047,0.6138999938964843
0.5193878173828125,0.6068710327148438
0.5208429336547852,0.6068710327148438
0.5258914947509765,0.6141666412353516
0.5258914947509765,0.6141666412353516
0.5194044113159180,0.6128952026367187
0.5194044113159180,0.6128952026367187
0.5233228683471679,0.6126039505004882
0.5233228683471679,0.6126039505004882
0.5253593444824218,0.6192306518554688
0.5253593444824218,0.6192306518554688
0.5225400924682617,0.6132774353027344
0.5231775283813477,0.6132774353027344
0.5290763854980468,0.6215034484863281
0.5290763854980468,0.6215034484863281
0.5216394424438476,0.6212831497192383
0.5216394424438476,0.6212831497192383
0.5287176132202148,0.6214273452758788
0.5287176132202148,0.6214273452758788
0.5296085357666015,0.6282571792602539
0.5296085357666015,0.6282571792602539
0.5263595581054688,0.6220733642578125
0.5263595581054688,0.6220733642578125
0.5312381744384765,0.6296367645263672
0.5312381744384765,0.6296367645263672
0.5264694213867187,0.6280317306518555
0.5264694213867187,0.6280317306518555
0.5316255569458007,0.6266744613647460
0.5316255569458007,0.6266744613647460
0.5312707901000976,0.6318162918090821
0.5312707901000976,0.6318162918090821
0.5258371353149414,0.6241127014160156
0.5258371353149414,0.6241127014160156
0.5330474853515624,0.6299840927124023
0.5330474853515624,0.6299840927124023
0.5263269424438476,0.6271791458129883
0.5263269424438476,0.6271791458129883
0.5306247711181641,0.6248497009277344
0.5306247711181641,0.6248497009277344
0.5289264678955078,0.6303514480590821
0.5289264678955078,0.6303514480590821
0.5267606735229492,0.6227485656738281
0.5267606735229492,0.6227485656738281
0.5330183029174804,0.6294713973999023
0.5330183029174804,0.6294713973999023
0.5263412475585937,0.6278148651123047
0.5294569015502929,0.6263511657714843
0.5294569015502929,0.6263511657714843
0.5314842224121094,0.6328348159790039
0.5314842224121094,0.6328348159790039
0.5282089233398437,0.6264438629150391
0.5292028427124024,0.6264438629150391
0.5345861434936523,0.6339036941528320
0.5345861434936523,0.6339036941528320
0.5269020080566406,0.6333343505859375
0.5269020080566406,0.6333343505859375
0.5335670471191406,0.6326076507568359
0.5335670471191406,0.6326076507568359
0.5346473693847656,0.6394014358520508
0.5346473693847656,0.6394014358520508
0.5312152862548828,0.6334728240966797
0.5312152862548828,0.6334728240966797
0.5361345291137695,0.6410820007324218
0.5361345291137695,0.6410820007324218
0.5318080902099609,0.6404588699340820
0.5318080902099609,0.6404588699340820
0.5368343353271484,0.6394380569458008
0.5368343353271484,0.6394380569458008
0.5372938156127930,0.6456716537475585
0.5372938156127930,0.6456716537475585
0.5317628860473632,0.6377443313598633
0.5317628860473632,0.6377443313598633
0.5384267807006836,0.6413446426391601
0.5384267807006836,0.6413446426391601
0.5299621582031250,0.6342144012451172
0.5299621582031250,0.6342144012451172
0.5311191558837890,0.6254934310913086
0.5311191558837890,0.6254934310913086
0.5269386291503906,0.6252799987792969
0.5269386291503906,0.6252799987792969
0.5226482391357422,0.6132184982299804
0.5226482391357422,0.6132184982299804
0.5267709732055664,0.6160366058349609
0.5267709732055664,0.6160366058349609
0.5189546585083008,0.6115596771240234
0.5189546585083008,0.6115596771240234
0.5208955764770508,0.6076904296875000
0.5208955764770508,0.6076904296875000
0.5224182128906250,0.6084777832031250
0.5245925903320312,0.6084777832031250
0.5245925903320312,0.6084068298339843
0.5196201324462890,0.6100805282592773
0.5252380371093750,0.6100805282592773
0.5201431274414062,0.6052562713623046
0.5201431274414062,0.6052562713623046
0.5240444183349610,0.6117685317993163
0.5240444183349610,0.6117685317993163
0.5185993194580077,0.6063165664672852
0.5185993194580077,0.6063165664672852
0.5243488311767578,0.6089532852172851
0.5243488311767578,0.6089532852172851
0.5207862854003906,0.6123676300048828
0.5207862854003906,0.6123676300048828
0.5213184356689453,0.6081476211547852
0.5213184356689453,0.6081476211547852
0.5268859863281250,0.6156801223754883
0.5268859863281250,0.6156801223754883
0.5199062347412109,0.6109457015991211
0.5199062347412109,0.6109457015991211
0.5268510818481446,0.6149517059326172
0.5268510818481446,0.6149517059326172
0.5236387252807617,0.6192541122436523
0.5236387252807617,0.6192541122436523
0.5254823684692382,0.6158586502075195
0.5254823684692382,0.6158586502075195
0.5295598983764648,0.6240245819091796
0.5295598983764648,0.6240245819091796
0.5236312866210937,0.6197708129882812
0.5299552917480469,0.6197708129882812
0.5304445266723633,0.6233757019042968
0.5304445266723633,0.6233757019042968
0.5280315399169921,0.6269124984741211
0.5280315399169921,0.6269124984741211
0.5277757644653320,0.6223268508911133
0.5277757644653320,0.6223268508911133
0.5321863174438476,0.6295766830444336
0.5321863174438476,0.6295766830444336
0.5255046844482422,0.6240726470947265
0.5255046844482422,0.6240726470947265
0.5328609466552734,0.6268335342407226
0.5328609466552734,0.6268335342407226
0.5285001754760742,0.6293941497802734
0.5285001754760742,0.6293941497802734
0.5286249160766602,0.6246534347534179
0.5286249160766602,0.6246534347534179
0.5327848434448242,0.6313848495483398
0.5327848434448242,0.6313848495483398
0.5270565032958984,0.6255775451660156
0.5270565032958984,0.6255775451660156
0.5324523925781249,0.6275882720947266
0.5324523925781249,0.6275882720947266
0.5288703918457031,0.6301631927490234
0.5288703918457031,0.6301631927490234
0.5286689758300781,0.6245973587036132
0.5255327224731445,0.6245973587036132
0.5337083816528320,0.6311370849609375
0.5337083816528320,0.6311370849609375
0.5260900497436524,0.6249704360961914
0.5260900497436524,0.6249704360961914
0.5323991775512695,0.6272878646850586
0.5323991775512695,0.6272878646850586
0.5287639617919921,0.6301179885864258
0.5287639617919921,0.6301179885864258
0.5298431396484374,0.6249315261840820
0.5298431396484374,0.6249315261840820
0.5334880828857421,0.6319438934326171
0.5334880828857421,0.6319438934326171
0.5267137527465821,0.6270469665527344
0.5267137527465821,0.6270469665527344
0.5334371566772461,0.6301734924316406
0.5334371566772461,0.6301734924316406
0.5312873840332031,0.6342555999755859
0.5312873840332031,0.6342555999755859
0.5309543609619141,0.6297100067138671
0.5309543609619141,0.6297100067138671
0.5357311248779296,0.6378908157348633
0.5357311248779296,0.6378908157348633
0.5293092727661133,0.6335168838500976
0.5293092727661133,0.6335168838500976
0.5371284484863281,0.6366680145263671
0.5371284484863281,0.6366680145263671
0.5327550888061523,0.6387119293212891
0.5377367019653320,0.6387119293212891
0.5317445755004883,0.6304618835449218
0.5317445755004883,0.6304618835449218
0.5336608886718750,0.6318037033081054
0.5336608886718750,0.6318037033081054
0.5251527786254883,0.6205633163452148
0.5251527786254883,0.6205633163452148
0.5284057617187500,0.6175764083862304
0.5284057617187500,0.6175764083862304
0.5231334686279296,0.6165058135986328
0.5231334686279296,0.6165058135986328
0.5215032577514648,0.6079427719116210
0.5215032577514648,0.6079427719116210
0.5254806518554688,0.6122491836547851
0.5254806518554688,0.6122491836547851
0.5172906875610351,0.6052734375000000
0.5172906875610351,0.6052734375000000
0.5231855392456054,0.6068853378295899
0.5231855392456054,0.6068853378295899
0.5195932388305664,0.6092353820800781
0.5195932388305664,0.6092353820800781
0.5203004837036133,0.6036363601684570
0.5203004837036133,0.6036363601684570
0.5237588882446289,0.6100587844848633
0.5237588882446289,0.6100587844848633
0.5171504974365234,0.6048213958740234
0.5171504974365234,0.6048213958740234
0.5234790802001953,0.6072635650634766
0.5234790802001953,0.6072635650634766
0.5213430404663085,0.6105257034301758
0.5213430404663085,0.6105257034301758
0.5206964492797851,0.6052688598632813
0.5206964492797851,0.6052688598632813
0.5250606536865234,0.6125106811523438
0.5250606536865234,0.6125106811523438
0.5183807373046875,0.6076366424560546
0.5183807373046875,0.6076366424560546
0.5260654449462890,0.6107007980346679
0.5260654449462890,0.6107007980346679
0.5223970413208008,0.6146924972534179
0.5223970413208008,0.6146924972534179
0.5226819992065429,0.6103597640991211
0.5226819992065429,0.6103597640991211
0.5273317337036133,0.6180347442626953
0.5273317337036133,0.6180347442626953
0.5219484329223633,0.6137443542480469
0.5219484329223633,0.6137443542480469
0.5278799057006835,0.6167295455932617
0.5278799057006835,0.6167295455932617
0.5250806808471680,0.6210657119750976
0.5250806808471680,0.6210657119750976
0.5250726699829101,0.6163438796997071
0.5250726699829101,0.6163438796997071
0.5306053161621094,0.6238271713256835
0.5306053161621094,0.6238271713256835
0.5233343124389648,0.6192243576049804
0.5233343124389648,0.6192243576049804
0.5300725936889649,0.6219377517700195
0.5300725936889649,0.6219377517700195
0.5271669387817383,0.6258499145507812
0.5271669387817383,0.6258499145507812
0.5277402877807617,0.6206897735595703
0.5277402877807617,0.6206897735595703
0.5314378738403320,0.6273702621459961
0.5314378738403320,0.6273702621459961
0.5247184753417968,0.6223634719848633
0.5311666488647461,0.6223634719848633
0.5309200286865234,0.6242952346801758
0.5309200286865234,0.6242952346801758
0.5287668228149414,0.6277399063110352
0.5287668228149414,0.6277399063110352
0.5276304244995117,0.6219503402709960
0.5276304244995117,0.6219503402709960
0.5319276809692383,0.6286525726318359
0.5319276809692383,0.6286525726318359
0.5250989913940429,0.6238185882568359
0.5250989913940429,0.6238185882568359
0.5323482513427734,0.6259391784667968
0.5260820388793945,0.6259391784667968
0.5286506652832031,0.6293334960937500
0.5336975097656250,0.6293334960937500
0.5282815933227539,0.6240308761596679
0.5282815933227539,0.6240308761596679
0.5327945709228515,0.6311210632324219
0.5327945709228515,0.6311210632324219
0.5270725250244140,0.6265668869018555
0.5270725250244140,0.6265668869018555
0.5328638076782226,0.6284105300903320
0.5328638076782226,0.6284105300903320
0.5299198150634765,0.6318958282470702
0.5299198150634765,0.6318958282470702
0.5292497634887695,0.6257789611816406
0.5292497634887695,0.6257789611816406
0.5343400955200195,0.6322048187255859
0.5343400955200195,0.6322048187255859
0.5268075942993163,0.6270635604858398
0.5268075942993163,0.6270635604858398
0.5331579208374023,0.6290210723876953
0.5331579208374023,0.6290210723876953
0.5295650482177734,0.6309659957885742
0.5295650482177734,0.6309659957885742
0.5285173416137695,0.6219051361083984
0.5285173416137695,0.6219051361083984
0.5302837371826171,0.6240291595458984
0.5302837371826171,0.6240291595458984
0.5212120056152344,0.6145969390869140
0.5212120056152344,0.6145969390869140
0.5256769180297851,0.6122783660888672
0.5256769180297851,0.6122783660888672
0.5217658996582031,0.6121473312377930
0.5217658996582031,0.6121473312377930
0.5191537857055664,0.6035127639770508
0.5191537857055664,0.6035127639770508
0.5225978851318359,0.6082294464111327
0.5225978851318359,0.6082294464111327
0.5147747039794922,0.6017051696777344
0.5147747039794922,0.6017051696777344
0.5215335845947265,0.6021921157836914
0.5215335845947265,0.6021921157836914
0.5176305770874023,0.6046989440917968
0.5176305770874023,0.6046989440917968
0.5167762756347656,0.5985248565673827
0.5167762756347656,0.5985248565673827
0.5212303161621094,0.6051721572875977
0.5212303161621094,0.6051721572875977
0.5151329040527344,0.6005001068115234
0.5151329040527344,0.6005001068115234
0.5211690902709961,0.6023191452026367
0.5211690902709961,0.6023191452026367
0.5184860229492188,0.6065208435058593
0.5184860229492188,0.6065208435058593
0.5178153991699218,0.6013721466064453
0.5178153991699218,0.6013721466064453
0.5238813400268555,0.6090345382690430
0.5238813400268555,0.6090345382690430
0.5165245056152343,0.6051258087158203
0.5165245056152343,0.6051258087158203
0.5235506057739258,0.6077671051025391
0.5235506057739258,0.6077671051025391
0.5213521957397461,0.6126125335693359
0.5213521957397461,0.6126125335693359
0.5216480255126953,0.6078151702880860
0.5216480255126953,0.6078151702880860
0.5262857437133789,0.6154621124267577
0.5262857437133789,0.6154621124267577
0.5197849273681641,0.6120077133178711
0.5197849273681641,0.6120077133178711
0.5265844345092773,0.6143657684326171
0.5265844345092773,0.6143657684326171
0.5252054214477538,0.6187156677246094
0.5252054214477538,0.6187156677246094
0.5236015319824219,0.6131755828857421
0.5236015319824219,0.6131755828857421
0.5288000106811523,0.6205753326416016
0.5288000106811523,0.6205753326416016
0.5216800689697265,0.6163684844970703
0.5216800689697265,0.6163684844970703
0.5292171478271485,0.6180707931518554
0.5292171478271485,0.6180707931518554
0.5259538650512695,0.6218421936035156
0.5259538650512695,0.6218421936035156
0.5248437881469726,0.6161235809326172
0.5248437881469726,0.6161235809326172
0.5297384262084961,0.6231702804565430
0.5297384262084961,0.6231702804565430
0.5236913681030273,0.6187717437744140
0.5236913681030273,0.6187717437744140
0.5295621871948242,0.6205078125000000
0.5295621871948242,0.6205078125000000
0.5272115707397461,0.6247650146484375
0.5272115707397461,0.6247650146484375
0.5261518478393554,0.6191413879394531
0.5261518478393554,0.6191413879394531
0.5320821762084961,0.6263557434082031
0.5320821762084961,0.6263557434082031
0.5243865966796875,0.6220178604125977
0.5243865966796875,0.6220178604125977
0.5311803817749023,0.6240045547485351
0.5311803817749023,0.6240045547485351
0.5285957336425781,0.6282497406005859
0.5285957336425781,0.6282497406005859
0.5286043167114257,0.6231925964355468
0.5262250900268555,0.6231925964355468
0.5335012435913086,0.6309602737426757
0.5335012435913086,0.6309602737426757
0.5268201828002930,0.6274223327636719
0.5268201828002930,0.6274223327636719
0.5337301254272461,0.6297363281250000
0.5337301254272461,0.6297363281250000
0.5323076248168945,0.6346904754638671
0.5323076248168945,0.6346904754638671
0.5308330535888671,0.6300195693969727
0.5308330535888671,0.6300195693969727
0.5365945816040039,0.6382724761962890
0.5365945816040039,0.6382724761962890
0.5298957824707031,0.6350326538085938
0.5298957824707031,0.6350326538085938
0.5375925064086914,0.6364963531494140
0.5375925064086914,0.6364963531494140
0.5337444305419922,0.6383960723876952
0.5337444305419922,0.6383960723876952
0.5307735443115235,0.6283790588378906
0.5307735443115235,0.6283790588378906
0.5332248687744140,0.6285970687866210
0.5332248687744140,0.6285970687866210
0.5237010955810547,0.6171850204467774
0.5237010955810547,0.6171850204467774
0.5267063140869140,0.6122360229492188
0.5267063140869140,0.6122360229492188
0.5219873428344727,0.6116735458374023
0.5219873428344727,0.6116735458374023
0.5185947418212891,0.6021503448486328
0.5185947418212891,0.6021503448486328
0.5236473083496094,0.6063657760620117
0.5236473083496094,0.6063657760620117
0.5148788452148437,0.6003381729125976
0.5148788452148437,0.6003381729125976
0.5208068847656250,0.6046463012695312
0.5144210815429687,0.5973318099975585
0.5171155929565430,0.5973318099975585
0.5218379974365234,0.6021503448486328
0.5218379974365234,0.6021503448486328
0.5160776138305664,0.6022001266479492
0.5160776138305664,0.6022001266479492
0.5190010070800781,0.5990987777709961
0.5190010070800781,0.5990987777709961
0.5196235656738281,0.6057100296020508
0.5196235656738281,0.6057100296020508
0.5168392181396484,0.5996377944946288
0.5168392181396484,0.5996377944946288
0.5233200073242187,0.6053232192993164
0.5233200073242187,0.6053232192993164
0.5174823760986328,0.6059938430786133
0.5174823760986328,0.6059938430786133
0.5194375991821288,0.6035316467285156
0.5194375991821288,0.6035316467285156
0.5234327316284180,0.6108324050903320
0.5234327316284180,0.6108324050903320
0.5196321487426757,0.6052968978881835
0.5196321487426757,0.6052968978881835
0.5261072158813477,0.6115293502807617
0.5261072158813477,0.6115293502807617
0.5190467834472656,0.6130319595336914
0.5190467834472656,0.6130319595336914
0.5241170883178711,0.6106304168701172
0.5241170883178711,0.6106304168701172
0.5267068862915039,0.6180421829223632
0.5267068862915039,0.6180421829223632
0.5224885940551758,0.6122686386108398
0.5224885940551758,0.6122686386108398
0.5274003982543946,0.6178104400634765
0.5274003982543946,0.6178104400634765
0.5232038497924805,0.6187660217285156
0.5232038497924805,0.6187660217285156
0.5264722824096679,0.6154541015625000
0.5264722824096679,0.6154541015625000
0.5284990310668946,0.6220418930053710
0.5284990310668946,0.6220418930053710
0.5222791671752930,0.6155822753906249
0.5222791671752930,0.6155822753906249
0.5300754547119141,0.6205867767333985
0.5300754547119141,0.6205867767333985
0.5243139266967773,0.6210496902465820
0.5243139266967773,0.6210496902465820
0.5270753860473633,0.6175792694091796
0.5270753860473633,0.6175792694091796
0.5279703140258789,0.6240932464599609
0.5279703140258789,0.6240932464599609
0.5248054504394531,0.6176959991455078
0.5248054504394531,0.6176959991455078
0.5315219879150390,0.6228435516357421
0.5315219879150390,0.6228435516357421
0.5255287170410156,0.6236171722412109
0.5255287170410156,0.6236171722412109
0.5269695281982422,0.6204460144042968
0.5269695281982422,0.6204460144042968
0.5311048507690429,0.6270566940307617
0.5311048507690429,0.6270566940307617
0.5264345169067383,0.6210828781127929
0.5264345169067383,0.6210828781127929
0.5329198837280273,0.6262830734252930
0.5329198837280273,0.6262830734252930
0.5258377075195312,0.6274944305419922
0.5328723907470703,0.6274944305419922
0.5305257797241211,0.6246786117553711
0.5305257797241211,0.6246786117553711
0.5334692001342773,0.6315170288085937
0.5334692001342773,0.6315170288085937
0.5284812927246093,0.6258808135986328
0.5284812927246093,0.6258808135986328
0.5335401535034180,0.6312932968139648
0.5335401535034180,0.6312932968139648
0.5296365737915039,0.6326345443725586
0.5296365737915039,0.6326345443725586
0.5328248977661133,0.6299600601196289
0.5328248977661133,0.6299600601196289
0.5353105545043945,0.6368322372436523
0.5353105545043945,0.6368322372436523
0.5288360595703124,0.6303228378295899
0.5288360595703124,0.6303228378295899
0.5364086151123046,0.6336679458618164
0.5364086151123046,0.6336679458618164
0.5294775009155274,0.6310214996337891
0.5294775009155274,0.6310214996337891
0.5298231124877929,0.6222009658813477
0.5231437683105469,0.6222009658813477
0.5277786254882812,0.6221878051757812
0.5277786254882812,0.6221878051757812
0.5216892242431640,0.6101222991943359
0.5216892242431640,0.6101222991943359
0.5257341384887695,0.6097377777099610
0.5257341384887695,0.6097377777099610
0.5178863525390625,0.6064985275268554
0.5178863525390625,0.6064985275268554
0.5175756454467774,0.6000051498413086
0.5175756454467774,0.6000051498413086
0.5207061767578125,0.6041307449340820
0.5207061767578125,0.6041307449340820
0.5151123046875000,0.5964094161987304
0.5151123046875000,0.5964094161987304
0.5210695266723633,0.6000892639160156
0.5210695266723633,0.6000892639160156
0.5135324478149413,0.6003295898437500
0.5135324478149413,0.6003295898437500
0.5174840927124024,0.5963470458984375
0.5174840927124024,0.5963470458984375
0.5202804565429687,0.6027379989624023
0.5202804565429687,0.6027379989624023
0.5149772644042968,0.5967178344726562
0.5149772644042968,0.5967178344726562
0.5203931808471679,0.6014293670654297
0.5203931808471679,0.6014293670654297
0.5162509918212891,0.6028072357177734
0.5162509918212891,0.6028072357177734
0.5193082809448242,0.5999485015869140
0.5193082809448242,0.5999485015869140
0.5222436904907226,0.6071737289428710
0.5222436904907226,0.6071737289428710
0.5158510208129883,0.6020410537719726
0.5158510208129883,0.6020410537719726
0.5244810104370117,0.6076692581176758
0.5244810104370117,0.6076692581176758
0.5194204330444335,0.6098190307617187
0.5194204330444335,0.6098190307617187
0.5223581314086914,0.6076469421386719
0.5223581314086914,0.6076469421386719
0.5244329452514648,0.6153385162353515
0.5244329452514648,0.6153385162353515
0.5211462020874024,0.6104764938354492
0.5211462020874024,0.6104764938354492
0.5285465240478515,0.6161733627319336
0.5285465240478515,0.6161733627319336
0.5230745315551758,0.6178945541381836
0.5230745315551758,0.6178945541381836
0.5243202209472656,0.6148681640625000
0.5243202209472656,0.6148681640625000
0.5288858413696289,0.6215263366699219
0.5288858413696289,0.6215263366699219
0.5239545822143554,0.6161001205444335
0.5239545822143554,0.6161001205444335
0.5308135986328125,0.6211870193481445
0.5308135986328125,0.6211870193481445
0.5240060806274414,0.6227279663085937
0.5240060806274414,0.6227279663085937
0.5280567169189453,0.6195430755615234
0.5280567169189453,0.6195430755615234
0.5313194274902343,0.6259838104248047
0.5313194274902343,0.6259838104248047
0.5259727478027344,0.6207464218139648
0.5259727478027344,0.6207464218139648
0.5313669204711914,0.6256296157836914
0.5313669204711914,0.6256296157836914
0.5274541854858398,0.6271465301513671
0.5274541854858398,0.6271465301513671
0.5300422668457031,0.6239759445190429
0.5300422668457031,0.6239759445190429
0.5328712463378906,0.6302564620971679
0.5328712463378906,0.6302564620971679
0.5261747360229492,0.6245195388793945
0.5261747360229492,0.6245195388793945
0.5344453811645508,0.6291486740112304
0.5344453811645508,0.6291486740112304
0.5291450500488281,0.6301248550415038
0.5291450500488281,0.6301248550415038
0.5311317443847656,0.6264656066894531
0.5311317443847656,0.6264656066894531
0.5322956085205078,0.6321853637695313
0.5322956085205078,0.6321853637695313
0.5284744262695312,0.6260078430175781
0.5284744262695312,0.6260078430175781
0.5348596572875977,0.6299531936645507
0.5348596572875977,0.6299531936645507
0.5292182922363281,0.6309402465820312
0.5292182922363281,0.6309402465820312
0.5298477172851562,0.6276203155517578
0.5298477172851562,0.6276203155517578
0.5344545364379882,0.6337806701660156
0.5344545364379882,0.6337806701660156
0.5292926788330078,0.6279991149902343
0.5292926788330078,0.6279991149902343
0.5354444503784179,0.6314357757568360
0.5354444503784179,0.6314357757568360
0.5277580261230469,0.6303977966308594
0.5335035324096680,0.6303977966308594
0.5297698974609375,0.6228355407714844
0.5297698974609375,0.6228355407714844
0.5303449630737305,0.6232355117797851
0.5303449630737305,0.6232355117797851
0.5222322463989257,0.6116746902465821
0.5222322463989257,0.6116746902465821
0.5250097274780273,0.6109886169433594
0.5250097274780273,0.6109886169433594
0.5193151473999024,0.6084405899047851
0.5193151473999024,0.6084405899047851
0.5200733184814453,0.6018676757812500
0.5200733184814453,0.6018676757812500
0.5218317031860351,0.6054908752441406
0.5218317031860351,0.6054908752441406
0.5140560150146484,0.5982015609741210
0.5140560150146484,0.5982015609741210
0.5215759277343750,0.6011598587036132
0.5215759277343750,0.6011598587036132
0.5161142349243164,0.6019500732421875
0.5161142349243164,0.6019500732421875
0.5178314208984375,0.5980493545532226
0.5131776809692382,0.5980493545532226
0.5193729400634766,0.6039070129394531
0.5193729400634766,0.6039070129394531
0.5154138565063476,0.5982559204101562
0.5154138565063476,0.5982559204101562
0.5222385406494140,0.6024427413940430
0.5222385406494140,0.6024427413940430
0.5169696807861328,0.6040506362915039
0.5169696807861328,0.6040506362915039
0.5175436019897460,0.6011123657226562
0.5175436019897460,0.6011123657226562
0.5225458145141602,0.6077453613281250
0.5225458145141602,0.6077453613281250
0.5173078536987304,0.6027540206909180
0.5173078536987304,0.6027540206909180
0.5242733001708985,0.6075513839721679
0.5242733001708985,0.6075513839721679
0.5182622909545899,0.6099946975708007
0.5182622909545899,0.6099946975708007
0.5220039367675781,0.6076166152954101
0.5220039367675781,0.6076166152954101
0.5259698867797852,0.6144641876220703
0.5259698867797852,0.6144641876220703
0.5205665588378906,0.6097652435302734
0.5205665588378906,0.6097652435302734
0.5259572982788085,0.6144201278686523
0.5259572982788085,0.6144201278686523
0.5226894378662109,0.6164657592773437
0.5226894378662109,0.6164657592773437
0.5248872756958007,0.6133792877197265
0.5248872756958007,0.6133792877197265
0.5282300949096680,0.6198234558105469
0.5282300949096680,0.6198234558105469
0.5212617874145508,0.6144739151000976
0.5212617874145508,0.6144739151000976
0.5296817779541015,0.6188409805297851
0.5296817779541015,0.6188409805297851
0.5249536514282226,0.6209484100341797
0.5249536514282226,0.6209484100341797
0.5267887115478516,0.6178030014038086
0.5267887115478516,0.6178030014038086
0.5286186218261718,0.6241607666015625
0.5286186218261718,0.6241607666015625
0.5245983123779296,0.6186779022216796
0.5245983123779296,0.6186779022216796
0.5314968109130859,0.6225614547729492
0.5314968109130859,0.6225614547729492
0.5262662887573242,0.6240509033203124
0.5262662887573242,0.6240509033203124
0.5264219284057617,0.6201244354248047
0.5264219284057617,0.6201244354248047
0.5312479019165038,0.6258893966674804
0.5312479019165038,0.6258893966674804
0.5255619049072265,0.6199115753173828
0.5255619049072265,0.6199115753173828
0.5318086624145507,0.6233350753784179
0.5318086624145507,0.6233350753784179
0.5252803802490235,0.6250934600830078
0.5252803802490235,0.6250934600830078
0.5284229278564453,0.6215154647827148
0.5284229278564453,0.6215154647827148
0.5320672988891602,0.6279613494873046
0.5320672988891602,0.6279613494873046
0.5263509750366211,0.6223909378051757
0.5312393188476562,0.6223909378051757
0.5315952301025391,0.6263368606567382
0.5315952301025391,0.6263368606567382
0.5283542633056640,0.6286342620849609
0.5283542633056640,0.6286342620849609
0.5302219390869141,0.6251123428344726
0.5302219390869141,0.6251123428344726
0.5336803436279297,0.6315130233764649
0.5329994201660156,0.6315130233764649
0.5263549804687500,0.6257646560668945
0.5263549804687500,0.6257646560668945
0.5343572616577148,0.6288362503051758
0.5343572616577148,0.6288362503051758
0.5289127349853515,0.6287160873413086
0.5289127349853515,0.6287160873413086
0.5286563873291016,0.6209243774414063
0.5286563873291016,0.6209243774414063
