REDsignal,IRsignal
0.6149991989135742,0.6364151000976562
0.6122549057006835,0.6364151000976562
0.6201250076293945,0.6445741653442383
0.6196626663208008,0.6445741653442383
0.6145780563354492,0.6399169921875000
0.6184158325195312,0.6399169921875000
0.6218427658081055,0.6446027755737305
0.6174064636230469,0.6446027755737305
0.6179861068725586,0.6477802276611327
0.6236858367919922,0.6477802276611327
0.6200672149658203,0.6444849014282227
0.6169927597045898,0.6444849014282227
0.6244966506958007,0.6520282745361328
0.6240983963012695,0.6520282745361328
0.6189840316772460,0.6474763870239257
0.6229162216186523,0.6474763870239257
0.6259895324707031,0.6515911102294921
0.6214227676391602,0.6515911102294921
0.6275899887084960,0.6548727035522460
0.6275899887084960,0.6548727035522460
0.6206439971923828,0.6522451400756836
0.6264650344848632,0.6522451400756836
0.6241127014160156,0.6492359161376953
0.6241127014160156,0.6492359161376953
0.6221763610839843,0.6503917694091796
0.6221763610839843,0.6503917694091796
0.6149042129516601,0.6365186691284179
0.6149042129516601,0.6365186691284179
0.6146965026855469,0.6294754028320312
0.6146965026855469,0.6294754028320312
0.5979148864746093,0.6091793060302734
0.5979148864746093,0.6091793060302734
0.5915880203247070,0.5897123336791992
0.5915880203247070,0.5897123336791992
0.5810686111450195,0.5790332794189453
0.5810686111450195,0.5790332794189453
0.5696754455566406,0.5611072540283203
0.5696754455566406,0.5611072540283203
0.5700084686279296,0.5587017059326171
0.5700084686279296,0.5587017059326171
0.5601562500000000,0.5510673522949219
0.5601562500000000,0.5510673522949219
0.5624141693115234,0.5462677001953125
0.5568311691284179,0.5462677001953125
0.5602907180786133,0.5488059997558593
0.5602907180786133,0.5488059997558593
0.5552925109863281,0.5406904220581055
0.5552925109863281,0.5406904220581055
0.5609155654907226,0.5446935653686523
0.5609155654907226,0.5446935653686523
0.5536417007446289,0.5414903640747070
0.5536417007446289,0.5414903640747070
0.5576917648315429,0.5393812179565429
0.5576917648315429,0.5393812179565429
0.5565370559692383,0.5441637039184570
0.5565370559692383,0.5441637039184570
0.5534963607788086,0.5377681732177734
0.5534963607788086,0.5377681732177734
0.5597665786743163,0.5434873580932617
0.5597665786743163,0.5434873580932617
0.5535673141479492,0.5418720245361328
0.5535673141479492,0.5418720245361328
0.5584327697753906,0.5418605804443359
0.5584327697753906,0.5418605804443359
0.5596864700317382,0.5490234374999999
0.5596864700317382,0.5490234374999999
0.5578216552734375,0.5449699401855469
0.5578216552734375,0.5449699401855469
0.5654754638671875,0.5530414581298828
0.5654754638671875,0.5530414581298828
0.5601007461547851,0.5535701751708985
0.5601007461547851,0.5535701751708985
0.5670673370361328,0.5554029464721679
0.5670673370361328,0.5554029464721679
0.5686265945434570,0.5635196685791015
0.5686265945434570,0.5635196685791015
0.5669614791870117,0.5599468231201171
0.5669614791870117,0.5599468231201171
0.5744087219238281,0.5681762695312500
0.5744087219238281,0.5681762695312500
0.5697229385375976,0.5682718276977539
0.5697229385375976,0.5682718276977539
0.5760509490966796,0.5693470001220703
0.5760509490966796,0.5693470001220703
0.5767581939697265,0.5767536163330078
0.5767581939697265,0.5767536163330078
0.5741987228393555,0.5722034454345702
0.5741987228393555,0.5722034454345702
0.5819698333740234,0.5794446945190429
0.5819698333740234,0.5794446945190429
0.5762237548828125,0.5787088394165039
0.5762237548828125,0.5787088394165039
0.5818708419799804,0.5789377212524414
0.5818708419799804,0.5789377212524414
0.5818548202514648,0.5857063293457031
0.5818548202514648,0.5857063293457031
0.5799110412597656,0.5807659149169921
0.5799110412597656,0.5807659149169921
0.5870773315429687,0.5876827239990234
0.5870773315429687,0.5876827239990234
0.5811761856079102,0.5868490219116210
0.5811761856079102,0.5868490219116210
0.5862831115722656,0.5871648788452148
0.5862831115722656,0.5871648788452148
0.5874195098876953,0.5940759658813476
0.5874195098876953,0.5940759658813476
0.5850185394287110,0.5894439697265624
0.5850185394287110,0.5894439697265624
0.5923404693603516,0.5967103958129882
0.5923404693603516,0.5967103958129882
0.5863969802856445,0.5964014053344726
0.5863969802856445,0.5964014053344726
0.5927427291870117,0.5971990585327148
0.5927427291870117,0.5971990585327148
0.5935998916625976,0.6045558929443359
0.5935998916625976,0.6045558929443359
0.5914907455444336,0.6002632141113281
0.5914907455444336,0.6002632141113281
0.5984567642211914,0.6079381942749024
0.5984567642211914,0.6079381942749024
0.5936124801635742,0.6077905654907226
0.5936124801635742,0.6077905654907226
0.5995994567871094,0.6086929321289062
0.5995994567871094,0.6086929321289062
0.6004096984863281,0.6161115646362304
0.6004096984863281,0.6161115646362304
0.5978994369506836,0.6118783950805664
0.5978994369506836,0.6118783950805664
0.6058130264282227,0.6194046020507812
0.6058130264282227,0.6194046020507812
0.6004440307617187,0.6190801620483398
0.6004440307617187,0.6190801620483398
0.6061614990234375,0.6198743820190430
0.6061614990234375,0.6198743820190430
0.6064733505249024,0.6270183563232422
0.6064733505249024,0.6270183563232422
0.6046428680419922,0.6224321365356446
0.6046428680419922,0.6224321365356446
0.6120174407958984,0.6296905517578125
0.6120174407958984,0.6296905517578125
0.6062175750732421,0.6290376663208007
0.6062175750732421,0.6290376663208007
0.6114795684814452,0.6296253204345703
0.6073350906372070,0.6296253204345703
0.6126142501831054,0.6365896224975586
0.6126142501831054,0.6365896224975586
0.6103420257568359,0.6317150115966796
0.6103420257568359,0.6317150115966796
0.6173681259155274,0.6388389587402343
0.6173681259155274,0.6388389587402343
0.6110441207885742,0.6380338668823242
0.6110441207885742,0.6380338668823242
0.6170768737792969,0.6384109497070313
0.6170768737792969,0.6384109497070313
0.6177137374877929,0.6451715469360352
0.6177137374877929,0.6451715469360352
0.6151330947875976,0.6401739120483398
0.6151330947875976,0.6401739120483398
0.6216716766357422,0.6471027374267578
0.6216716766357422,0.6471027374267578
0.6163776397705077,0.6460578918457031
0.6163776397705077,0.6460578918457031
0.6219509124755859,0.6462444305419922
0.6219509124755859,0.6462444305419922
0.6221837997436523,0.6528264999389648
0.6221837997436523,0.6528264999389648
0.6190567016601562,0.6475490570068360
0.6190567016601562,0.6475490570068360
0.6266263961791992,0.6543170928955078
0.6266263961791992,0.6543170928955078
0.6206130981445312,0.6532253265380860
0.6206130981445312,0.6532253265380860
0.6259860992431641,0.6529804229736328
0.6259860992431641,0.6529804229736328
0.6256124496459960,0.6591396331787109
0.6256124496459960,0.6591396331787109
0.6232629776000976,0.6534713745117188
0.6232629776000976,0.6534713745117188
0.6297100067138671,0.6591190338134766
0.6297100067138671,0.6591190338134766
0.6224241256713867,0.6558271408081054
0.6224241256713867,0.6558271408081054
0.6251644134521485,0.6517049789428710
0.6251644134521485,0.6517049789428710
0.6224784851074219,0.6515115737915039
0.6224784851074219,0.6515115737915039
0.6142936706542969,0.6357639312744140
0.6142936706542969,0.6357639312744140
0.6128030776977539,0.6262990951538085
0.6128030776977539,0.6262990951538085
0.5947626113891601,0.6045415878295898
0.5947626113891601,0.6045415878295898
0.5890314102172851,0.5864868164062500
0.5890314102172851,0.5864868164062500
0.5791151046752929,0.5773252487182617
0.5791151046752929,0.5773252487182617
0.5688085556030273,0.5606821060180663
0.5688085556030273,0.5606821060180663
0.5699254989624023,0.5594638824462891
0.5699254989624023,0.5594638824462891
0.5605287551879883,0.5525722503662109
0.5605287551879883,0.5525722503662109
0.5631586074829101,0.5482292175292969
0.5575447082519531,0.5482292175292969
0.5612022399902343,0.5512350082397460
0.5612022399902343,0.5512350082397460
0.5563579559326172,0.5432870864868163
0.5563579559326172,0.5432870864868163
0.5624015808105468,0.5477777481079101
0.5589351654052734,0.5477777481079101
0.5552072525024414,0.5446598052978515
0.5552072525024414,0.5446598052978515
0.5596035003662109,0.5430507659912109
0.5596035003662109,0.5430507659912109
0.5587028503417969,0.5482772827148438
0.5587028503417969,0.5482772827148438
0.5558132171630860,0.5423377990722656
0.5558132171630860,0.5423377990722656
0.5626831054687500,0.5487550735473633
0.5626831054687500,0.5487550735473633
0.5567253112792968,0.5478836059570312
0.5567253112792968,0.5478836059570312
0.5623947143554687,0.5486881256103515
0.5623947143554687,0.5486881256103515
0.5639047622680664,0.5566280364990234
0.5639047622680664,0.5566280364990234
0.5624353408813476,0.5530254364013671
0.5624353408813476,0.5530254364013671
0.5703140258789062,0.5616176605224609
0.5703140258789062,0.5616176605224609
0.5650531768798828,0.5622018814086914
0.5650531768798828,0.5622018814086914
0.5721239089965821,0.5639104843139648
0.5721239089965821,0.5639104843139648
0.5734010696411133,0.5720569610595703
0.5734010696411133,0.5720569610595703
0.5716638565063477,0.5681344985961914
0.5716638565063477,0.5681344985961914
0.5790086746215820,0.5760950088500977
0.5790086746215820,0.5760950088500977
0.5740762710571289,0.5759468078613281
0.5740762710571289,0.5759468078613281
0.5800924301147461,0.5767416000366211
0.5800924301147461,0.5767416000366211
0.5807956695556641,0.5837574005126953
0.5807956695556641,0.5837574005126953
0.5778402328491211,0.5787620544433594
0.5778402328491211,0.5787620544433594
0.5854185104370117,0.5857315063476562
0.5828001022338867,0.5857315063476562
0.5795328140258789,0.5847295761108399
0.5795328140258789,0.5847295761108399
0.5850408554077148,0.5847587585449219
0.5850408554077148,0.5847587585449219
0.5850969314575195,0.5914266586303710
0.5850969314575195,0.5914266586303710
0.5828481674194336,0.5862819671630859
0.5828481674194336,0.5862819671630859
0.5900739669799805,0.5932508468627929
0.5900739669799805,0.5932508468627929
0.5841287612915039,0.5923702239990234
0.5841287612915039,0.5923702239990234
0.5893970489501953,0.5927473068237304
0.5893970489501953,0.5927473068237304
0.5904991149902343,0.5997659683227539
0.5904991149902343,0.5997659683227539
0.5881685256958008,0.5950830459594726
0.5881685256958008,0.5950830459594726
0.5955047607421875,0.6024370193481445
0.5955047607421875,0.6024370193481445
0.5893157958984375,0.6020061492919921
0.5893157958984375,0.6020061492919921
0.5958160400390625,0.6027654647827149
0.5958160400390625,0.6027654647827149
0.5966102600097656,0.6102024078369140
0.5966102600097656,0.6102024078369140
0.5944501876831054,0.6056671142578125
0.5944501876831054,0.6056671142578125
0.6015403747558593,0.6132688522338867
0.6015403747558593,0.6132688522338867
0.5963338851928711,0.6129112243652344
0.5963338851928711,0.6129112243652344
0.6023677825927735,0.6138313293457031
0.6023677825927735,0.6138313293457031
0.6030841827392578,0.6210416793823242
0.6030841827392578,0.6210416793823242
0.6004182815551757,0.6163913726806640
0.6004182815551757,0.6163913726806640
0.6082311630249023,0.6237905502319335
0.6082311630249023,0.6237905502319335
0.6025857925415039,0.6232469558715820
0.6025857925415039,0.6232469558715820
0.6084342956542969,0.6238798141479492
0.6084342956542969,0.6238798141479492
0.6085212707519531,0.6308635711669922
0.6085212707519531,0.6308635711669922
0.6066335678100586,0.6259632110595703
0.6066335678100586,0.6259632110595703
0.6139251708984375,0.6332805633544921
0.6139251708984375,0.6332805633544921
0.6079719543457031,0.6323787689208984
0.6079719543457031,0.6323787689208984
0.6133701324462890,0.6328674316406250
0.6133701324462890,0.6328674316406250
0.6142833709716796,0.6398408889770507
0.6142833709716796,0.6398408889770507
0.6118326187133789,0.6347522735595703
0.6118326187133789,0.6347522735595703
0.6190710067749023,0.6418933868408203
0.6190710067749023,0.6418933868408203
0.6125850677490234,0.6408576965332031
0.6125850677490234,0.6408576965332031
0.6188415527343750,0.6411500930786133
0.6188415527343750,0.6411500930786133
0.6191871643066406,0.6479942321777343
0.6191871643066406,0.6479942321777343
0.6166637420654296,0.6426435470581054
0.6166637420654296,0.6426435470581054
0.6166986465454102,0.6450073242187500
0.6176330566406250,0.6450073242187500
0.6246459960937499,0.6529415130615234
0.6240571975708008,0.6529415130615234
0.6186326980590821,0.6479255676269531
0.6225242614746094,0.6479255676269531
0.6258316040039062,0.6519332885742187
0.6210033416748046,0.6519332885742187
0.6212213516235351,0.6541213989257812
0.6267116546630859,0.6541213989257812
0.6225219726562500,0.6489149093627929
0.6183494567871094,0.6489149093627929
0.6250368118286133,0.6531372070312500
0.6232641220092773,0.6531372070312500
0.6163335800170898,0.6425897598266601
0.6180147171020508,0.6425897598266601
0.6188346862792968,0.6377763748168945
0.6108718872070312,0.6377763748168945
0.6074272155761719,0.6264770507812499
0.6080045700073242,0.6264770507812499
0.5984664916992187,0.6036014556884766
0.5892934799194336,0.6036014556884766
0.5915565490722656,0.5933218002319336
0.5855352401733398,0.5933218002319336
0.5754375457763672,0.5725038528442382
0.5748098373413085,0.5725038528442382
0.5750467300415039,0.5650817871093750
0.5670787811279296,0.5650817871093750
0.5650588989257812,0.5594959259033203
0.5686019897460938,0.5594959259033203
0.5628387451171875,0.5497764587402344
0.5581111907958984,0.5497764587402344
0.5642721176147460,0.5529893875122071
0.5627122879028320,0.5529893875122071
0.5567178726196289,0.5446638107299805
0.5593437194824219,0.5446638107299805
0.5618579864501952,0.5458219528198242
0.5564008712768554,0.5458219528198242
0.5559946060180664,0.5464565277099609
0.5612091064453125,0.5464565277099609
0.5565879821777343,0.5407024383544922
0.5529596328735351,0.5407024383544922
0.5603256225585938,0.5468788146972656
0.5591903686523437,0.5468788146972656
0.5535301208496094,0.5403968811035156
0.5568849563598632,0.5403968811035156
0.5601081848144531,0.5436693191528320
0.5552461624145507,0.5436693191528320
0.5553794860839844,0.5460245132446289
0.5612222671508789,0.5460245132446289
0.5575344085693359,0.5424081802368164
0.5545486450195313,0.5424081802368164
0.5622104644775391,0.5506267547607422
0.5621280670166016,0.5506267547607422
0.5572139739990234,0.5468296051025391
0.5614803314208984,0.5468296051025391
0.5653850555419921,0.5526203155517578
0.5612360000610351,0.5526203155517578
0.5623712539672852,0.5572689056396484
0.5686059951782226,0.5572689056396484
0.5651721954345703,0.5552318572998046
0.5627214431762695,0.5552318572998046
0.5708518981933594,0.5647356033325195
0.5710269927978515,0.5647356033325195
0.5662382125854492,0.5614196777343750
0.5705314636230469,0.5614196777343750
0.5747720718383789,0.5672527313232422
0.5703878402709961,0.5672527313232422
0.5710664749145508,0.5711614608764648
0.5773200988769531,0.5711614608764648
0.5735000610351563,0.5685974121093750
0.5709096908569335,0.5685974121093750
0.5787626266479492,0.5772903442382812
0.5785194396972656,0.5772903442382812
0.5737815856933594,0.5730783462524414
0.5775627136230469,0.5730783462524414
0.5811653137207031,0.5776119232177734
0.5765642166137696,0.5776119232177734
0.5770540237426758,0.5808391571044922
0.5830146789550781,0.5808391571044922
0.5790275573730469,0.5773841857910156
0.5761413574218750,0.5773841857910156
0.5840246200561523,0.5855123519897460
0.5836132049560546,0.5855123519897460
0.5783231735229492,0.5805799484252929
0.5821329116821289,0.5805799484252929
0.5857669830322265,0.5850185394287110
0.5811813354492187,0.5850185394287110
0.5815074920654296,0.5882869720458984
0.5875825881958008,0.5882869720458984
0.5838249206542968,0.5849452972412109
0.5807630538940429,0.5849452972412109
0.5883550643920898,0.5930912017822265
0.5882766723632812,0.5930912017822265
0.5831577301025390,0.5886606216430664
0.5871448516845703,0.5886606216430664
0.5908149719238281,0.5935575485229492
0.5863380432128906,0.5935575485229492
0.5870813369750977,0.5973192214965820
0.5932010650634766,0.5973192214965820
0.5893638610839843,0.5943042755126953
0.5865125656127930,0.5943042755126953
0.5943935394287109,0.6029611587524414
0.5943494796752929,0.6029611587524414
0.5893112182617187,0.5990289688110352
0.5934545516967773,0.5990289688110352
0.5974765777587890,0.6042966842651367
0.5929189682006836,0.6042966842651367
0.5935003280639648,0.6080841064453125
0.5997241973876953,0.6080841064453125
0.5960454940795898,0.6055955886840820
0.5933464050292968,0.6055955886840820
0.6010894775390625,0.6143308639526367
0.6010854721069335,0.6143308639526367
0.5964145660400391,0.6104896545410156
0.6002758026123046,0.6104896545410156
0.6039876937866211,0.6154426574707031
0.5996206283569335,0.6154426574707031
0.6001522064208984,0.6193817138671874
0.6063583374023437,0.6193817138671874
0.6025491714477539,0.6165481567382812
0.5998071670532227,0.6165481567382812
0.6078271865844727,0.6251409530639648
0.6074432373046875,0.6251409530639648
0.6023317337036133,0.6207304000854492
0.6063892364501953,0.6207304000854492
0.6101005554199218,0.6257434844970703
0.6057065963745117,0.6257434844970703
0.6059841156005860,0.6293586730957031
0.6121833801269531,0.6293586730957031
0.6087696075439453,0.6262521743774414
0.6056442260742188,0.6262521743774414
0.6132225036621094,0.6345405578613281
0.6131315231323242,0.6345405578613281
0.6080331802368164,0.6302118301391602
0.6120134353637695,0.6302118301391602
0.6154884338378906,0.6348724365234375
0.6110830307006836,0.6348724365234375
0.6117879867553710,0.6383571624755859
0.6175558090209960,0.6383571624755859
0.6137386322021484,0.6349800109863281
0.6107803344726562,0.6349800109863281
0.6185623168945312,0.6433135986328125
0.6182790756225586,0.6433135986328125
0.6130279541015625,0.6387508392333984
0.6169830322265625,0.6387508392333984
0.6208545684814453,0.6433868408203125
0.6161888122558593,0.6433868408203125
0.6164422988891601,0.6464092254638671
0.6223737716674804,0.6464092254638671
0.6184524536132813,0.6430023193359374
0.6155307769775390,0.6430023193359374
0.6229728698730469,0.6509353637695312
0.6226839065551758,0.6509353637695312
0.6176937103271484,0.6459692001342773
0.6210720062255859,0.6459692001342773
0.6243707656860351,0.6494115829467774
0.6195516586303711,0.6494115829467774
0.6192518234252929,0.6508340835571289
0.6244703292846679,0.6508340835571289
0.6196065902709961,0.6440351486206054
0.6150781631469726,0.6440351486206054
0.6211664199829101,0.6460229873657226
0.6183586120605469,0.6460229873657226
0.6102510452270508,0.6311639785766602
0.6103191375732422,0.6311639785766602
0.6095535278320312,0.6199527740478515
0.5992200851440429,0.6199527740478515
0.5935667037963867,0.6024496078491210
0.5931610107421875,0.6024496078491210
0.5839159011840820,0.5803264617919922
0.5747892379760742,0.5803264617919922
0.5776227951049805,0.5724025726318359
0.5731510162353516,0.5724025726318359
0.5645175933837890,0.5563751220703125
0.5652019500732421,0.5563751220703125
0.5665042877197265,0.5528326034545898
0.5596813201904297,0.5528326034545898
0.5584997177124024,0.5499040603637695
0.5627008438110351,0.5499040603637695
0.5574028015136718,0.5418788909912109
0.5530900955200195,0.5418788909912109
0.5595531463623047,0.5461257934570313
0.5582714080810547,0.5461257934570313
0.5519479751586914,0.5381240844726562
0.5547992706298828,0.5381240844726562
0.5579349517822265,0.5398944854736328
0.5521694183349609,0.5398944854736328
0.5516916275024414,0.5402606964111328
0.5570068359375000,0.5402606964111328
0.5524045944213867,0.5347217559814453
0.5487373352050781,0.5347217559814453
0.5556467056274413,0.5406995773315429
0.5549480438232421,0.5406995773315429
0.5495023727416992,0.5344717025756835
0.5525876998901367,0.5344717025756835
0.5558280944824219,0.5374906539916992
0.5510004043579101,0.5374906539916992
0.5509437561035156,0.5397525787353515
0.5568014144897461,0.5397525787353515
0.5529344558715820,0.5359313964843749
0.5498004913330078,0.5359313964843749
0.5578840255737304,0.5442214965820312
0.5576276779174805,0.5442214965820312
0.5524978637695312,0.5400913238525390
0.5567258834838867,0.5400913238525390
0.5606866836547851,0.5457595825195313
0.5565650939941406,0.5457595825195313
0.5570880889892578,0.5499824523925781
0.5636266708374024,0.5499824523925781
0.5605682373046875,0.5480009078979492
0.5578004837036132,0.5480009078979492
0.5656929016113281,0.5571882247924804
0.5659584045410156,0.5571882247924804
0.5610551834106445,0.5537395477294922
0.5652626037597656,0.5537395477294922
0.5692651748657226,0.5592481613159179
0.5650663375854492,0.5592481613159179
0.5657255172729492,0.5632421493530273
0.5718452453613281,0.5632421493530273
0.5682386398315430,0.5603450775146485
0.5653129577636719,0.5603450775146485
0.5730875015258788,0.5689161300659179
0.5730703353881835,0.5689161300659179
0.5678037643432617,0.5644226074218750
0.5716844558715820,0.5644226074218750
0.5757179260253906,0.5691873550415039
0.5709989547729492,0.5691873550415039
0.5710784912109375,0.5720478057861328
0.5770917892456054,0.5720478057861328
0.5732231140136719,0.5686014175415038
0.5702070236206055,0.5686014175415038
0.5777555465698242,0.5765098571777344
0.5775169372558594,0.5765098571777344
0.5725507736206055,0.5716569900512695
0.5759937286376953,0.5716569900512695
0.5797433853149414,0.5759531021118164
0.5751016616821288,0.5759531021118164
0.5753288269042969,0.5788970947265625
0.5813472747802734,0.5788970947265625
0.5775764465332031,0.5756904602050781
0.5746421813964844,0.5756904602050781
0.5824710845947265,0.5838947296142578
0.5821952819824219,0.5838947296142578
0.5769710540771484,0.5793045043945312
0.5808185577392578,0.5793045043945312
0.5847146987915038,0.5841556549072265
0.5802286148071288,0.5841556549072265
0.5804592132568359,0.5876111984252930
0.5866607666015625,0.5876111984252930
0.5833711624145508,0.5848062515258788
0.5802846908569336,0.5848062515258788
0.5879362106323242,0.5932537078857422
0.5880477905273437,0.5932537078857422
0.5829168319702148,0.5891910552978515
0.5867918014526367,0.5891910552978515
0.5908418655395508,0.5944496154785156
0.5863878250122070,0.5944496154785156
0.5872249603271484,0.5982479095458985
0.5933092117309570,0.5982479095458985
0.5896064758300781,0.5955476760864258
0.5868204116821288,0.5955476760864258
0.5946035385131836,0.6045106887817383
0.5947923660278320,0.6045106887817383
0.5897266387939453,0.6005264282226562
0.5936960220336914,0.6005264282226562
0.5979297637939452,0.6059429168701171
0.5934442520141602,0.6059429168701171
0.5937480926513672,0.6094367980957031
0.6000274658203125,0.6094367980957031
0.5964849472045898,0.6069608688354492
0.5936565399169922,0.6069608688354492
0.6013395309448242,0.6157155990600586
0.6014499664306641,0.6157155990600586
0.5967350006103516,0.6117691040039063
0.6004468917846679,0.6117691040039063
0.6042903900146485,0.6167987823486328
0.5999525070190429,0.6167987823486328
0.6001922607421875,0.6204196929931640
0.6065156936645507,0.6204196929931640
0.6028215408325195,0.6176914215087891
0.5999479293823242,0.6176914215087891
0.6078998565673828,0.6261205673217773
0.6076211929321289,0.6261205673217773
0.6024805068969726,0.6218130111694335
0.6063302993774414,0.6218130111694335
0.6102888107299804,0.6268335342407226
0.6058925628662110,0.6268335342407226
0.6059967041015625,0.6302690505981445
0.6122783660888672,0.6302690505981445
0.6088909149169922,0.6272449493408203
0.6056957244873047,0.6272449493408203
0.6132087707519531,0.6355424880981445
0.6131664276123047,0.6355424880981445
0.6080526351928711,0.6311101913452148
0.6117605209350586,0.6311101913452148
0.6156263351440430,0.6359001159667969
0.6111391067504882,0.6359001159667969
0.6114738464355468,0.6402128219604492
0.6175643920898437,0.6402128219604492
0.6180582046508789,0.6388309478759765
0.6180582046508789,0.6440820693969727
0.6166540145874023,0.6389596939086913
0.6166540145874023,0.6389596939086913
0.6166139602661133,0.6446622848510742
0.6166139602661133,0.6446622848510742
0.6136299133300781,0.6374530792236328
0.6136299133300781,0.6374530792236328
0.6183471679687500,0.6405012130737304
0.6183471679687500,0.6405012130737304
0.6079679489135742,0.6322076797485351
0.6079679489135742,0.6322076797485351
0.6082546234130859,0.6208591461181641
0.6082546234130859,0.6208591461181641
0.5984968185424805,0.6092880249023437
0.5984968185424805,0.6092880249023437
0.5839130401611328,0.5839525222778320
0.5839130401611328,0.5839525222778320
0.5789182662963867,0.5732797622680664
0.5789182662963867,0.5732797622680664
0.5642549514770507,0.5588310241699218
0.5642549514770507,0.5588310241699218
0.5639545440673828,0.5497123718261718
0.5639545440673828,0.5497123718261718
0.5589929580688476,0.5495172500610351
0.5589929580688476,0.5495172500610351
0.5529928207397461,0.5388639450073242
0.5529928207397461,0.5388639450073242
0.5577999114990234,0.5420957565307617
0.5577999114990234,0.5420957565307617
0.5494989395141602,0.5374557495117187
0.5494989395141602,0.5374557495117187
0.5534832000732421,0.5347532272338867
0.5534832000732421,0.5347532272338867
0.5511812210083008,0.5386596679687500
0.5511812210083008,0.5386596679687500
0.5477714538574219,0.5309217453002929
0.5477714538574219,0.5309217453002929
0.5536972045898437,0.5359125137329102
0.5536972045898437,0.5359125137329102
0.5524789810180664,0.5329421997070313
0.5507440567016602,0.5316146850585938
0.5507440567016602,0.5316146850585938
0.5503108978271484,0.5371850967407227
0.5503108978271484,0.5371850967407227
0.5477622985839844,0.5310653686523438
0.5477622985839844,0.5310653686523438
0.5545429229736328,0.5380571365356445
0.5545429229736328,0.5380571365356445
0.5483001708984375,0.5371702194213867
0.5483001708984375,0.5371702194213867
0.5551179885864258,0.5383243560791016
0.5551179885864258,0.5383243560791016
0.5558137893676758,0.5460273742675781
0.5558137893676758,0.5460273742675781
0.5542064666748047,0.5418937683105468
0.5542064666748047,0.5418937683105468
0.5616765975952148,0.5503377914428711
0.5616765975952148,0.5503377914428711
0.5568666458129883,0.5503051757812499
0.5568666458129883,0.5503051757812499
0.5635408401489258,0.5518129348754882
0.5635408401489258,0.5518129348754882
0.5639556884765625,0.5591531753540039
0.5639556884765625,0.5591531753540039
0.5617366790771484,0.5544696807861328
0.5617366790771484,0.5544696807861328
0.5696783065795898,0.5621898651123046
0.5696783065795898,0.5621898651123046
0.5638629913330078,0.5613052368164062
0.5638629913330078,0.5613052368164062
0.5697978973388672,0.5616405487060546
0.5697978973388672,0.5616405487060546
0.5692199707031250,0.5681545257568359
0.5692199707031250,0.5681545257568359
0.5673906326293945,0.5625715255737305
0.5673906326293945,0.5625715255737305
0.5742319107055663,0.5694528579711914
0.5742319107055663,0.5694528579711914
0.5679004669189452,0.5678180694580078
0.5679004669189452,0.5678180694580078
0.5732688903808594,0.5679525375366211
0.5732688903808594,0.5679525375366211
0.5734170913696289,0.5742971420288085
0.5734170913696289,0.5742971420288085
0.5712272644042968,0.5688257217407227
0.5712272644042968,0.5688257217407227
0.5781532287597656,0.5758758544921875
0.5781532287597656,0.5758758544921875
0.5716089248657227,0.5746891021728515
0.5716089248657227,0.5746891021728515
0.5781246185302734,0.5752183914184570
0.5781246185302734,0.5752183914184570
0.5780605316162110,0.5820493698120117
0.5780605316162110,0.5820493698120117
0.5760354995727539,0.5769916534423828
0.5760354995727539,0.5769916534423828
0.5829488754272460,0.5845521926879883
0.5829488754272460,0.5845521926879883
0.5776216506958007,0.5838495254516601
0.5776216506958007,0.5838495254516601
0.5840034484863281,0.5848377227783202
0.5840034484863281,0.5848377227783202
0.5839210510253906,0.5919084548950195
0.5839210510253906,0.5919084548950195
0.5818084716796875,0.5871442794799805
0.5818084716796875,0.5871442794799805
0.5896482467651367,0.5949394226074218
0.5896482467651367,0.5949394226074218
0.5840572357177735,0.5944610595703125
0.5840572357177735,0.5944610595703125
0.5903989791870117,0.5954555511474610
0.5903989791870117,0.5954555511474610
0.5900625228881836,0.6027019500732421
0.5900625228881836,0.6027019500732421
0.5888477325439453,0.5980104446411133
0.5888477325439453,0.5980104446411133
0.5963836669921875,0.6059051513671875
0.5963836669921875,0.6059051513671875
0.5905740737915038,0.6054044723510742
0.5905740737915038,0.6054044723510742
0.5965478897094726,0.6065277099609375
0.5965478897094726,0.6065277099609375
0.5970966339111328,0.6137506484985351
0.5970966339111328,0.6137506484985351
0.5954057693481445,0.6090299606323242
0.5954057693481445,0.6090299606323242
0.6026796340942383,0.6167810440063476
0.6026796340942383,0.6167810440063476
0.5965822219848632,0.6159633636474610
0.5965822219848632,0.6159633636474610
0.6032478332519531,0.6170207977294921
0.6032478332519531,0.6170207977294921
0.6033147811889649,0.6238929748535156
0.6033147811889649,0.6238929748535156
0.6013578414916992,0.6189273834228516
0.6013578414916992,0.6189273834228516
0.6080858230590820,0.6264999389648437
0.6080858230590820,0.6264999389648437
0.6026573181152344,0.6253812789916992
0.6093297958374023,0.6253812789916992
0.6086940765380859,0.6261766433715820
0.6086940765380859,0.6261766433715820
0.6085298538208007,0.6326763153076171
0.6085298538208007,0.6326763153076171
0.6059154510498047,0.6271928787231446
0.6059154510498047,0.6271928787231446
0.6132963180541992,0.6340936660766602
0.6132963180541992,0.6340936660766602
0.6065866470336914,0.6314540863037109
0.6065866470336914,0.6314540863037109
0.6109537124633789,0.6290760040283203
0.6109537124633789,0.6290760040283203
0.6073076248168945,0.6299222946166992
0.6073076248168945,0.6299222946166992
0.6008325576782226,0.6150506973266602
0.6008325576782226,0.6150506973266602
0.5995719909667968,0.6065689086914062
0.5995719909667968,0.6065689086914062
0.5817867279052734,0.5858619689941406
0.5817867279052734,0.5858619689941406
0.5757917404174805,0.5684274673461914
0.5757917404174805,0.5684274673461914
0.5667297363281250,0.5613550186157227
0.5667297363281250,0.5613550186157227
0.5580928802490234,0.5459856033325196
0.5580928802490234,0.5459856033325196
0.5601064682006835,0.5460090637207031
0.5601064682006835,0.5460090637207031
0.5500162124633788,0.5393423080444336
0.5500162124633788,0.5393423080444336
0.5536909103393555,0.5357265472412109
0.5536909103393555,0.5357265472412109
0.5510507583618164,0.5386516571044921
0.5510507583618164,0.5386516571044921
0.5470985412597656,0.5301658630371093
0.5470985412597656,0.5301658630371093
0.5520051956176758,0.5347377777099609
0.5520051956176758,0.5347377777099609
0.5447696685791016,0.5310344696044922
0.5447696685791016,0.5310344696044922
0.5494285583496094,0.5295118331909180
0.5494285583496094,0.5295118331909180
0.5479505538940429,0.5341547012329101
0.5479505538940429,0.5341547012329101
0.5444744110107421,0.5270862579345703
0.5444744110107421,0.5270862579345703
0.5511245727539062,0.5332197189331055
0.5511245727539062,0.5332197189331055
0.5446660995483398,0.5312805175781250
0.5446660995483398,0.5312805175781250
0.5504344940185547,0.5316089630126953
0.5504344940185547,0.5316089630126953
0.5497993469238281,0.5382471084594727
0.5497993469238281,0.5382471084594727
0.5486927032470703,0.5337787628173828
0.5486927032470703,0.5337787628173828
0.5565439224243164,0.5420419692993164
0.5565439224243164,0.5420419692993164
0.5511039733886719,0.5419984817504883
0.5511039733886719,0.5419984817504883
0.5575984954833985,0.5438426971435547
0.5575984954833985,0.5438426971435547
0.5584184646606445,0.5513139724731445
0.5584184646606445,0.5513139724731445
0.5572242736816406,0.5471088409423828
0.5572242736816406,0.5471088409423828
0.5647018432617187,0.5550596237182617
0.5647018432617187,0.5550596237182617
0.5587171554565430,0.5544553756713867
0.5587171554565430,0.5544553756713867
0.5654119491577149,0.5553503036499023
0.5654119491577149,0.5553503036499023
0.5653106689453125,0.5620319366455078
0.5653106689453125,0.5620319366455078
0.5632833480834961,0.5565330505371093
0.5632833480834961,0.5565330505371093
0.5697818756103515,0.5635957717895508
0.5697818756103515,0.5635957717895508
0.5640352249145507,0.5621131896972656
0.5640352249145507,0.5621131896972656
0.5698207855224610,0.5623620986938477
0.5698207855224610,0.5623620986938477
0.5692010879516601,0.5682603836059570
0.5692010879516601,0.5682603836059570
0.5665082931518555,0.5624256134033203
0.5665082931518555,0.5624256134033203
0.5738943099975585,0.5694511413574218
0.5738943099975585,0.5694511413574218
0.5677270889282227,0.5680440902709961
0.5677270889282227,0.5680440902709961
0.5735578536987305,0.5684566497802734
0.5735578536987305,0.5684566497802734
0.5727756500244140,0.5748836517333984
0.5727756500244140,0.5748836517333984
0.5713754653930664,0.5695678710937500
0.5713754653930664,0.5695678710937500
0.5784461975097656,0.5770471572875976
0.5784461975097656,0.5770471572875976
0.5724924087524413,0.5758924484252930
0.5724924087524413,0.5758924484252930
0.5783952713012696,0.5769996643066406
0.5783952713012696,0.5769996643066406
0.5786842346191406,0.5838615417480468
0.5786842346191406,0.5838615417480468
0.5771627426147461,0.5789680480957031
0.5770219802856446,0.5789680480957031
0.5844131469726562,0.5868844985961914
0.5844131469726562,0.5868844985961914
0.5783002853393554,0.5861263275146484
0.5783002853393554,0.5861263275146484
0.5851724624633788,0.5873588562011719
0.5851724624633788,0.5873588562011719
0.5850814819335938,0.5943769454956055
0.5850814819335938,0.5943769454956055
0.5836097717285156,0.5895641326904296
0.5836097717285156,0.5895641326904296
0.5904796600341796,0.5975320816040038
0.5904796600341796,0.5975320816040038
0.5852136611938477,0.5968305587768554
0.5852136611938477,0.5968305587768554
0.5918821334838867,0.5981718063354492
0.5918821334838867,0.5981718063354492
0.5916629791259765,0.6052156448364258
0.5916629791259765,0.6052156448364258
0.5897815704345702,0.6005699157714843
0.5897815704345702,0.6005699157714843
0.5976465225219726,0.6085865020751953
0.5976465225219726,0.6085865020751953
0.5920331954956054,0.6079828262329101
0.5920331954956054,0.6079828262329101
0.5984001159667969,0.6091890335083008
0.5940221786499024,0.6091890335083008
0.5978050231933594,0.6161745071411132
0.5978050231933594,0.6161745071411132
0.5968008041381836,0.6113456726074219
0.5968008041381836,0.6113456726074219
0.6040763854980469,0.6190515518188476
0.6040763854980469,0.6190515518188476
0.5981100082397460,0.6182481765747070
0.5981100082397460,0.6182481765747070
0.6040065765380859,0.6192277908325196
0.6040065765380859,0.6192277908325196
0.6042125701904296,0.6258882522583008
0.6042125701904296,0.6258882522583008
0.6024621963500977,0.6207595825195312
0.6024621963500977,0.6207595825195312
0.6094722747802734,0.6282142639160156
0.6094722747802734,0.6282142639160156
0.6031122207641602,0.6268655776977539
0.6031122207641602,0.6268655776977539
0.6094345092773438,0.6271854400634765
0.6094345092773438,0.6271854400634765
0.6086008071899414,0.6326934814453125
0.6086008071899414,0.6326934814453125
0.6054468154907227,0.6250242233276367
0.6054468154907227,0.6250242233276367
0.6045083999633789,0.6196334838867187
0.6045083999633789,0.6196334838867187
0.6045083999633789,0.6197233200073242
0.6032775878906250,0.6171117782592773
0.5991680145263671,0.6171117782592773
0.5887538909912109,0.5951860427856445
0.5860141754150391,0.5951860427856445
0.5842563629150390,0.5805198669433593
0.5738365173339843,0.5805198669433593
0.5682964324951172,0.5661741256713867
0.5698843002319336,0.5661741256713867
0.5628890991210938,0.5504213333129883
0.5559671401977538,0.5504213333129883
0.5603908538818360,0.5491865158081054
0.5582817077636718,0.5491865158081054
0.5507646560668945,0.5376600265502930
0.5522815704345703,0.5376600265502930
0.5548175811767578,0.5372211456298828
0.5489793777465820,0.5372211456298828
0.5476472854614257,0.5359159469604492
0.5526311874389648,0.5359159469604492
0.5480770111083985,0.5291187286376953
0.5436973571777344,0.5291187286376953
0.5500190734863281,0.5341066360473633
0.5494405746459960,0.5341066360473633
0.5430616378784180,0.5263938903808594
0.5455335617065430,0.5263938903808594
0.5492254257202148,0.5286592483520508
0.5438673019409179,0.5286592483520508
0.5428253173828125,0.5290094375610351
0.5484992980957031,0.5290094375610351
0.5443908691406250,0.5240123748779296
0.5405994415283203,0.5240123748779296
0.5473136901855469,0.5303987503051758
0.5472639083862304,0.5303987503051758
0.5415687561035156,0.5242441177368163
0.5442821502685546,0.5242441177368163
0.5482749938964844,0.5278650283813476
0.5436058044433594,0.5278650283813476
0.5431531906127930,0.5300806045532226
0.5495229721069336,0.5300806045532226
0.5459072113037109,0.5269426345825196
0.5427360534667969,0.5269426345825196
0.5505752563476562,0.5357728958129883
0.5511199951171875,0.5357728958129883
0.5457481384277344,0.5315185546875000
0.5494697570800781,0.5315185546875000
0.5540084838867188,0.5373945236206055
0.5499881744384766,0.5373945236206055
0.5499687194824219,0.5413330078124999
0.5567647933959960,0.5413330078124999
0.5539197921752930,0.5393869400024414
0.5508172988891601,0.5393869400024414
0.5585472106933593,0.5485113143920898
0.5593803405761718,0.5485113143920898
0.5539627075195312,0.5445945739746093
0.5576562881469727,0.5445945739746093
0.5621292114257812,0.5500167846679688
0.5579572677612304,0.5500167846679688
0.5579257965087890,0.5533830642700195
0.5643808364868164,0.5533830642700195
0.5609155654907226,0.5504682540893554
0.5576053619384765,0.5504682540893554
0.5650337219238281,0.5588161468505859
0.5655956268310547,0.5588161468505859
0.5598764419555664,0.5537595748901367
0.5631431579589844,0.5537595748901367
0.5677494049072266,0.5584224700927735
0.5629205703735352,0.5584224700927735
0.5624050140380860,0.5606758117675781
0.5688234329223633,0.5606758117675781
0.5653730392456054,0.5574502944946289
0.5619220733642578,0.5574502944946289
0.5691307067871093,0.5652317047119141
0.5695072174072265,0.5652317047119141
0.5641914367675781,0.5601940155029297
0.5672567367553710,0.5601940155029297
0.5713685989379883,0.5646337509155274
0.5669523239135742,0.5646337509155274
0.5665203094482422,0.5672418594360351
0.5730062484741211,0.5672418594360351
0.5695455551147460,0.5641811370849609
0.5661626815795898,0.5641811370849609
0.5737192153930664,0.5724546432495117
0.5740201950073242,0.5724546432495117
0.5685064315795898,0.5676555633544922
0.5719842910766602,0.5676555633544922
0.5763650894165039,0.5728322982788085
0.5720197677612304,0.5728322982788085
0.5716798782348632,0.5758283615112304
0.5783575057983398,0.5758283615112304
0.5752744674682617,0.5731910705566406
0.5720300674438477,0.5731910705566406
0.5793313980102539,0.5816356658935546
0.5798543930053711,0.5816356658935546
0.5745557785034180,0.5773813247680664
0.5780942916870117,0.5773813247680664
0.5824138641357421,0.5829431533813476
0.5782247543334961,0.5829431533813476
0.5782510757446289,0.5862293243408203
0.5848159790039062,0.5862293243408203
0.5815189361572265,0.5836904525756835
0.5785320281982421,0.5836904525756835
0.5858945846557617,0.5926694869995117
0.5865016937255859,0.5926694869995117
0.5812768936157227,0.5884695053100586
0.5847261428833007,0.5884695053100586
0.5895532608032227,0.5939718246459961
0.5852239608764648,0.5939718246459961
0.5848583221435547,0.5973175048828124
0.5917116165161133,0.5973175048828124
0.5884683609008788,0.5951082229614257
0.5854145050048828,0.5951082229614257
0.5928028106689452,0.6040472030639649
0.5933830261230468,0.6040472030639649
0.5884077072143554,0.5999313354492187
0.5917625427246094,0.5999313354492187
0.5961702346801757,0.6053163528442382
0.5920984268188476,0.6053163528442382
0.5918369293212891,0.6087289810180664
0.5985511779785156,0.6087289810180664
0.5953056335449218,0.6063652038574219
0.5921813964843750,0.6063652038574219
0.5997550964355468,0.6153579711914062
0.6001813888549804,0.6153579711914062
0.5947259902954102,0.6107940673828125
0.5983732223510742,0.6107940673828125
0.6028438568115234,0.6161682128906250
0.5984899520874023,0.6161682128906250
0.5981151580810546,0.6192964553833008
0.6047904968261718,0.6192964553833008
0.6018447875976562,0.6168050765991211
0.5983818054199218,0.6168050765991211
0.6055984497070312,0.6252119064331054
0.6061740875244140,0.6252119064331054
0.6007278442382812,0.6205232620239257
0.6041376113891601,0.6205232620239257
0.6083604812622070,0.6255964279174805
0.6040157318115235,0.6255964279174805
0.6038022994995117,0.6282932281494140
0.6102481842041015,0.6282932281494140
0.6066169738769531,0.6249469757080078
0.6031574249267578,0.6249469757080078
0.6101692199707031,0.6324583053588867
0.6101749420166015,0.6324583053588867
0.6040969848632812,0.6255495071411132
0.6064167022705078,0.6255495071411132
0.6098791122436523,0.6263912200927734
0.6035299301147461,0.6263912200927734
0.6009006500244141,0.6215967178344727
0.6044740676879883,0.6215967178344727
0.5975275039672852,0.6060504913330078
0.5891412734985352,0.6060504913330078
0.5908567428588867,0.5953514099121093
0.5849063873291015,0.5953514099121093
0.5737987518310547,0.5711179733276367
0.5710292816162109,0.5711179733276367
0.5704084396362304,0.5598026275634765
0.5615953445434571,0.5598026275634765
0.5575527191162110,0.5506994247436523
0.5609928131103515,0.5506994247436523
0.5549457550048827,0.5391557693481445
0.5492609024047851,0.5391557693481445
0.5547946929931641,0.5412082672119141
0.5533882141113281,0.5412082672119141
0.5464290618896485,0.5312622070312499
0.5483282089233398,0.5312622070312499
0.5514295578002929,0.5322755813598633
0.5459421157836913,0.5322755813598633
0.5443399429321288,0.5314012527465820
0.5498147964477539,0.5314012527465820
0.5472919464111328,0.5261352539062499
0.5465509414672851,0.5261352539062499
0.5410291671752929,0.5251773834228516
0.5413599014282227,0.5217401504516601
0.5413599014282227,0.5217401504516601
0.5441837310791016,0.5273935317993164
0.5431880950927734,0.5273935317993164
0.5401565551757812,0.5242727279663085
0.5401565551757812,0.5242727279663085
0.5451753616333007,0.5241514205932617
0.5451753616333007,0.5241514205932617
0.5443536758422851,0.5298625946044921
0.5443536758422851,0.5298625946044921
0.5428264617919921,0.5242578506469726
0.5428264617919921,0.5242578506469726
0.5499200820922852,0.5321508407592773
0.5499200820922852,0.5321508407592773
0.5438810348510742,0.5313983917236328
0.5438810348510742,0.5313983917236328
0.5512681961059570,0.5334171295166016
0.5512681961059570,0.5334171295166016
0.5513242721557617,0.5410228729248047
0.5513242721557617,0.5410228729248047
0.5505706787109375,0.5367914199829101
0.5505706787109375,0.5367914199829101
0.5578989028930664,0.5457017898559570
0.5578989028930664,0.5457017898559570
0.5530649185180664,0.5450769424438476
0.5530649185180664,0.5450769424438476
0.5599433898925781,0.5469863891601562
0.5599433898925781,0.5469863891601562
0.5595582962036133,0.5539999008178711
0.5595582962036133,0.5539999008178711
0.5577363967895508,0.5489513397216796
0.5577363967895508,0.5489513397216796
0.5655052185058593,0.5568923950195312
0.5655052185058593,0.5568923950195312
0.5595188140869141,0.5552541732788085
0.5595188140869141,0.5552541732788085
0.5656934738159179,0.5560901641845702
0.5656934738159179,0.5560901641845702
0.5643413543701171,0.5622144699096679
0.5643413543701171,0.5622144699096679
0.5630527496337890,0.5564970016479492
0.5630527496337890,0.5564970016479492
0.5700038909912110,0.5638160705566406
0.5700038909912110,0.5638160705566406
0.5636495590209961,0.5619718551635742
0.5636495590209961,0.5619718551635742
0.5691455841064453,0.5625097274780273
0.5691455841064453,0.5625097274780273
0.5687799453735352,0.5688423156738281
0.5687799453735352,0.5688423156738281
0.5672189712524414,0.5632776260375977
0.5672189712524414,0.5632776260375977
0.5742244720458984,0.5709537506103516
0.5742244720458984,0.5709537506103516
0.5678215026855469,0.5694185256958008
0.5678215026855469,0.5694185256958008
0.5746341705322265,0.5706911087036133
0.5746341705322265,0.5706911087036133
0.5741071701049805,0.5773996353149414
0.5741071701049805,0.5773996353149414
0.5726634979248046,0.5722824096679687
0.5726634979248046,0.5722824096679687
0.5795677185058593,0.5803916931152343
0.5795677185058593,0.5803916931152343
0.5742668151855469,0.5795030593872070
0.5742668151855469,0.5795030593872070
0.5808546066284179,0.5809535980224609
0.5808546066284179,0.5809535980224609
0.5803813934326172,0.5879573822021484
0.5803813934326172,0.5879573822021484
0.5788661956787109,0.5830524444580077
0.5788661956787109,0.5830524444580077
0.5866081237792968,0.5914140701293945
0.5866081237792968,0.5914140701293945
0.5810520172119140,0.5904996871948242
0.5810520172119140,0.5904996871948242
0.5876667022705078,0.5920801162719727
0.5876667022705078,0.5920801162719727
0.5867265701293946,0.5992074966430664
0.5910753250122071,0.5992074966430664
0.5861949920654297,0.5943964004516601
0.5861949920654297,0.5943964004516601
0.5935861587524414,0.6028415679931640
0.5935861587524414,0.6028415679931640
0.5878715515136719,0.6018602371215820
0.5878715515136719,0.6018602371215820
0.5940605163574219,0.6034955978393555
0.5940605163574219,0.6034955978393555
0.5940410614013671,0.6105783462524413
0.5940410614013671,0.6105783462524413
0.5929710388183593,0.6057804107666015
0.5929710388183593,0.6057804107666015
0.6002140045166016,0.6138301849365234
0.6002140045166016,0.6138301849365234
0.5939466476440429,0.6127155303955077
0.5939466476440429,0.6127155303955077
0.6010002136230469,0.6141780853271485
0.6010002136230469,0.6141780853271485
0.6004314422607422,0.6209627151489258
0.6004314422607422,0.6209627151489258
0.5989906311035156,0.6158071517944336
0.5989906311035156,0.6158071517944336
0.6057043075561523,0.6237705230712890
0.6057043075561523,0.6237705230712890
0.6002437591552734,0.6224018096923828
0.6002437591552734,0.6224018096923828
0.6066959381103515,0.6234226226806641
0.6066959381103515,0.6234226226806641
0.6057323455810547,0.6297809600830078
0.6057323455810547,0.6297809600830078
0.6036643981933594,0.6240468978881836
0.6036643981933594,0.6240468978881836
0.6107643127441406,0.6308486938476562
0.6107643127441406,0.6308486938476562
0.6035928726196289,0.6272609710693359
0.6035928726196289,0.6272609710693359
0.6075576782226563,0.6240137100219726
0.6075576782226563,0.6240137100219726
0.6024124145507812,0.6229059219360351
0.6024124145507812,0.6229059219360351
0.5947465896606445,0.6048963546752929
0.5947465896606445,0.6048963546752929
0.5816127777099609,0.5790876388549805
0.5816127777099609,0.5791929244995117
0.5737426757812499,0.5691598892211914
0.5691375732421875,0.5691598892211914
0.5594186782836914,0.5504877090454101
0.5588733673095703,0.5504877090454101
0.5606369018554688,0.5454030990600586
0.5533573150634765,0.5454030990600586
0.5504602432250977,0.5406623840332031
0.5551706314086914,0.5406623840332031
0.5502033233642578,0.5324140548706054
0.5453870773315429,0.5324140548706054
0.5513854980468750,0.5364646911621094
0.5508384704589844,0.5364646911621094
0.5443622589111328,0.5280538558959961
0.5463632583618164,0.5280538558959961
0.5498428344726562,0.5298597335815429
0.5446369171142578,0.5298597335815429
0.5431182861328124,0.5299146652221679
0.5490463256835937,0.5299146652221679
0.5448961257934570,0.5245662689208984
0.5407791137695312,0.5245662689208984
0.5476558685302734,0.5307563781738281
0.5474973678588867,0.5307563781738281
0.5413169860839844,0.5238853454589844
0.5439880371093749,0.5238853454589844
0.5479934692382812,0.5273826599121093
0.5431961059570313,0.5273826599121093
0.5422685623168945,0.5288183212280273
0.5485982894897461,0.5288183212280273
0.5452938079833984,0.5252357482910156
0.5416677474975585,0.5252357482910156
0.5487768173217773,0.5332448959350585
0.5495836257934570,0.5332448959350585
0.5439468383789062,0.5286746978759765
0.5473840713500976,0.5286746978759765
0.5520669937133789,0.5344785690307617
0.5481863021850586,0.5344785690307617
0.5481611251831054,0.5382041931152344
0.5550115585327148,0.5382041931152344
0.5519920349121094,0.5364784240722656
0.5490978240966796,0.5364784240722656
0.5568346023559571,0.5461692810058594
0.5578182220458984,0.5461692810058594
0.5525625228881835,0.5424373626708984
0.5562126159667968,0.5424373626708984
0.5613258361816406,0.5485931396484375
0.5572494506835938,0.5485931396484375
0.5568283081054687,0.5522563934326171
0.5637599945068359,0.5522563934326171
0.5605213165283203,0.5500047683715820
0.5574148178100585,0.5500047683715820
0.5647619247436523,0.5588024139404296
0.5655172348022460,0.5588024139404296
0.5603353500366210,0.5541584014892578
0.5633388519287109,0.5541584014892578
0.5678083419799804,0.5590644836425781
0.5635334014892578,0.5590644836425781
0.5628055572509766,0.5615507125854492
0.5694253921508788,0.5615507125854492
0.5658691406249999,0.5582588195800781
0.5623483657836914,0.5582588195800781
0.5697681427001953,0.5661546707153320
0.5701898574829102,0.5661546707153320
0.5644392013549805,0.5607358932495117
0.5675073623657226,0.5607358932495117
0.5718515396118163,0.5653999328613281
0.5674982070922852,0.5653999328613281
0.5666931152343749,0.5677328109741211
0.5731676101684570,0.5677328109741211
0.5699850082397461,0.5645610809326171
0.5661993026733398,0.5645610809326171
0.5736070632934570,0.5726171493530273
0.5742107391357422,0.5726171493530273
0.5684972763061523,0.5675714492797851
0.5717639923095703,0.5675714492797851
0.5761590957641601,0.5726577758789062
0.5718950271606446,0.5726577758789062
0.5715551376342773,0.5755697250366211
0.5782539367675781,0.5755697250366211
0.5748424530029297,0.5726251602172852
0.5714138031005859,0.5726251602172852
0.5788501739501953,0.5814102172851562
0.5796524047851562,0.5814102172851562
0.5740207672119141,0.5767341613769531
0.5774213790893554,0.5767341613769531
0.5823503494262695,0.5823017120361328
0.5780136108398437,0.5823017120361328
0.5774448394775390,0.5854562759399414
0.5842855453491210,0.5854562759399414
0.5810737609863281,0.5831411361694335
0.5779546737670899,0.5831411361694335
0.5852766036987305,0.5919496536254882
0.5862018585205078,0.5919496536254882
0.5809701919555664,0.5877262115478515
0.5841733932495117,0.5877262115478515
0.5888076782226562,0.5931735992431640
0.5847118377685546,0.5931735992431640
0.5842174530029297,0.5965295791625976
0.5911211013793946,0.5965295791625976
0.5879447937011718,0.5943735122680663
0.5846580505371094,0.5943735122680663
0.5924068450927734,0.6033485412597656
0.5931192398071289,0.6033485412597656
0.5876083374023438,0.5989900588989258
0.5909780502319336,0.5989900588989258
0.5957290649414062,0.6046972274780273
0.5915903091430664,0.6046972274780273
0.5909791946411133,0.6080085754394531
0.5977941513061523,0.6080085754394531
0.5950006484985352,0.6056934356689453
0.5916566848754883,0.6056934356689453
0.5989454269409179,0.6144115447998046
0.5998111724853515,0.6144115447998046
0.5941772460937500,0.6099294662475586
0.5975795745849609,0.6099294662475586
0.6022830963134765,0.6153888702392578
0.5979383468627929,0.6153888702392578
0.5977540969848633,0.6184530258178711
0.6042182922363281,0.6184530258178711
0.6010082244873046,0.6158752441406250
0.5977443695068360,0.6158752441406250
0.6049221038818359,0.6244302749633789
0.6056425094604492,0.6244302749633789
0.6000566482543945,0.6196220397949218
0.6033096313476562,0.6196220397949218
0.6081710815429687,0.6249973297119140
0.6036993026733398,0.6249973297119140
0.6030338287353515,0.6274045944213867
0.6097120285034180,0.6274045944213867
0.6063016891479492,0.6245132446289062
0.6028512954711914,0.6245132446289062
0.6098470687866211,0.6324239730834961
0.6102642059326172,0.6324239730834961
0.6046943664550781,0.6264827728271484
0.6070856094360352,0.6264827728271484
0.6108936309814453,0.6291257858276367
0.6054222106933593,0.6291257858276367
0.6033164978027343,0.6268535614013672
0.6081064224243163,0.6268535614013672
0.6024478912353516,0.6158100128173828
0.5958360671997071,0.6158100128173828
0.5992086410522460,0.6101652145385742
0.5944461822509766,0.6101652145385742
0.5830873489379883,0.5857543945312500
0.5799236297607422,0.5857543945312500
0.5786865234374999,0.5719436645507813
0.5687582015991210,0.5719436645507813
0.5634429931640624,0.5590616226196289
0.5659366607666015,0.5590616226196289
0.5595731735229492,0.5449962615966797
0.5529556274414062,0.5449962615966797
0.5577157974243164,0.5449813842773438
0.5561513900756836,0.5449813842773438
0.5487773895263671,0.5341936111450195
0.5503120422363281,0.5341936111450195
0.5533699035644531,0.5346845626831055
0.5477714538574219,0.5346845626831055
0.5461990356445312,0.5334983825683594
0.5516515731811523,0.5334983825683594
0.5473497390747070,0.5272819519042968
0.5429059982299804,0.5272819519042968
0.5492540359497070,0.5327459335327148
0.5490337371826172,0.5327459335327148
0.5426771163940429,0.5252014160156250
0.5450603485107421,0.5252014160156250
0.5491744995117187,0.5281700134277344
0.5439233779907227,0.5281700134277344
0.5427143096923828,0.5285608291625976
0.5488391876220703,0.5285608291625976
0.5449962615966797,0.5240936279296875
0.5411087036132812,0.5240936279296875
0.5478103637695312,0.5309801101684570
0.5481376647949219,0.5309801101684570
0.5425558090209961,0.5250572204589844
0.5453762054443360,0.5250572204589844
0.5497272491455077,0.5295988082885742
0.5452606201171875,0.5295988082885742
0.5447153091430664,0.5322675704956055
0.5516532897949219,0.5322675704956055
0.5484123229980469,0.5299764633178711
0.5453990936279297,0.5299764633178711
0.5531147003173827,0.5393268585205078
0.5539461135864258,0.5393268585205078
0.5487173080444335,0.5354181289672851
0.5522226333618164,0.5354181289672851
0.5571727752685547,0.5418823242187499
0.5533664703369140,0.5418823242187499
0.5531055450439453,0.5457830429077148
0.5601928710937499,0.5457830429077148
0.5576614379882813,0.5442277908325195
0.5545000076293946,0.5442277908325195
0.5618682861328125,0.5534940719604492
0.5627351760864258,0.5534940719604492
0.5575618743896484,0.5494915008544922
0.5610311508178710,0.5494915008544922
0.5657506942749023,0.5553457260131835
0.5616382598876953,0.5553457260131835
0.5612794876098632,0.5583457946777344
0.5679107666015625,0.5583457946777344
0.5647785186767578,0.5556604385375976
0.5614465713500977,0.5556604385375976
0.5685848236083985,0.5639991760253906
0.5692491531372070,0.5639991760253906
0.5636095046997071,0.5589122772216797
0.5666799545288086,0.5589122772216797
0.5714624404907226,0.5638383865356446
0.5669237136840820,0.5638383865356446
0.5660785675048828,0.5660018920898438
0.5727510452270508,0.5660018920898438
0.5693006515502930,0.5629846572875976
0.5659154891967774,0.5629846572875976
0.5729375839233398,0.5708467483520507
0.5733770370483399,0.5708467483520507
0.5680789947509766,0.5657878875732422
0.5709136962890625,0.5657878875732422
0.5754798889160156,0.5706991195678711
0.5710790634155273,0.5706991195678711
0.5703609466552734,0.5731246948242187
0.5771049499511719,0.5731246948242187
0.5739395141601562,0.5704376220703125
0.5705383300781249,0.5704376220703125
0.5779346466064453,0.5788375854492187
0.5786218643188477,0.5788375854492187
0.5729518890380859,0.5739978790283203
0.5762695312500000,0.5739978790283203
0.5808254241943359,0.5796066284179687
0.5767181396484374,0.5796066284179687
0.5761041641235352,0.5825328826904297
0.5829792022705078,0.5825328826904297
0.5801742553710937,0.5803630828857421
0.5767175674438476,0.5803630828857421
0.5840246200561523,0.5889873504638672
0.5848714828491210,0.5889873504638672
0.5794486999511719,0.5847536087036133
0.5828195571899414,0.5847536087036133
0.5875282287597656,0.5906290054321289
0.5834272384643554,0.5906290054321289
0.5831960678100586,0.5938602447509765
0.5899641036987304,0.5938602447509765
0.5868661880493163,0.5917133331298828
0.5836572647094727,0.5917133331298828
0.5909997940063476,0.6007295608520508
0.5919141769409180,0.6007295608520508
0.5865480422973632,0.5965044021606445
0.5899211883544921,0.5965044021606445
0.5948713302612304,0.6023626327514648
0.5905254364013671,0.6023626327514648
0.5900098800659179,0.6054605484008789
0.5969736099243164,0.6054605484008789
0.5938253402709961,0.6033205032348633
0.5906621932983398,0.6033205032348633
0.5979618072509766,0.6121301651000977
0.5987514495849610,0.6121301651000977
0.5936668395996093,0.6077951431274414
0.5968151092529297,0.6077951431274414
0.6012857437133788,0.6134010314941406
0.5971515655517577,0.6134010314941406
0.5966085433959961,0.6164199829101562
0.6034103393554687,0.6164199829101562
0.6002214431762695,0.6140190124511719
0.5969610214233398,0.6140190124511719
0.6044820785522461,0.6226627349853515
0.6050205230712891,0.6226627349853515
0.5995153427124024,0.6178739547729492
0.6027832031250000,0.6178739547729492
0.6073305130004882,0.6232606887817382
0.6031036376953125,0.6232606887817382
0.6024330139160156,0.6260667800903320
0.6091232299804688,0.6260667800903320
0.6061986923217774,0.6234643936157226
0.6027374267578125,0.6234643936157226
0.6097429275512695,0.6317127227783202
0.6104896545410156,0.6317127227783202
0.6049610137939453,0.6268547058105468
0.6080646514892578,0.6268547058105468
0.6125358581542969,0.6320182800292968
0.6082328796386719,0.6320182800292968
0.6076818466186523,0.6343265533447265
0.6139932632446289,0.6343265533447265
0.6105766296386719,0.6306941986083984
0.6068435668945312,0.6306941986083984
0.6135257720947266,0.6375131607055664
0.6133100509643554,0.6375131607055664
0.6068206787109375,0.6291830062866210
0.6085344314575195,0.6291830062866210
0.6114864349365234,0.6283327102661133
0.6046886444091797,0.6283327102661133
0.6009464263916016,0.6204053878784179
0.6036066055297852,0.6204053878784179
0.5955053329467773,0.6007730484008789
0.5860622406005859,0.6007730484008789
0.5869268417358399,0.5884866714477539
0.5812545776367187,0.5884866714477539
0.5702041625976563,0.5647150039672851
0.5676086425781249,0.5647150039672851
0.5680212020874024,0.5553720474243163
0.5597070693969727,0.5553720474243163
0.5559614181518554,0.5475036621093750
0.5599988937377930,0.5475036621093750
0.5498067855834960,0.5371324539184570
0.5542510986328125,0.5371324539184570
0.5530380249023438,0.5334325790405273
0.5530380249023438,0.5334325790405273
0.5494823455810547,0.5358764648437500
0.5494823455810547,0.5358764648437500
0.5455352783203125,0.5271394729614257
0.5455352783203125,0.5271394729614257
0.5510696411132813,0.5319911956787109
0.5510696411132813,0.5319911956787109
0.5433586120605468,0.5275823593139648
0.5433586120605468,0.5275823593139648
0.5481697082519531,0.5262926101684570
0.5481697082519531,0.5262926101684570
0.5454448699951172,0.5306636810302734
0.5454448699951172,0.5306636810302734
0.5433717727661133,0.5235431671142577
0.5433717727661133,0.5235431671142577
0.5494491577148437,0.5298196792602539
0.5494491577148437,0.5298196792602539
0.5427354812622071,0.5270095825195312
0.5427354812622071,0.5270095825195312
0.5481359481811523,0.5274152755737305
0.5481359481811523,0.5274152755737305
0.5475843429565429,0.5338079452514648
0.5475843429565429,0.5338079452514648
0.5465412139892578,0.5288824081420899
0.5465412139892578,0.5288824081420899
0.5540084838867188,0.5374425888061524
0.5540084838867188,0.5374425888061524
0.5483333587646484,0.5369379043579101
0.5483333587646484,0.5369379043579101
0.5558401107788086,0.5393926620483398
0.5558401107788086,0.5393926620483398
0.5558938980102539,0.5470722198486327
0.5558938980102539,0.5470722198486327
0.5552215576171875,0.5429809570312499
0.5552215576171875,0.5429809570312499
0.5625761032104492,0.5518117904663086
0.5625761032104492,0.5518117904663086
0.5576951980590820,0.5510341644287109
0.5576951980590820,0.5510341644287109
0.5645507812500000,0.5529659271240234
0.5645507812500000,0.5529659271240234
0.5640197753906250,0.5598604202270507
0.5640197753906250,0.5598604202270507
0.5624021530151367,0.5547677993774414
0.5624021530151367,0.5547677993774414
0.5699644088745117,0.5626939773559571
0.5699644088745117,0.5626939773559571
0.5640632629394531,0.5608669281005859
0.5640632629394531,0.5608669281005859
0.5701572418212890,0.5618339538574219
0.5701572418212890,0.5618339538574219
0.5687461853027344,0.5679594039916992
0.5687461853027344,0.5679594039916992
0.5676624298095703,0.5623128890991210
0.5676624298095703,0.5623128890991210
0.5744699478149414,0.5698751449584961
0.5744699478149414,0.5698751449584961
0.5683914184570312,0.5678941726684570
0.5683914184570312,0.5678941726684570
0.5741329193115234,0.5688097000122070
0.5741329193115234,0.5688097000122070
0.5736019134521484,0.5752613067626953
0.5736019134521484,0.5752613067626953
0.5723361968994141,0.5700616836547852
0.5716409683227539,0.5700616836547852
0.5793497085571289,0.5778791427612304
0.5793497085571289,0.5778791427612304
0.5731315612792969,0.5763439178466797
0.5731315612792969,0.5763439178466797
0.5799751281738281,0.5779083251953124
0.5799751281738281,0.5779083251953124
0.5793949127197265,0.5847925186157227
0.5793949127197265,0.5847925186157227
0.5782722473144531,0.5799745559692383
0.5782722473144531,0.5799745559692383
0.5851661682128906,0.5882658004760742
0.5851661682128906,0.5882658004760742
0.5800472259521484,0.5872976303100585
0.5800472259521484,0.5872976303100585
0.5868833541870117,0.5890943527221679
0.5868833541870117,0.5890943527221679
0.5863151550292969,0.5962091445922851
0.5863151550292969,0.5962091445922851
0.5849693298339843,0.5916538238525391
0.5849693298339843,0.5916538238525391
0.5927827835083007,0.6001298904418945
0.5927827835083007,0.6001298904418945
0.5871952056884765,0.5992412567138672
0.5871952056884765,0.5992412567138672
0.5940244674682617,0.6010316848754883
0.5940244674682617,0.6010316848754883
0.5930213928222656,0.6081430435180664
0.5930213928222656,0.6081430435180664
0.5924932479858398,0.6034114837646484
0.5924932479858398,0.6034114837646484
0.5998523712158202,0.6117353439331055
0.5998523712158202,0.6117353439331055
0.5940759658813476,0.6104444503784180
0.5940759658813476,0.6104444503784180
0.6002140045166016,0.6120689392089843
0.6002140045166016,0.6120689392089843
0.6000171661376953,0.6189479827880859
0.6000171661376953,0.6189479827880859
0.5988727569580078,0.6139268875122070
0.5988727569580078,0.6139268875122070
0.6055938720703125,0.6220235824584961
0.6055938720703125,0.6220235824584961
0.5996938705444336,0.6205043792724609
0.5996938705444336,0.6205043792724609
0.6066598892211914,0.6219640731811523
0.6066598892211914,0.6219640731811523
0.6058210372924805,0.6285478591918945
0.6058210372924805,0.6285478591918945
0.6046474456787109,0.6234340667724609
0.6046474456787109,0.6234340667724609
0.6110607147216797,0.6312761306762695
0.6110607147216797,0.6312761306762695
0.6056219100952148,0.6296390533447266
0.6056219100952148,0.6296390533447266
0.6119842529296875,0.6307657241821288
0.6119842529296875,0.6307657241821288
0.6110452651977539,0.6371532440185547
0.6110452651977539,0.6371532440185547
0.6090671539306640,0.6317533493041992
0.6090671539306640,0.6317533493041992
0.6162912368774414,0.6392801284790038
0.6162912368774414,0.6392801284790038
0.6101657867431640,0.6369060516357422
0.6101657867431640,0.6369060516357422
0.6156829833984375,0.6366165161132812
0.6156829833984375,0.6366165161132812
0.6127132415771485,0.6401796340942383
0.6127132415771485,0.6401796340942383
0.6090671539306640,0.6295692443847656
0.6090671539306640,0.6295692443847656
0.6112798690795899,0.6281581878662109
0.6112798690795899,0.6281581878662109
0.5974170684814453,0.6112346649169922
0.5974170684814453,0.6112346649169922
0.5915828704833984,0.5916212081909179
0.5915828704833984,0.5916212081909179
0.5784759521484375,0.5780828475952148
0.5784759521484375,0.5780828475952148
0.5662410736083984,0.5564952850341797
0.5662410736083984,0.5564952850341797
0.5652431488037110,0.5523685455322266
0.5652431488037110,0.5523685455322266
0.5531524658203125,0.5421306610107421
0.5531524658203125,0.5421306610107421
0.5558761596679688,0.5373315811157227
0.5558761596679688,0.5373315811157227
0.5518404006958008,0.5390373229980469
0.5518404006958008,0.5390373229980469
0.5480077743530273,0.5299249649047851
0.5480077743530273,0.5299249649047851
0.5525556564331054,0.5343584060668946
0.5525556564331054,0.5343584060668946
0.5452274322509766,0.5298065185546875
0.5452274322509766,0.5298065185546875
0.5499790191650390,0.5285001754760742
0.5499790191650390,0.5285001754760742
0.5475614547729492,0.5326618194580078
0.5475614547729492,0.5326618194580078
0.5445528030395508,0.5253135681152343
0.5445528030395508,0.5253135681152343
0.5508069992065430,0.5313983917236328
0.5508069992065430,0.5313983917236328
0.5440813064575195,0.5284212112426757
0.5440813064575195,0.5284212112426757
0.5479030609130859,0.5278169631958007
0.5523490905761719,0.5328460693359375
0.5480546951293945,0.5328460693359375
0.5478361129760742,0.5358615875244140
0.5546939849853515,0.5358615875244140
0.5516447067260742,0.5338714599609374
0.5487236022949219,0.5338714599609374
0.5561170578002930,0.5433694839477539
0.5572826385498046,0.5433694839477539
0.5521236419677734,0.5399620056152343
0.5557050704956055,0.5399620056152343
0.5609178543090820,0.5464948654174805
0.5569101333618164,0.5464948654174805
0.5566234588623047,0.5503183364868164
0.5638235092163085,0.5503183364868164
0.5609876632690429,0.5488929748535156
0.5580036163330078,0.5488929748535156
0.5653535842895507,0.5581014633178710
0.5663864135742187,0.5581014633178710
0.5613269805908203,0.5541749954223633
0.5646446228027343,0.5541749954223633
0.5692359924316406,0.5598260879516601
0.5651865005493164,0.5598260879516601
0.5644941329956055,0.5628307342529296
0.5713640213012695,0.5628307342529296
0.5681768417358398,0.5602781295776367
0.5647052764892578,0.5602781295776367
0.5720895767211914,0.5685785293579101
0.5725610733032226,0.5685785293579101
0.5669843673706054,0.5634103775024414
0.5701435089111327,0.5634103775024414
0.5745414733886719,0.5684062957763671
0.5701675415039062,0.5684062957763671
0.5693944931030274,0.5705801010131836
0.5760538101196289,0.5705801010131836
0.5729627609252930,0.5675600051879882
0.5693544387817383,0.5675600051879882
0.5762775421142577,0.5754890441894531
0.5769069671630859,0.5754890441894531
0.5713582992553711,0.5705062866210937
0.5744493484497070,0.5705062866210937
0.5788209915161132,0.5755743026733399
0.5745826721191406,0.5755743026733399
0.5741689682006835,0.5781143188476562
0.5806400299072265,0.5781143188476562
0.5774505615234374,0.5753551483154297
0.5741300582885742,0.5753551483154297
0.5812900543212890,0.5837711334228516
0.5821352005004883,0.5837711334228516
0.5766042709350586,0.5793033599853515
0.5798297882080078,0.5793033599853515
0.5847141265869140,0.5847879409790039
0.5803865432739258,0.5847879409790039
0.5798423767089843,0.5877262115478515
0.5867202758789062,0.5877262115478515
0.5835559844970702,0.5855701446533202
0.5804122924804688,0.5855701446533202
0.5876792907714844,0.5944101333618164
0.5884260177612305,0.5944101333618164
0.5834152221679687,0.5902284622192383
0.5865594863891601,0.5902284622192383
0.5912464141845702,0.5960145950317383
0.5872638702392577,0.5960145950317383
0.5867420196533203,0.5992807388305664
0.5935232162475585,0.5992807388305664
0.5905849456787109,0.5972757339477539
0.5874532699584961,0.5972757339477539
0.5948627471923827,0.6062381744384765
0.5956501007080078,0.6062381744384765
0.5902307510375976,0.6018613815307617
0.5934551239013671,0.6018613815307617
0.5981037139892578,0.6077013015747070
0.5940742492675781,0.6077013015747070
0.5934883117675781,0.6107374191284179
0.6003250122070313,0.6107374191284179
0.5975767135620117,0.6086208343505859
0.5941131591796874,0.6086208343505859
0.6012868881225586,0.6171541213989258
0.6021715164184570,0.6171541213989258
0.5967081069946288,0.6127389907836914
0.5999685287475586,0.6127389907836914
0.6045278549194336,0.6181938171386718
0.6003295898437500,0.6181938171386718
0.6000125885009765,0.6211704254150391
0.6066135406494141,0.6211704254150391
0.6033948898315430,0.6185525894165039
0.6000709533691406,0.6185525894165039
0.6071737289428710,0.6269702911376953
0.6078409194946289,0.6269702911376953
0.6023986816406249,0.6224012374877930
0.6056367874145507,0.6224012374877930
0.6104324340820312,0.6278028488159180
0.6059698104858399,0.6278028488159180
0.6053661346435547,0.6303194046020507
0.6120065689086914,0.6303194046020507
0.6086791992187500,0.6277873992919921
0.6053415298461914,0.6277873992919921
0.6124929428100586,0.6359172821044922
0.6131704330444335,0.6359172821044922
0.6079433441162109,0.6311141967773437
0.6108781814575195,0.6311141967773437
0.6152606964111328,0.6360134124755860
0.6109491348266601,0.6360134124755860
0.6102842330932617,0.6386260986328125
0.6169229507446289,0.6386260986328125
0.6134616851806640,0.6356037139892577
0.6099884033203125,0.6356037139892577
0.6172027587890625,0.6432786941528320
0.6173366546630860,0.6432786941528320
0.6115024566650390,0.6372980117797852
0.6141025543212890,0.6372980117797852
0.6178956985473633,0.6400960922241211
0.6126743316650390,0.6400960922241211
0.6105777740478515,0.6380784988403320
0.6154254913330078,0.6380784988403320
0.6102144241333007,0.6277650833129883
0.6037593841552734,0.6277650833129883
0.6072246551513671,0.6230272293090821
0.6030435562133789,0.6230272293090821
0.5921218872070312,0.5992486953735351
0.5887052536010742,0.5992486953735351
0.5869079589843750,0.5838563919067382
0.5766008377075195,0.5838563919067382
0.5708095550537109,0.5683902740478516
0.5721405029296874,0.5683902740478516
0.5650966644287109,0.5522844314575195
0.5582262039184570,0.5522844314575195
0.5606185913085937,0.5510021209716797
0.5595531463623047,0.5510021209716797
0.5531627655029296,0.5394086837768555
0.5544799804687500,0.5394086837768555
0.5576585769653321,0.5395122528076172
0.5519021987915039,0.5395122528076172
0.5500419616699218,0.5381618499755859
0.5555751800537109,0.5381618499755859
0.5513740539550781,0.5322910308837890
0.5471340179443359,0.5322910308837890
0.5533035278320312,0.5376960754394531
0.5532045364379883,0.5376960754394531
0.5472690582275390,0.5306133270263672
0.5494926452636718,0.5306133270263672
0.5533950805664062,0.5334880828857421
0.5485828399658202,0.5334880828857421
0.5474063873291015,0.5343280792236328
0.5535306930541992,0.5343280792236328
0.5498004913330078,0.5300256729125976
0.5460577011108398,0.5300256729125976
0.5531982421875000,0.5373876571655273
0.5535558700561524,0.5373876571655273
0.5477714538574219,0.5318412780761719
0.5508871078491211,0.5318412780761719
0.5554286956787109,0.5369808197021484
0.5512498855590821,0.5369808197021484
0.5508012771606445,0.5401720046997071
0.5576866149902343,0.5401720046997071
0.5550270080566406,0.5386098861694336
0.5519697189331054,0.5386098861694336
0.5594552993774414,0.5480913162231446
0.5606861114501953,0.5480913162231446
0.5556066513061523,0.5448572158813476
0.5593185424804688,0.5448572158813476
0.5642389297485352,0.5514484405517578
0.5605001449584961,0.5514484405517578
0.5604995727539063,0.5555253982543945
0.5674758911132812,0.5555253982543945
0.5645977020263672,0.5541458129882812
0.5616348266601562,0.5541458129882812
0.5691364288330077,0.5635339736938476
0.5701503753662109,0.5635339736938476
0.5648769378662110,0.5597002029418945
0.5682603836059570,0.5597002029418945
0.5731910705566406,0.5656036376953125
0.5689064025878906,0.5656036376953125
0.5684103012084961,0.5684606552124023
0.5751943588256836,0.5684606552124023
0.5719877243041992,0.5658960342407227
0.5686574935913086,0.5658960342407227
0.5757482528686523,0.5741048812866211
0.5763547897338867,0.5741048812866211
0.5711534500122070,0.5691318511962891
0.5740859985351562,0.5691318511962891
0.5782991409301758,0.5739000320434570
0.5740356445312500,0.5739000320434570
0.5732202529907227,0.5761116027832031
0.5797027587890625,0.5761116027832031
0.5764154434204102,0.5731206893920898
0.5729427337646484,0.5731206893920898
0.5802143096923827,0.5810319900512695
0.5806297302246094,0.5810319900512695
0.5750627517700195,0.5758890151977539
0.5781360626220703,0.5758890151977539
0.5825912475585937,0.5809289932250976
0.5783088684082031,0.5809289932250976
0.5776742935180664,0.5834089279174804
0.5843021392822265,0.5834089279174804
0.5813821792602539,0.5808649063110352
0.5778980255126953,0.5808649063110352
0.5849086761474609,0.5889844894409180
0.5855535507202149,0.5889844894409180
0.5802869796752930,0.5845361709594726
0.5835594177246094,0.5845361709594726
0.5880329132080078,0.5900613784790039
0.5838443756103515,0.5900613784790039
0.5837081909179688,0.5931919097900390
0.5902004241943359,0.5931919097900390
0.5871139526367187,0.5907663345336914
0.5839153289794922,0.5907663345336914
0.5912252426147461,0.5995628356933593
0.5920532226562499,0.5995628356933593
0.5867197036743164,0.5953811645507813
0.5900230407714844,0.5953811645507813
0.5948907852172851,0.6011089324951172
0.5906850814819335,0.6011089324951172
0.5902027130126953,0.6042640686035156
0.5969209671020508,0.6042640686035156
0.5938167572021484,0.6023168563842773
0.5906925201416016,0.6023168563842773
0.5979360580444336,0.6110435485839844
0.5987325668334961,0.6110435485839844
0.5936594009399414,0.6068664550781250
0.5968259811401367,0.6068664550781250
0.6014087677001952,0.6123733520507812
0.5972099304199219,0.6123733520507812
0.5966640472412109,0.6153356552124023
0.6034040451049805,0.6153356552124023
0.6002437591552734,0.6129690170288086
0.5969730377197265,0.6129690170288086
0.6044912338256836,0.6215457916259766
0.6050886154174805,0.6215457916259766
0.5995794296264648,0.6169080734252930
0.6028221130371093,0.6169080734252930
0.6072813034057617,0.6223005294799805
0.6031145095825196,0.6223005294799805
0.6024473190307617,0.6251455307006836
0.6090991973876952,0.6251455307006836
0.6062576293945312,0.6226816177368164
0.6027637481689453,0.6226816177368164
0.6098430633544921,0.6308275222778320
0.6105680465698242,0.6308275222778320
0.6050737380981445,0.6261262893676758
0.6082546234130859,0.6261262893676758
0.6126296997070312,0.6313282012939453
0.6084794998168945,0.6313282012939453
0.6080949783325195,0.6340301513671874
0.6145952224731445,0.6340301513671874
0.6111660003662109,0.6310998916625976
0.6078712463378906,0.6310998916625976
0.6148933410644531,0.6394042968750000
0.6155313491821289,0.6394042968750000
0.6099952697753906,0.6345354080200195
0.6130342483520508,0.6345354080200195
0.6178047180175781,0.6394237518310547
0.6132671356201171,0.6394237518310547
0.6126405715942382,0.6418046951293945
0.6191144943237304,0.6418046951293945
0.6158626556396484,0.6388320922851562
0.6123367309570312,0.6388320922851562
0.6192358016967773,0.6465076446533203
0.6196786880493164,0.6465076446533203
0.6141729354858398,0.6409069061279297
0.6168050765991211,0.6409069061279297
0.6205615997314453,0.6440042495727539
0.6155685424804688,0.6440042495727539
0.6137838363647461,0.6430709838867187
0.6188673019409180,0.6430709838867187
0.6137826919555663,0.6341096878051757
0.6079942703247070,0.6341096878051757
0.6125278472900391,0.6321458816528320
0.6090803146362305,0.6321458816528320
0.5989877700805664,0.6108455657958984
0.5964042663574218,0.6108455657958984
0.5947854995727538,0.5948495864868164
0.5841184616088867,0.5948495864868164
0.5776119232177734,0.5782430648803710
0.5784719467163085,0.5782430648803710
0.5708255767822266,0.5597322463989257
0.5629978179931641,0.5597322463989257
0.5667823791503906,0.5563962936401367
0.5643905639648438,0.5563962936401367
0.5565032958984375,0.5434982299804687
0.5576019287109375,0.5434982299804687
0.5601282119750977,0.5425798416137695
0.5543924331665039,0.5425798416137695
0.5527061462402344,0.5408861160278320
0.5577335357666016,0.5408861160278320
0.5534946441650390,0.5344150543212890
0.5490291595458984,0.5344150543212890
0.5553537368774414,0.5395139694213867
0.5551305770874023,0.5395139694213867
0.5488117218017577,0.5322200775146484
0.5511611938476563,0.5322200775146484
0.5552141189575195,0.5349695205688476
0.5502325057983398,0.5349695205688476
0.5488964080810547,0.5355611801147461
0.5550785064697266,0.5355611801147461
0.5512029647827148,0.5312582015991211
0.5474779129028320,0.5312582015991211
0.5541864395141601,0.5381206512451172
0.5544427871704102,0.5381206512451172
0.5489971160888671,0.5324712753295898
0.5518793106079102,0.5324712753295898
0.5562887191772461,0.5372789382934570
0.5520618438720702,0.5372789382934570
0.5515096664428710,0.5401439666748047
0.5584001541137695,0.5401439666748047
0.5553668975830078,0.5382946014404296
0.5523851394653320,0.5382946014404296
0.5601974487304687,0.5477542877197266
0.5611118316650391,0.5477542877197266
0.5560243606567382,0.5444469451904297
0.5598134994506836,0.5444469451904297
0.5646240234375000,0.5510089874267577
0.5608949661254883,0.5510089874267577
0.5607181549072265,0.5551986694335938
0.5678369522094726,0.5551986694335938
0.5653135299682617,0.5539873123168945
0.5622299194335937,0.5539873123168945
0.5697504043579101,0.5633480072021484
0.5707048416137696,0.5633480072021484
0.5655372619628906,0.5596149444580077
0.5691169738769531,0.5596149444580077
0.5736722946166992,0.5654617309570312
0.5696685791015624,0.5654617309570312
0.5694540023803710,0.5687467575073242
0.5759553909301758,0.5687467575073242
0.5728437423706054,0.5660900115966797
0.5695180892944336,0.5660900115966797
0.5766454696655273,0.5744195938110351
0.5772542953491211,0.5744195938110351
0.5717399597167968,0.5694339752197265
0.5749219894409180,0.5694339752197265
0.5795270919799804,0.5743354797363281
0.5749179840087890,0.5743354797363281
0.5742084503173828,0.5765836715698242
0.5807207107543945,0.5765836715698242
0.5772565841674805,0.5733461380004883
0.5738410949707031,0.5733461380004883
0.5808139801025390,0.5811813354492187
0.5813776016235351,0.5811813354492187
0.5760629653930663,0.5761407852172852
0.5790166854858398,0.5761407852172852
0.5833122253417968,0.5808094024658202
0.5790115356445312,0.5808094024658202
0.5783580780029297,0.5833419799804688
0.5848829269409179,0.5833419799804688
0.5816076278686523,0.5806571960449218
0.5782819747924804,0.5806571960449218
0.5857378005981445,0.5888711929321289
0.5862064361572266,0.5888711929321289
0.5807704925537109,0.5842929840087890
0.5840932846069335,0.5842929840087890
0.5885284423828124,0.5897621154785156
0.5845212936401367,0.5897621154785156
0.5839296340942383,0.5928417205810547
0.5906284332275390,0.5928417205810547
0.5878126144409179,0.5906192779541015
0.5844720840454102,0.5906192779541015
0.5917911529541016,0.5993654251098632
0.5925584793090820,0.5993654251098632
0.5873376846313476,0.5951677322387695
0.5906816482543945,0.5951677322387695
0.5952770233154296,0.6010276794433593
0.5912584304809571,0.6010276794433593
0.5910335540771484,0.6043401718139648
0.5976613998413086,0.6043401718139648
0.5946086883544922,0.6023220062255860
0.5914867401123046,0.6023220062255860
0.5987623214721679,0.6111711502075196
0.5996526718139649,0.6111711502075196
0.5942871093750000,0.6070117950439453
0.5977071762084961,0.6070117950439453
0.6024009704589843,0.6127664566040039
0.5983085632324219,0.6127664566040039
0.5977809906005859,0.6157327651977539
0.6043825149536133,0.6157327651977539
0.6013406753540039,0.6135475158691406
0.5980859756469726,0.6135475158691406
0.6053174972534180,0.6220035552978516
0.6059177398681640,0.6220035552978516
0.6008239746093750,0.6176439285278320
0.6040031433105468,0.6176439285278320
0.6083902359008789,0.6228864669799804
0.6042240142822265,0.6228864669799804
0.6037193298339844,0.6257749557495117
0.6103214263916016,0.6257749557495117
0.6071125030517578,0.6232561111450196
0.6038326263427735,0.6232561111450196
0.6113416671752929,0.6317356109619140
0.6117507934570312,0.6317356109619140
0.6061849594116211,0.6269765853881836
0.6094636917114258,0.6269765853881836
0.6138450622558593,0.6320949554443359
0.6097045898437500,0.6320949554443359
0.6090665817260742,0.6348180770874023
0.6155691146850586,0.6348180770874023
0.6126623153686523,0.6322757720947265
0.6091215133666992,0.6322757720947265
0.6161951065063477,0.6403358459472656
0.6166797637939453,0.6403358459472656
0.6113388061523437,0.6354909896850586
0.6144052505493164,0.6354909896850586
0.6188026428222656,0.6405189514160156
0.6144985198974610,0.6405189514160156
0.6142164230346679,0.6430801391601563
0.6204425811767578,0.6430801391601563
0.6171094894409179,0.6399753570556640
0.6136035919189453,0.6399753570556640
0.6207452774047851,0.6478952407836914
0.6211933135986328,0.6478952407836914
0.6154397964477539,0.6425811767578125
0.6184650421142578,0.6425811767578125
0.6228372573852539,0.6466838836669921
0.6178625106811523,0.6466838836669921
0.6166906356811523,0.6471782684326172
0.6223108291625976,0.6471782684326172
0.6179037094116211,0.6404291152954101
0.6128791809082031,0.6404291152954101
0.6181491851806641,0.6418161392211914
0.6160217285156250,0.6418161392211914
0.6076126098632812,0.6257246017456054
0.6063537597656250,0.6257246017456054
0.6056528091430664,0.6127275466918946
0.5952232360839843,0.6127275466918946
0.5882938385009765,0.5939580917358398
0.5884054183959960,0.5939580917358398
0.5792827606201172,0.5718647003173828
0.5712942123413086,0.5652946472167969
0.5732837677001953,0.5648042678833007
0.5695140838623046,0.5648042678833007
0.5609979629516602,0.5491876602172852
0.5613149642944336,0.5491876602172852
0.5634492874145508,0.5464193344116210
0.5570302963256836,0.5464193344116210
0.5548559188842773,0.5433826446533203
0.5597785949707031,0.5433826446533203
0.5555242538452149,0.5362621307373047
0.5508058547973632,0.5362621307373047
0.5567882537841796,0.5407768249511719
0.5562950134277344,0.5407768249511719
0.5499069213867187,0.5329153060913085
0.5523199081420899,0.5329153060913085
0.5557359695434571,0.5352104187011718
0.5507497787475586,0.5352104187011718
0.5497713088989258,0.5355491638183594
0.5554183959960938,0.5355491638183594
0.5515159606933594,0.5305778503417968
0.5475442886352538,0.5305778503417968
0.5542076110839843,0.5368949890136718
0.5542350769042969,0.5368949890136718
0.5483608245849609,0.5307186126708984
0.5512430191040039,0.5307186126708984
0.5554727554321289,0.5346771240234375
0.5507806777954102,0.5346771240234375
0.5501306533813476,0.5366827011108398
0.5564855575561524,0.5366827011108398
0.5532577514648437,0.5338130950927734
0.5500791549682617,0.5338130950927734
0.5572866439819336,0.5424688339233398
0.5581077575683594,0.5424688339233398
0.5532829284667968,0.5389223098754883
0.5567367553710937,0.5389223098754883
0.5613750457763672,0.5451633453369140
0.5576614379882813,0.5451633453369140
0.5576871871948242,0.5492580413818359
0.5646823883056641,0.5492580413818359
0.5619020462036133,0.5479774475097656
0.5590238571166992,0.5479774475097656
0.5667675018310546,0.5575492858886718
0.5676727294921875,0.5575492858886718
0.5625772476196289,0.5540199279785156
0.5661964416503906,0.5540199279785156
0.5708890914916992,0.5601099014282226
0.5669666290283203,0.5601099014282226
0.5665449142456055,0.5636341094970703
0.5733427047729492,0.5636341094970703
0.5705480575561523,0.5614963531494140
0.5672195434570312,0.5614963531494140
0.5744659423828125,0.5700284957885742
0.5750524520874023,0.5700284957885742
0.5697669982910156,0.5654216766357422
0.5730903625488281,0.5654216766357422
0.5772691726684570,0.5703231811523437
0.5730148315429687,0.5703231811523437
0.5726675033569336,0.5730451583862305
0.5790996551513672,0.5730451583862305
0.5755828857421875,0.5698740005493164
0.5722389221191406,0.5698740005493164
0.5794029235839844,0.5776868820190429
0.5797519683837891,0.5776868820190429
0.5741621017456054,0.5727470397949218
0.5773653030395508,0.5727470397949218
0.5818536758422851,0.5774002075195312
0.5772954940795898,0.5774002075195312
0.5768091201782226,0.5798835754394531
0.5832555770874023,0.5798835754394531
0.5798183441162109,0.5769481658935547
0.5766185760498047,0.5769481658935547
0.5837396621704102,0.5851398468017578
0.5842763900756835,0.5851398468017578
0.5790710449218750,0.5804506301879883
0.5822565078735351,0.5804506301879883
0.5865903854370117,0.5855649948120117
0.5823326110839844,0.5855649948120117
0.5819103240966796,0.5886320114135742
0.5884832382202149,0.5886320114135742
0.5852296829223632,0.5860519409179688
0.5819869995117187,0.5860519409179688
0.5897111892700195,0.5947242736816406
0.5900711059570313,0.5947242736816406
0.5848474502563477,0.5905454635620117
0.5883487701416016,0.5905454635620117
0.5926603317260742,0.5960660934448242
0.5885873794555664,0.5960660934448242
0.5883098602294922,0.5993751525878906
0.5950458526611327,0.5993751525878906
0.5921745300292969,0.5973020553588867
0.5889215469360352,0.5973020553588867
0.5962635040283203,0.6061826705932617
0.5969375610351563,0.6061826705932617
0.5918632507324219,0.6021772384643554
0.5953273773193359,0.6021772384643554
0.5996669769287110,0.6078689575195312
0.5956684112548828,0.6078689575195312
0.5956752777099609,0.6113376617431641
0.6021228790283203,0.6113376617431641
0.5988750457763672,0.6090351104736328
0.5957239151000976,0.6090351104736328
0.6031763076782226,0.6178127288818359
0.6038858413696289,0.6178127288818359
0.5984098434448242,0.6134616851806640
0.6018699645996094,0.6134616851806640
0.6064910888671875,0.6188735961914062
0.6022573471069336,0.6188735961914062
0.6017663955688476,0.6218782424926758
0.6082975387573242,0.6218782424926758
0.6049409866333008,0.6194103240966796
0.6017417907714844,0.6194103240966796
0.6091094970703125,0.6279264450073242
0.6097360610961914,0.6279264450073242
0.6045026779174805,0.6234088897705078
0.6077636718750000,0.6234088897705078
0.6120861053466796,0.6283882141113281
0.6078643798828125,0.6283882141113281
0.6073705673217773,0.6313419342041016
0.6139612197875977,0.6313419342041016
0.6105611801147460,0.6286537170410156
0.6072595596313476,0.6286537170410156
0.6149179458618164,0.6370765686035156
0.6153219223022460,0.6370765686035156
0.6096599578857421,0.6322494506835937
0.6130823135375977,0.6322494506835937
0.6173154830932617,0.6371028900146484
0.6129741668701172,0.6371028900146484
0.6125484466552734,0.6400485992431640
0.6189594268798828,0.6400485992431640
0.6157865524291992,0.6370204925537110
0.6122823715209961,0.6370204925537110
0.6196346282958984,0.6452161788940429
0.6199991226196289,0.6452161788940429
0.6143777847290038,0.6401464462280273
0.6176548004150391,0.6401464462280273
0.6219617843627929,0.6447761535644531
0.6173887252807617,0.6447761535644531
0.6169893264770507,0.6469739913940430
0.6230993270874023,0.6469739913940430
0.6191019058227539,0.6427127838134765
0.6151966094970703,0.6427127838134765
0.6218198776245117,0.6484325408935546
0.6212041854858398,0.6484325408935546
0.6142084121704101,0.6388641357421875
0.6155811309814453,0.6388641357421875
0.6179225921630859,0.6356100082397461
0.6102224349975586,0.6356100082397461
0.6059944152832031,0.6249652862548828
0.6074197769165038,0.6249652862548828
0.5983892440795898,0.6022556304931640
0.5884620666503906,0.6022556304931640
0.5897506713867188,0.5897283554077148
0.5839187622070312,0.5897283554077148
0.5731790542602538,0.5667343139648438
0.5712724685668945,0.5667343139648438
0.5715642929077148,0.5580162048339844
0.5635992050170898,0.5580162048339844
0.5604829788208008,0.5512264251708984
0.5643493652343750,0.5512264251708984
0.5588029861450196,0.5412454605102539
0.5536005020141601,0.5412454605102539
0.5598518371582031,0.5444652557373046
0.5587308883666992,0.5444652557373046
0.5519250869750977,0.5355548858642578
0.5541440963745117,0.5355548858642578
0.5574279785156250,0.5371879577636719
0.5520818710327148,0.5371879577636719
0.5508275985717773,0.5370929718017577
0.5565353393554687,0.5370929718017577
0.5524806976318359,0.5316329956054687
0.5483264923095703,0.5316329956054687
0.5550773620605468,0.5376668930053711
0.5549062728881836,0.5376668930053711
0.5487722396850586,0.5310195922851563
0.5515903472900391,0.5310195922851563
0.5553274154663086,0.5343372344970703
0.5505638122558594,0.5343372344970703
0.5501300811767578,0.5360893249511719
0.5561405181884765,0.5360893249511719
0.5524755477905273,0.5322916030883789
0.5491121292114257,0.5322916030883789
0.5564741134643555,0.5404706954956054
0.5570520401000977,0.5404706954956054
0.5516263961791992,0.5361024856567382
0.5553337097167969,0.5361024856567382
0.5602117538452148,0.5420099258422851
0.5560426712036133,0.5420099258422851
0.5559150695800781,0.5461103439331054
0.5628810882568359,0.5461103439331054
0.5599742889404297,0.5447450637817383
0.5572019577026367,0.5447450637817383
0.5649593353271484,0.5546241760253906
0.5659160614013672,0.5546241760253906
0.5612302780151367,0.5514358520507813
0.5649370193481446,0.5514358520507813
0.5696599960327148,0.5577730178833008
0.5656494140625000,0.5577730178833008
0.5656528472900391,0.5618499755859375
0.5725490570068359,0.5618499755859375
0.5694940567016601,0.5598758697509766
0.5665048599243164,0.5598758697509766
0.5742650985717773,0.5690608978271484
0.5748453140258789,0.5690608978271484
0.5694248199462890,0.5648099899291992
0.5729816436767577,0.5648099899291992
0.5773761749267577,0.5700931549072266
0.5730342864990234,0.5700931549072266
0.5726011276245117,0.5730142593383789
0.5791648864746094,0.5730142593383789
0.5759599685668945,0.5700262069702148
0.5723699569702149,0.5700262069702148
0.5796678543090820,0.5779363632202148
0.5799665451049805,0.5779363632202148
0.5744848251342773,0.5729003906250000
0.5777732849121093,0.5729003906250000
0.5817575454711914,0.5774585723876953
0.5773784637451171,0.5774585723876953
0.5771804809570312,0.5798921585083008
0.5833831787109375,0.5798921585083008
0.5798303604125976,0.5766809463500976
0.5764228820800781,0.5766809463500976
0.5836595535278321,0.5847330093383789
0.5840303421020507,0.5847330093383789
0.5785022735595703,0.5798480987548827
0.5818559646606445,0.5798480987548827
0.5863998413085937,0.5847799301147460
0.5818284988403321,0.5847799301147460
0.5815750122070312,0.5876020431518555
0.5881067276000976,0.5876020431518555
0.5846563339233398,0.5849779129028320
0.5814577102661133,0.5849779129028320
0.5888694763183594,0.5935203552246093
0.5892923355102538,0.5935203552246093
0.5841997146606445,0.5891389846801758
0.5875934600830078,0.5891389846801758
0.5919073104858398,0.5943506240844726
0.5876295089721679,0.5943506240844726
0.5873359680175781,0.5976682662963867
0.5940713882446289,0.5976682662963867
0.5906827926635742,0.5953577041625976
0.5875682830810547,0.5953577041625976
0.5954572677612304,0.6042331695556641
0.5957147598266601,0.6042331695556641
0.5905666351318359,0.6000761032104492
0.5940599441528320,0.6000761032104492
0.5984601974487305,0.6054805755615235
0.5942968368530274,0.6054805755615235
0.5939540863037109,0.6089601516723633
0.6006242752075195,0.6089601516723633
0.5976528167724610,0.6066341400146484
0.5943380355834961,0.6066341400146484
0.6018379211425781,0.6152332305908202
0.6023128509521484,0.6152332305908202
0.5969141006469726,0.6110967636108399
0.6005167007446289,0.6110967636108399
0.6046274185180663,0.6161853790283203
0.6004508972167969,0.6161853790283203
0.6004606246948242,0.6196317672729492
0.6068510055541992,0.6196317672729492
0.6034515380859374,0.6167243957519531
0.6003713607788086,0.6167243957519531
0.6077556610107422,0.6253818511962891
0.6080955505371094,0.6253818511962891
0.6027963638305663,0.6208213806152344
0.6062496185302734,0.6208213806152344
0.6107557296752929,0.6259037017822265
0.6062530517578125,0.6259037017822265
0.6058593750000000,0.6289129257202148
0.6123893737792968,0.6289129257202148
0.6088737487792969,0.6260976791381836
0.6056728363037109,0.6260976791381836
0.6130519866943359,0.6344501495361328
0.6133586883544921,0.6344501495361328
0.6082843780517578,0.6297283172607422
0.6115974426269531,0.6297283172607422
0.6156864166259766,0.6345857620239258
0.6113061904907227,0.6345857620239258
0.6108758926391601,0.6374473571777344
0.6174242019653320,0.6374473571777344
0.6138484954833984,0.6343809127807617
0.6104850769042969,0.6343809127807617
0.6181365966796875,0.6424776077270508
0.6181966781616210,0.6424776077270508
0.6126731872558594,0.6374605178833007
0.6160394668579101,0.6374605178833007
0.6200242996215820,0.6419677734375000
0.6156091690063477,0.6419677734375000
0.6149791717529297,0.6439773559570312
0.6210634231567382,0.6439773559570312
0.6172708511352539,0.6396263122558593
0.6130353927612304,0.6396263122558593
0.6195236206054687,0.6444568634033203
0.6183351516723633,0.6444568634033203
0.6113273620605468,0.6337114334106445
0.6124786376953125,0.6337114334106445
0.6138856887817382,0.6288866043090821
0.6058479309082031,0.6288866043090821
0.6013252258300781,0.6161006927490235
0.6018722534179687,0.6161006927490235
0.5835296630859375,0.5837728500366210
0.5835296630859375,0.5837728500366210
0.5835296630859375,0.5851552963256835
0.5774351119995117,0.5674787521362304
0.5677453994750976,0.5674787521362304
0.5684228897094726,0.5604257583618164
0.5684228897094726,0.5604257583618164
0.5603044509887695,0.5452846527099610
0.5603044509887695,0.5452846527099610
0.5626344680786133,0.5458356857299804
0.5626344680786133,0.5458356857299804
0.5527290344238281,0.5393314361572266
0.5527290344238281,0.5393314361572266
0.5567905426025390,0.5361391067504883
0.5567905426025390,0.5361391067504883
0.5543512344360352,0.5394693374633789
0.5543512344360352,0.5394693374633789
0.5506668090820312,0.5312444686889648
0.5506668090820312,0.5312444686889648
0.5558109283447266,0.5362461090087890
0.5558109283447266,0.5362461090087890
0.5488140106201171,0.5329341888427734
0.5488140106201171,0.5329341888427734
0.5538848876953125,0.5318487167358398
0.5538848876953125,0.5318487167358398
0.5524726867675781,0.5369024276733398
0.5524726867675781,0.5369024276733398
0.5495676040649414,0.5305046081542969
0.5495676040649414,0.5305046081542969
0.5567012786865234,0.5375295639038086
0.5567012786865234,0.5375295639038086
0.5507761001586914,0.5362426757812500
0.5507761001586914,0.5362426757812500
0.5570995330810546,0.5375272750854492
0.5570995330810546,0.5375272750854492
0.5569152832031250,0.5451284408569336
0.5569152832031250,0.5451284408569336
0.5563488006591797,0.5411699295043945
0.5563488006591797,0.5411699295043945
0.5642807006835937,0.5501592636108398
0.5642807006835937,0.5501592636108398
0.5591749191284180,0.5502313613891602
0.5591749191284180,0.5502313613891602
0.5658491134643554,0.5523204803466797
0.5658491134643554,0.5523204803466797
0.5666318893432617,0.5603485107421875
0.5666318893432617,0.5603485107421875
0.5654840469360352,0.5559265136718750
0.5654840469360352,0.5559265136718750
0.5731069564819335,0.5641645431518555
0.5731069564819335,0.5641645431518555
0.5669523239135742,0.5634092330932617
0.5669523239135742,0.5634092330932617
0.5738382339477539,0.5645708084106446
0.5738382339477539,0.5645708084106446
0.5735206604003906,0.5712261199951172
0.5735206604003906,0.5712261199951172
0.5715991973876953,0.5656974792480468
0.5715991973876953,0.5656974792480468
0.5782041549682617,0.5729415893554687
0.5754713058471680,0.5729415893554687
0.5722927093505860,0.5712438583374023
0.5722927093505860,0.5712438583374023
0.5784736633300781,0.5717353820800781
0.5784736633300781,0.5717353820800781
0.5777509689331054,0.5779249191284179
0.5777509689331054,0.5779249191284179
0.5750816345214843,0.5720912933349609
0.5750816345214843,0.5720912933349609
0.5825357437133789,0.5793308258056641
0.5825357437133789,0.5793308258056641
0.5763130187988281,0.5779026031494140
0.5763130187988281,0.5779026031494140
0.5823246002197265,0.5783929824829102
0.5823246002197265,0.5783929824829102
0.5814828872680664,0.5849870681762696
0.5814828872680664,0.5849870681762696
0.5801067352294922,0.5797845840454101
0.5801067352294922,0.5797845840454101
0.5874727249145507,0.5873868942260742
0.5874727249145507,0.5873868942260742
0.5814788818359374,0.5865028381347656
0.5814788818359374,0.5865028381347656
0.5873731613159180,0.5875854492187500
0.5873731613159180,0.5875854492187500
0.5876735687255860,0.5946664810180664
0.5876735687255860,0.5946664810180664
0.5861188888549804,0.5898445129394531
0.5861188888549804,0.5898445129394531
0.5936256408691406,0.5979269027709960
0.5936256408691406,0.5979269027709960
0.5874675750732422,0.5972923278808594
0.5874675750732422,0.5972923278808594
0.5943420410156249,0.5987005233764648
0.5943420410156249,0.5987005233764648
0.5945142745971680,0.6059171676635742
0.5983480453491211,0.6059171676635742
0.5929693222045899,0.6011604309082031
0.5929693222045899,0.6011604309082031
0.5998523712158202,0.6093194961547851
0.5998523712158202,0.6093194961547851
0.5946058273315430,0.6087238311767578
0.5946058273315430,0.6087238311767578
0.6011054992675781,0.6099277496337890
0.6011054992675781,0.6099277496337890
0.6009824752807617,0.6169773101806640
0.6009824752807617,0.6169773101806640
0.5988676071166992,0.6118989944458008
0.5988676071166992,0.6118989944458008
0.6066364288330078,0.6197851181030273
0.6066364288330078,0.6197851181030273
0.6008766174316406,0.6189422607421875
0.6008766174316406,0.6189422607421875
0.6069728851318359,0.6199893951416016
0.6069728851318359,0.6199893951416016
0.6062673568725586,0.6267127990722656
0.6062673568725586,0.6267127990722656
0.6050760269165039,0.6216951370239258
0.6050760269165039,0.6216951370239258
0.6121456146240234,0.6292797088623047
0.6121456146240234,0.6292797088623047
0.6061597824096679,0.6281822204589843
0.6061597824096679,0.6281822204589843
0.6119373321533202,0.6289701461791992
0.6119373321533202,0.6289701461791992
0.6120506286621094,0.6357015609741211
0.6120506286621094,0.6357015609741211
0.6102991104125977,0.6303354263305664
0.6102991104125977,0.6303354263305664
0.6173561096191406,0.6378021240234375
0.6173561096191406,0.6378021240234375
0.6106842041015624,0.6363842010498046
0.6106842041015624,0.6363842010498046
0.6172021865844727,0.6370101928710937
0.6172021865844727,0.6370101928710937
0.6167541503906250,0.6433696746826172
0.6167541503906250,0.6433696746826172
0.6144178390502929,0.6373426437377929
0.6144178390502929,0.6373426437377929
0.6204500198364258,0.6435121536254883
0.6204500198364258,0.6435121536254883
0.6134902954101562,0.6396915435791015
0.6134902954101562,0.6396915435791015
0.6170064926147460,0.6353387832641602
0.6170064926147460,0.6353387832641602
0.6122171401977539,0.6333881378173828
0.6122171401977539,0.6333881378173828
0.6024438858032226,0.6134748458862305
0.6024438858032226,0.6134748458862305
0.5987560272216796,0.6002763748168946
0.5987560272216796,0.6002763748168946
0.5800226211547851,0.5786951065063476
0.5800226211547851,0.5786951065063476
0.5747446060180664,0.5621423721313477
0.5747446060180664,0.5621423721313477
0.5659395217895508,0.5563190460205077
0.5659395217895508,0.5563190460205077
0.5586112976074219,0.5422061920166016
0.5586112976074219,0.5422061920166016
0.5615066528320313,0.5432704925537110
0.5615066528320313,0.5432704925537110
0.5523067474365234,0.5372880935668946
0.5523067474365234,0.5372880935668946
0.5553319931030273,0.5339183807373047
0.5553319931030273,0.5339183807373047
0.5533441543579102,0.5371061325073242
0.5533441543579102,0.5371061325073242
0.5496185302734374,0.5287765502929688
0.5496185302734374,0.5287765502929688
0.5550018310546875,0.5335859298706055
0.5550018310546875,0.5335859298706055
0.5471014022827149,0.5300313949584960
0.5471014022827149,0.5300313949584960
0.5522712707519531,0.5287427902221680
0.5522712707519531,0.5287427902221680
0.5510026931762695,0.5335155487060547
0.5510026931762695,0.5335155487060547
0.5481090545654297,0.5267377853393554
0.5481090545654297,0.5267377853393554
0.5540840148925781,0.5330801010131836
0.5540840148925781,0.5330801010131836
0.5480741500854492,0.5315065383911133
0.5480741500854492,0.5315065383911133
0.5542373657226562,0.5321983337402344
0.5542373657226562,0.5321983337402344
0.5542505264282226,0.5391305923461914
0.5542505264282226,0.5391305923461914
0.5523828506469727,0.5346988677978516
0.5523828506469727,0.5346988677978516
0.5604990005493163,0.5432258605957031
0.5604990005493163,0.5432258605957031
0.5552541732788085,0.5432298660278320
0.5552541732788085,0.5432298660278320
0.5620719909667968,0.5449396133422851
0.5620719909667968,0.5449396133422851
0.5619941711425781,0.5524612426757812
0.5619941711425781,0.5524612426757812
0.5610483169555663,0.5479162216186523
0.5610483169555663,0.5479162216186523
0.5685424804687500,0.5559539794921875
0.5685424804687500,0.5559539794921875
0.5627798080444336,0.5552398681640625
0.5627798080444336,0.5552398681640625
0.5685985565185546,0.5559402465820312
0.5685985565185546,0.5559402465820312
0.5687387466430663,0.5624244689941406
0.5687387466430663,0.5624244689941406
0.5667720794677734,0.5569101333618164
0.5667720794677734,0.5569101333618164
0.5734960556030273,0.5639430999755859
0.5734960556030273,0.5639430999755859
0.5668395996093750,0.5621784210205077
0.5668395996093750,0.5621784210205077
0.5729730606079101,0.5622516632080078
0.5729730606079101,0.5622516632080078
0.5723728179931641,0.5683610916137695
0.5723728179931641,0.5683610916137695
0.5699546813964843,0.5622957229614257
0.5699546813964843,0.5622957229614257
0.5764623641967773,0.5692726135253906
0.5764623641967773,0.5692726135253906
0.5705532073974610,0.5677042007446289
0.5705532073974610,0.5677042007446289
0.5765499114990235,0.5678661346435546
0.5765499114990235,0.5678661346435546
0.5758775711059571,0.5743629455566406
0.5758775711059571,0.5743629455566406
0.5734302520751953,0.5687438964843750
0.5734302520751953,0.5687438964843750
0.5809822082519531,0.5762855529785156
0.5809822082519531,0.5762855529785156
0.5749654769897461,0.5750953674316406
0.5749654769897461,0.5750953674316406
0.5810943603515625,0.5758907318115234
0.5810943603515625,0.5758907318115234
0.5805662155151367,0.5827526092529297
0.5805662155151367,0.5827526092529297
0.5792095184326171,0.5777315139770508
0.5792095184326171,0.5777315139770508
0.5866533279418945,0.5854545593261719
0.5866533279418945,0.5854545593261719
0.5807258605957031,0.5847043991088867
0.5807258605957031,0.5847043991088867
0.5866395950317382,0.5857612609863281
0.5866395950317382,0.5857612609863281
0.5870126724243164,0.5929201126098632
0.5870126724243164,0.5929201126098632
0.5854814529418945,0.5880615234375000
0.5854814529418945,0.5880615234375000
0.5928279876708984,0.5958669662475585
0.5928279876708984,0.5958669662475585
0.5865623474121093,0.5951271057128906
0.5865623474121093,0.5951271057128906
0.5933904647827148,0.5962446212768554
0.5933904647827148,0.5962446212768554
0.5934757232666016,0.6034727096557617
0.5934757232666016,0.6034727096557617
0.5916618347167969,0.5985139846801758
0.5916618347167969,0.5985139846801758
0.5986375808715820,0.6064567565917969
0.5986375808715820,0.6064567565917969
0.5933195114135742,0.6058673858642578
0.5933195114135742,0.6058673858642578
0.5997842788696289,0.6069007873535156
0.5997842788696289,0.6069007873535156
0.5996704101562500,0.6137386322021484
0.5996704101562500,0.6137386322021484
0.5974433898925781,0.6091060638427734
0.5974433898925781,0.6091060638427734
0.6052946090698242,0.6169549942016601
0.6052946090698242,0.6169549942016601
0.5994489669799804,0.6161401748657226
0.5994489669799804,0.6161401748657226
0.6055778503417969,0.6170207977294921
0.6055778503417969,0.6170207977294921
0.6049867630004883,0.6237316131591797
0.6049867630004883,0.6237316131591797
0.6035923004150391,0.6186000823974609
0.6035923004150391,0.6186000823974609
0.6107419967651367,0.6260072708129882
0.6107419967651367,0.6260072708129882
0.6045885086059570,0.6247432708740234
0.6108095169067382,0.6247432708740234
0.6101068496704102,0.6251449584960938
0.6053936004638671,0.6251449584960938
0.6100233078002929,0.6313528060913086
0.6100233078002929,0.6313528060913086
0.6074918746948242,0.6247112274169921
0.6074918746948242,0.6247112274169921
0.6130645751953124,0.6293209075927734
0.6130645751953124,0.6293209075927734
0.6037101745605469,0.6226655960083007
0.6037101745605469,0.6226655960083007
0.6053867340087891,0.6135869979858398
0.6053867340087891,0.6135869979858398
0.5963516235351562,0.6036077499389648
0.5963516235351562,0.6036077499389648
0.5823932647705078,0.5778327941894531
0.5823932647705078,0.5778327941894531
0.5772319793701172,0.5667463302612304
0.5693275451660156,0.5667463302612304
0.5655235290527344,0.5512315750122070
0.5624416351318359,0.5512315750122070
0.5544662475585938,0.5378677368164062
0.5557508468627930,0.5378677368164062
0.5580471038818359,0.5364074707031250
0.5517923355102539,0.5364074707031250
0.5502021789550781,0.5345701217651367
0.5551826477050781,0.5345701217651367
0.5506153106689453,0.5274415969848633
0.5460491180419922,0.5274415969848633
0.5523450851440429,0.5321388244628906
0.5514896392822265,0.5321388244628906
0.5452451705932617,0.5241411209106445
0.5479305267333984,0.5241411209106445
0.5509952545166016,0.5261049270629883
0.5456720352172851,0.5261049270629883
0.5450191497802734,0.5265518188476562
0.5505649566650390,0.5265518188476562
0.5461875915527343,0.5211450576782226
0.5422439575195312,0.5211450576782226
0.5492254257202148,0.5275028228759765
0.5487997055053710,0.5275028228759765
0.5427486419677734,0.5209241867065429
0.5459821701049804,0.5209241867065429
0.5498662948608398,0.5243299484252929
0.5448612213134766,0.5243299484252929
0.5444217681884765,0.5262456893920898
0.5505483627319335,0.5262456893920898
0.5467626571655273,0.5225034713745117
0.5435823440551758,0.5225034713745117
0.5510702133178711,0.5307987213134765
0.5513494491577148,0.5307987213134765
0.5462568283081054,0.5263967514038086
0.5499475479125976,0.5263967514038086
0.5541034698486328,0.5317628860473632
0.5498559951782226,0.5317628860473632
0.5499521255493164,0.5354713439941406
0.5566532135009765,0.5354713439941406
0.5531215667724609,0.5331533432006835
0.5502016067504882,0.5331533432006835
0.5583166122436524,0.5422325134277344
0.5584333419799804,0.5422325134277344
0.5532726287841797,0.5379312515258788
0.5570577621459961,0.5379312515258788
0.5612062454223633,0.5431102752685547
0.5567893981933594,0.5431102752685547
0.5567424774169921,0.5461812973022461
0.5632810592651367,0.5461812973022461
0.5598163604736328,0.5430656433105469
0.5564575195312500,0.5430656433105469
0.5635700225830078,0.5510850906372070
0.5636123657226563,0.5510850906372070
0.5582754135131835,0.5457229614257812
0.5617607116699218,0.5457229614257812
0.5655681610107421,0.5499000549316406
0.5608451843261718,0.5499000549316406
0.5607055664062500,0.5521362304687499
0.5666570663452148,0.5521362304687499
0.5628055572509766,0.5481513977050781
0.5593465805053711,0.5481513977050781
0.5666593551635742,0.5555969238281250
0.5665157318115234,0.5555969238281250
0.5608188629150390,0.5499389648437499
0.5642721176147460,0.5499389648437499
0.5682323455810546,0.5539638519287109
0.5633525848388672,0.5539638519287109
0.5629760742187500,0.5561885833740234
0.5692085266113281,0.5561885833740234
0.5653501510620117,0.5523456573486328
0.5619220733642578,0.5523456573486328
0.5693595886230468,0.5601871490478515
0.5693395614624023,0.5601871490478515
0.5640821456909180,0.5550189971923828
0.5675033569335938,0.5550189971923828
0.5713829040527344,0.5594392776489258
0.5668024063110352,0.5594392776489258
0.5666564941406250,0.5622859954833984
0.5730920791625976,0.5622859954833984
0.5692480087280273,0.5590112686157226
0.5660442352294922,0.5590112686157226
0.5738714218139648,0.5673477172851562
0.5739023208618164,0.5673477172851562
0.5683788299560547,0.5624101638793945
0.5721027374267578,0.5624101638793945
0.5761264801025391,0.5672315597534180
0.5716157913208008,0.5672315597534180
0.5713680267333984,0.5703975677490234
0.5778179168701172,0.5703975677490234
0.5745025634765625,0.5673986434936523
0.5711597442626953,0.5673986434936523
0.5788135528564453,0.5756715774536133
0.5789165496826172,0.5756715774536133
0.5735498428344726,0.5710258483886719
0.5772537231445313,0.5710258483886719
0.5812883377075195,0.5758375167846680
0.5767673492431641,0.5758375167846680
0.5769395828247070,0.5790435791015625
0.5831920623779296,0.5790435791015625
0.5795494079589844,0.5759382247924805
0.5763284683227539,0.5759382247924805
0.5839891433715820,0.5844314575195312
0.5842134475708007,0.5844314575195312
0.5787397384643554,0.5797565460205077
0.5824905395507812,0.5797565460205077
0.5868822097778320,0.5848543167114257
0.5822050094604492,0.5848543167114257
0.5821277618408203,0.5880632400512695
0.5886371612548827,0.5880632400512695
0.5849990844726562,0.5850408554077148
0.5817718505859375,0.5850408554077148
0.5895269393920898,0.5936897277832031
0.5897123336791992,0.5936897277832031
0.5845779418945313,0.5892677307128906
0.5882738113403320,0.5892677307128906
0.5922855377197266,0.5942047119140624
0.5878274917602538,0.5942047119140624
0.5878309249877930,0.5975795745849609
0.5942956924438476,0.5975795745849609
0.5906055450439452,0.5946201324462891
0.5874378204345703,0.5946201324462891
0.5954555511474610,0.6033079147338867
0.5954498291015625,0.6033079147338867
0.5899869918823242,0.5985569000244141
0.5937589645385742,0.5985569000244141
0.5977741241455078,0.6033868789672852
0.5931564331054687,0.6033868789672852
0.5930706024169922,0.6062805175781250
0.5994461059570312,0.6062805175781250
0.5959459304809570,0.6028730392456054
0.5923542022705078,0.6028730392456054
0.5995594024658203,0.6099815368652344
0.5990890502929688,0.6099815368652344
0.5928531646728515,0.6023746490478515
0.5951356887817383,0.6023746490478515
0.5972682952880859,0.6008914947509766
0.5900196075439453,0.6008914947509766
0.5867460250854492,0.5920383453369140
0.5882806777954102,0.5920383453369140
0.5799242019653320,0.5725587844848633
0.5713937759399413,0.5725587844848633
0.5740802764892577,0.5647750854492187
0.5694082260131835,0.5647750854492187
0.5600687026977539,0.5464931488037109
0.5599634170532226,0.5464931488037109
0.5612777709960938,0.5410623550415039
0.5538442611694335,0.5410623550415039
0.5516292572021484,0.5367422103881836
0.5559350967407226,0.5367422103881836
0.5506376266479492,0.5280910491943359
0.5458820343017577,0.5280910491943359
0.5520452499389649,0.5319042205810547
0.5508785247802734,0.5319042205810547
0.5446517944335937,0.5235385894775391
0.5470767974853515,0.5235385894775391
0.5500534057617187,0.5248804092407227
0.5445024490356445,0.5248804092407227
0.5435239791870117,0.5249977111816406
0.5489255905151367,0.5249977111816406
0.5445848464965820,0.5192138671875000
0.5406715393066406,0.5192138671875000
0.5475826263427734,0.5250675201416015
0.5469766616821289,0.5250675201416015
0.5409233093261718,0.5181472778320312
0.5438661575317383,0.5181472778320312
0.5472415924072266,0.5209178924560547
0.5422388076782226,0.5209178924560547
0.5415687561035156,0.5221452713012695
0.5473697662353515,0.5221452713012695
0.5436510086059571,0.5176683425903320
0.5399362564086914,0.5176683425903320
0.5469806671142577,0.5245531082153320
0.5468078613281250,0.5245531082153320
0.5413261413574219,0.5191629409790038
0.5448560714721680,0.5191629409790038
0.5487424850463867,0.5235889434814452
0.5441150665283203,0.5235889434814452
0.5443691253662110,0.5267440795898437
0.5507543563842773,0.5267440795898437
0.5473119735717773,0.5240701675415039
0.5442975997924805,0.5240701675415039
0.5520212173461914,0.5328804016113281
0.5522809982299804,0.5328804016113281
0.5471008300781249,0.5287748336791992
0.5510061264038085,0.5287748336791992
0.5553955078125000,0.5341655731201171
0.5509912490844726,0.5341655731201171
0.5510353088378906,0.5375347137451172
0.5575504302978516,0.5375347137451172
0.5539953231811523,0.5347715377807617
0.5509963989257812,0.5347715377807617
0.5583818435668945,0.5430828094482422
0.5584980010986328,0.5430828094482422
0.5533939361572265,0.5382396697998046
0.5568660736083985,0.5382396697998046
0.5606929779052734,0.5425397872924804
0.5560283660888672,0.5425397872924804
0.5557811737060546,0.5448200225830078
0.5619186401367188,0.5448200225830078
0.5579481124877930,0.5408763885498047
0.5544908523559570,0.5408763885498047
0.5619741439819336,0.5482406616210938
0.5616004943847656,0.5482406616210938
0.5559144973754883,0.5424230575561523
0.5592103958129883,0.5424230575561523
0.5629514694213867,0.5461086273193360
0.5581558227539062,0.5461086273193360
0.5577621459960938,0.5479957580566406
0.5637210845947266,0.5479957580566406
0.5602231979370117,0.5438919067382812
0.5565696716308594,0.5438919067382812
0.5637697219848633,0.5513677597045898
0.5637268066406250,0.5513677597045898
0.5580499649047851,0.5458282470703125
0.5615432739257812,0.5458282470703125
0.5652317047119141,0.5499401092529297
0.5605876922607421,0.5499401092529297
0.5606111526489258,0.5524457931518555
0.5666627883911133,0.5524457931518555
0.5629835128784180,0.5489198684692382
0.5596715927124023,0.5489198684692382
0.5671119689941406,0.5567802429199219
0.5670433044433594,0.5567802429199219
0.5616548538208007,0.5517654418945312
0.5652368545532226,0.5517654418945312
0.5694574356079102,0.5563859939575195
0.5648260116577148,0.5563859939575195
0.5645679473876953,0.5592327117919922
0.5709554672241210,0.5592327117919922
0.5673517227172852,0.5559276580810547
0.5641147613525390,0.5559276580810547
0.5714389801025390,0.5641399383544922
0.5715848922729492,0.5641399383544922
0.5665317535400390,0.5593963623046875
0.5699426651000976,0.5593963623046875
0.5739171981811523,0.5640501022338867
0.5694774627685547,0.5640501022338867
0.5693790435791015,0.5669374465942383
0.5757505416870117,0.5669374465942383
0.5721960067749023,0.5638429641723632
0.5689676284790038,0.5638429641723632
0.5767227172851562,0.5720552444458008
0.5767009735107421,0.5720552444458008
0.5712919235229492,0.5672916412353516
0.5749105453491211,0.5672916412353516
0.5788896560668945,0.5720970153808593
0.5744304656982422,0.5720970153808593
0.5742942810058593,0.5750581741333007
0.5806371688842773,0.5750581741333007
0.5774311065673828,0.5721256256103515
0.5740367889404296,0.5721256256103515
0.5815143585205078,0.5804529190063477
0.5817827224731446,0.5804529190063477
0.5763965606689453,0.5757934570312500
0.5799808502197266,0.5757934570312500
0.5841630935668946,0.5806039810180664
0.5796655654907227,0.5806039810180664
0.5799018859863281,0.5838375091552734
0.5860937118530273,0.5838375091552734
0.5824493408203125,0.5808036804199218
0.5793817520141601,0.5808036804199218
0.5868375778198242,0.5891166687011719
0.5870389938354492,0.5891166687011719
0.5815961837768554,0.5844217300415039
0.5851633071899414,0.5844217300415039
0.5895584106445312,0.5891401290893554
0.5848400115966796,0.5891401290893554
0.5846248626708984,0.5920137405395508
0.5909465789794922,0.5920137405395508
0.5872673034667969,0.5886445999145508
0.5840394973754882,0.5886445999145508
0.5913156509399414,0.5962366104125977
0.5911176681518554,0.5962366104125977
0.5856519699096679,0.5902490615844727
0.5885066986083984,0.5902490615844727
0.5914415359497071,0.5915302276611328
0.5853069305419921,0.5915302276611328
0.5832624435424805,0.5877285003662109
0.5867351531982422,0.5877285003662109
0.5798498153686523,0.5734691619873047
0.5725610733032226,0.5734691619873047
0.5761539459228515,0.5679124832153321
0.5716730117797851,0.5679124832153321
0.5622179031372070,0.5495882034301758
0.5618333816528320,0.5495882034301758
0.5624879837036133,0.5432596206665039
0.5549503326416015,0.5432596206665039
0.5524389266967773,0.5379564285278320
0.5565748214721680,0.5379564285278320
0.5514181137084960,0.5287691116333008
0.5463752746582031,0.5287691116333008
0.5522048950195312,0.5319602966308593
0.5509895324707031,0.5319602966308593
0.5442981719970703,0.5230659484863281
0.5466751098632813,0.5230659484863281
0.5495687484741211,0.5242578506469726
0.5439714431762696,0.5242578506469726
0.5432229995727539,0.5239053726196289
0.5483980178833008,0.5239053726196289
0.5408380508422851,0.5198232650756835
0.5462293624877930,0.5198232650756835
0.5449550628662109,0.5178731918334961
0.5396175384521484,0.5178731918334961
0.5436258316040039,0.5222705841064453
0.5436258316040039,0.5222705841064453
0.5405685424804687,0.5149646759033203
0.5405685424804687,0.5149646759033203
0.5463237762451172,0.5204492568969726
0.5463237762451172,0.5204492568969726
0.5387626647949219,0.5174760818481445
0.5387626647949219,0.5174760818481445
0.5443828582763671,0.5167785644531250
0.5443828582763671,0.5167785644531250
0.5434398651123047,0.5222024917602539
0.5434398651123047,0.5222024917602539
0.5409227371215820,0.5160867691040039
0.5409227371215820,0.5160867691040039
0.5474693298339843,0.5231775283813477
0.5474693298339843,0.5231775283813477
0.5418182373046875,0.5219873428344727
0.5418182373046875,0.5219873428344727
0.5481988906860351,0.5228811264038086
0.5481988906860351,0.5228811264038086
0.5480129241943359,0.5298866271972656
0.5480129241943359,0.5298866271972656
0.5461252212524413,0.5249668121337890
0.5461252212524413,0.5249668121337890
0.5538396835327148,0.5327579498291015
0.5538396835327148,0.5327579498291015
0.5480134963989257,0.5318069458007812
0.5480134963989257,0.5318069458007812
0.5541721343994140,0.5325078964233398
0.5541721343994140,0.5325078964233398
0.5535049438476562,0.5389635086059570
0.5535049438476562,0.5389635086059570
0.5518209457397460,0.5332580566406250
0.5518209457397460,0.5332580566406250
0.5585866928100586,0.5401296615600586
0.5585866928100586,0.5401296615600586
0.5521316528320312,0.5382350921630860
0.5521316528320312,0.5382350921630860
0.5572940826416015,0.5377126693725586
0.5572940826416015,0.5377126693725586
0.5568157196044922,0.5433465957641601
0.5568157196044922,0.5433465957641601
0.5543174743652344,0.5369213104248046
0.5543174743652344,0.5369213104248046
0.5606500625610351,0.5432292938232421
0.5606500625610351,0.5432292938232421
0.5535644531250000,0.5409370422363281
0.5535644531250000,0.5409370422363281
0.5595434188842773,0.5406475067138672
0.5595434188842773,0.5406475067138672
0.5587160110473632,0.5463975906372071
0.5587160110473632,0.5463975906372071
0.5562841415405273,0.5401782989501953
0.5562841415405273,0.5401782989501953
0.5624719619750976,0.5469829559326171
0.5624719619750976,0.5469829559326171
0.5566268920898437,0.5452051162719727
0.5566268920898437,0.5452051162719727
0.5624588012695312,0.5453578948974609
0.5624588012695312,0.5453578948974609
0.5618579864501952,0.5515462875366210
0.5618579864501952,0.5515462875366210
0.5592927932739258,0.5457859039306641
0.5592927932739258,0.5457859039306641
0.5667749404907226,0.5531650543212890
0.5667749404907226,0.5531650543212890
0.5607250213623046,0.5516864776611328
0.5607250213623046,0.5516864776611328
0.5667457580566406,0.5523204803466797
0.5667457580566406,0.5523204803466797
0.5658313751220703,0.5587772369384766
0.5658313751220703,0.5587772369384766
0.5644918441772461,0.5534305572509766
0.5644918441772461,0.5534305572509766
0.5716135025024414,0.5608486175537110
0.5716135025024414,0.5608486175537110
0.5654434204101563,0.5595657348632812
0.5654434204101563,0.5595657348632812
0.5711402893066406,0.5601121902465820
0.5711402893066406,0.5601121902465820
0.5711940765380860,0.5666633605957031
0.5711940765380860,0.5666633605957031
0.5693675994873046,0.5613246917724609
0.5693675994873046,0.5613246917724609
0.5764566421508789,0.5687896728515625
0.5764566421508789,0.5687896728515625
0.5699483871459960,0.5675554275512695
0.5699483871459960,0.5675554275512695
0.5766288757324218,0.5683187484741211
0.5766288757324218,0.5683187484741211
0.5762918472290038,0.5749242782592773
0.5762918472290038,0.5749242782592773
0.5745145797729492,0.5696868896484375
0.5745145797729492,0.5696868896484375
0.5811750411987304,0.5772010803222656
0.5811750411987304,0.5772010803222656
0.5756395339965820,0.5759828567504882
0.5756395339965820,0.5759828567504882
0.5818960189819335,0.5768978118896484
0.5818960189819335,0.5768978118896484
0.5815675735473632,0.5834203720092773
0.5815675735473632,0.5834203720092773
0.5792633056640625,0.5780628204345702
0.5792633056640625,0.5780628204345702
0.5868364334106445,0.5856084823608398
0.5868364334106445,0.5856084823608398
0.5807058334350585,0.5842134475708007
0.5868684768676757,0.5842134475708007
0.5866693496704102,0.5845933914184570
0.5866693496704102,0.5845933914184570
0.5856027603149414,0.5906953811645508
0.5856027603149414,0.5906953811645508
0.5837156295776367,0.5843227386474609
0.5837156295776367,0.5843227386474609
0.5896047592163086,0.5892934799194336
0.5896047592163086,0.5892934799194336
0.5807882308959961,0.5827846527099609
0.5807882308959961,0.5827846527099609
0.5813272476196288,0.5740991592407226
0.5813272476196288,0.5740991592407226
0.5738130569458008,0.5677116394042968
0.5738130569458008,0.5677116394042968
0.5636238098144531,0.5487991333007812
0.5636238098144531,0.5487991333007812
0.5631151199340820,0.5447267532348633
0.5631151199340820,0.5447267532348633
0.5508619308471679,0.5349260330200195
0.5508619308471679,0.5349260330200195
0.5530986785888672,0.5291873931884765
0.5530986785888672,0.5291873931884765
0.5492013931274414,0.5304519653320312
0.5492013931274414,0.5304519653320312
0.5444681167602539,0.5205545425415039
0.5444681167602539,0.5205545425415039
0.5485719680786133,0.5240123748779296
0.5485719680786133,0.5240123748779296
0.5408311843872070,0.5194072723388672
0.5408311843872070,0.5194072723388672
0.5450099945068360,0.5169879913330078
0.5450099945068360,0.5169879913330078
0.5427543640136718,0.5207382202148437
0.5427543640136718,0.5207382202148437
0.5390213012695312,0.5127794265747070
0.5390213012695312,0.5127794265747070
0.5449687957763671,0.5179487228393554
0.5449687957763671,0.5179487228393554
