REDsignal,IRsignal
0.3457803726196289,0.2584779739379883
0.3412479400634765,0.2679605484008789
0.3412479400634765,0.2679605484008789
0.3373947143554688,0.2542213439941406
0.3373947143554688,0.2542213439941406
0.3499820709228516,0.2687049865722656
0.3499820709228516,0.2687049865722656
0.3340147018432617,0.2595983505249023
0.3340147018432617,0.2595983505249023
0.3476022720336914,0.2608514785766601
0.3476022720336914,0.2608514785766601
0.3434492111206054,0.2710344314575195
0.3434492111206054,0.2710344314575195
0.3396108627319336,0.2573112487792968
0.3396108627319336,0.2573112487792968
0.3523824691772461,0.2720415115356445
0.3523824691772461,0.2720415115356445
0.3360900878906250,0.2624868392944336
0.3360900878906250,0.2624868392944336
0.3493755340576172,0.2635923385620117
0.3493755340576172,0.2635923385620117
0.3448402404785156,0.2728815078735352
0.3448402404785156,0.2728815078735352
0.3403850555419922,0.2584928512573242
0.3403850555419922,0.2584928512573242
0.3525392532348633,0.2723711013793945
0.3431539535522461,0.2723711013793945
0.3357313156127930,0.2626001358032227
0.3357313156127930,0.2626001358032227
0.3480628967285156,0.2619626998901367
0.3480628967285156,0.2619626998901367
0.3421085357666016,0.2691278457641602
0.3421085357666016,0.2691278457641602
0.3355510711669922,0.2517568588256836
0.3355510711669922,0.2517568588256836
0.3449638366699219,0.2620153427124023
0.3449638366699219,0.2620153427124023
0.3246643066406250,0.2472078323364258
0.3246643066406250,0.2472078323364258
0.3337440490722656,0.2425975799560547
0.3337440490722656,0.2425975799560547
0.3255718231201172,0.2473766326904297
0.3255718231201172,0.2473766326904297
0.3178390502929687,0.2293436050415039
0.3178390502929687,0.2293436050415039
0.3277851104736328,0.2404312133789062
0.3277851104736328,0.2404312133789062
0.3094854354858398,0.2286455154418945
0.3094854354858398,0.2286455154418945
0.3211132049560547,0.2272951126098633
0.3211132049560547,0.2272951126098633
0.3156286239624023,0.2354862213134765
0.3156286239624023,0.2354862213134765
0.3101039886474609,0.2198215484619141
0.3101039886474609,0.2198215484619141
0.3218107223510742,0.2331247329711914
0.3218107223510742,0.2331247329711914
0.3048728942871093,0.2229789733886719
0.3048728942871093,0.2229789733886719
0.3176324844360351,0.2235099792480469
0.3176324844360351,0.2235099792480469
0.3133071899414062,0.2328025817871094
0.3133071899414062,0.2328025817871094
0.3089115142822266,0.2187887191772461
0.3089115142822266,0.2187887191772461
0.3221168518066406,0.2338045120239258
0.3221168518066406,0.2338045120239258
0.3066295623779297,0.2257690429687500
0.3066295623779297,0.2257690429687500
0.3204986572265625,0.2273220062255859
0.3204986572265625,0.2273220062255859
0.3175226211547851,0.2381864547729492
0.3175226211547851,0.2381864547729492
0.3138685226440430,0.2250709533691406
0.3138685226440430,0.2250709533691406
0.3276174545288086,0.2412071228027344
0.3276174545288086,0.2412071228027344
0.3125959396362304,0.2332242965698242
0.3125959396362304,0.2332242965698242
0.3269330978393555,0.2351984024047852
0.3269330978393555,0.2351984024047852
0.3241418838500976,0.2463443756103516
0.3241418838500976,0.2463443756103516
0.3205741882324218,0.2336517333984375
0.3205741882324218,0.2336517333984375
0.3343116760253906,0.2491527557373047
0.3343116760253906,0.2491527557373047
0.3189182281494141,0.2412322998046875
0.3189182281494141,0.2412322998046875
0.3328262329101562,0.2427469253540039
0.3328262329101562,0.2427469253540039
0.3298055648803711,0.2537630081176758
0.3298055648803711,0.2537630081176758
0.3257377624511719,0.2401170730590820
0.3257377624511719,0.2401170730590820
0.3389047622680664,0.2552352905273437
0.3389047622680664,0.2552352905273437
0.3230855941772461,0.2465812683105469
0.3230855941772461,0.2465812683105469
0.3365186691284179,0.2478281021118164
0.3365186691284179,0.2478281021118164
0.3332468032836914,0.2580053329467774
0.3332468032836914,0.2580053329467774
0.3288190841674805,0.2441116333007812
0.3288190841674805,0.2441116333007812
0.3418876647949219,0.2590473175048828
0.3418876647949219,0.2590473175048828
0.3261606216430664,0.2506193161010742
0.3261606216430664,0.2506193161010742
0.3392343521118164,0.2510318756103516
0.3392343521118164,0.2510318756103516
0.3356283187866211,0.2608806610107422
0.3356283187866211,0.2608806610107422
0.3304395675659180,0.2462413787841797
0.3304395675659180,0.2462413787841797
0.3430658340454101,0.2607582092285156
0.3430658340454101,0.2607582092285156
0.3268249511718750,0.2515296936035156
0.3268249511718750,0.2515296936035156
0.3397178649902344,0.2516040802001953
0.3397178649902344,0.2516040802001953
0.3360940933227539,0.2616159439086914
0.3360940933227539,0.2616159439086914
0.3310850143432617,0.2471065521240234
0.3310850143432617,0.2471065521240234
0.3439842224121094,0.2614934921264648
0.3345600128173828,0.2614934921264648
0.3276689529418945,0.2526380538940430
0.3276689529418945,0.2526380538940430
0.3404966354370117,0.2528251647949218
0.3404966354370117,0.2528251647949218
0.3373924255371094,0.2633228302001953
0.3373924255371094,0.2633228302001953
0.3321430206298828,0.2490039825439453
0.3321430206298828,0.2490039825439453
0.3459159851074219,0.2644437789916992
0.3459159851074219,0.2644437789916992
0.3300098419189453,0.2559642791748047
0.3300098419189453,0.2559642791748047
0.3428970336914062,0.2562807083129883
0.3428970336914062,0.2562807083129883
0.3391862869262695,0.2657564163208008
0.3391862869262695,0.2657564163208008
0.3331792831420898,0.2497301101684570
0.3331792831420898,0.2497301101684570
0.3443424224853516,0.2617240905761719
0.3443424224853516,0.2617240905761719
0.3255958557128906,0.2499303817749023
0.3255958557128906,0.2499303817749023
0.3352815628051758,0.2459558486938477
0.3352815628051758,0.2459558486938477
0.3291240692138672,0.2523181915283203
0.3291240692138672,0.2523181915283203
0.3205678939819336,0.2336751937866211
0.3205678939819336,0.2336751937866211
0.3313190460205078,0.2455175399780273
0.3313190460205078,0.2455175399780273
0.3131452560424804,0.2344568252563476
0.3131452560424804,0.2344568252563476
0.3243770599365234,0.2323556900024414
0.3243770599365234,0.2323556900024414
0.3200632095336914,0.2410657882690430
0.3200632095336914,0.2410657882690430
0.3135881423950195,0.2253204345703125
0.3135881423950195,0.2253204345703125
0.3258962631225586,0.2385732650756836
0.3258962631225586,0.2385732650756836
0.3091495513916016,0.2293750762939453
0.3091495513916016,0.2293750762939453
0.3212419509887695,0.2285442352294922
0.3212419509887695,0.2285442352294922
0.3180255889892578,0.2389949798583984
0.3180255889892578,0.2389949798583984
0.3126445770263672,0.2352184295654297
0.3126445770263672,0.2352184295654297
0.3165332794189453,0.2251012802124023
0.3165332794189453,0.2251012802124023
0.3234231948852539,0.2407339096069336
0.3234231948852539,0.2407339096069336
0.3107849121093750,0.2252283096313477
0.3107849121093750,0.2252283096313477
0.3263792037963867,0.2359079360961914
0.3263792037963867,0.2359079360961914
0.3144567489624023,0.2380685806274414
0.3144567489624023,0.2380685806274414
0.3191871643066406,0.2290649414062500
0.3191871643066406,0.2290649414062500
0.3265594482421875,0.2449447631835937
0.3265594482421875,0.2449447631835937
0.3147560119628906,0.2299049377441406
0.3147560119628906,0.2299049377441406
0.3298107147216797,0.2407630920410156
0.3298107147216797,0.2407630920410156
0.3188117980957031,0.2441768646240234
0.3188117980957031,0.2441768646240234
0.3238409042358398,0.2352561950683594
0.3238409042358398,0.2352561950683594
0.3319433212280273,0.2513826370239258
0.3319433212280273,0.2513826370239258
0.3196901321411132,0.2362020492553711
0.3196901321411132,0.2362020492553711
0.3351036071777344,0.2478738784790039
0.3351036071777344,0.2478738784790039
0.3243175506591797,0.2511594772338867
0.3243175506591797,0.2511594772338867
0.3296916961669922,0.2421524047851562
0.3296916961669922,0.2421524047851562
0.3370164871215820,0.2578531265258789
0.3370164871215820,0.2578531265258789
0.3251077651977539,0.2435548782348633
0.3251077651977539,0.2435548782348633
0.3407249450683594,0.2551345825195312
0.3407249450683594,0.2551345825195312
0.3303960800170898,0.2582611083984375
0.3303960800170898,0.2582611083984375
0.3348798751831055,0.2489622116088867
0.3348798751831055,0.2489622116088867
0.3425594329833984,0.2655309677124023
0.3425594329833984,0.2655309677124023
0.3306816101074219,0.2507205963134765
0.3306816101074219,0.2507205963134765
0.3463073730468750,0.2616439819335937
0.3463073730468750,0.2616439819335937
0.3349468231201172,0.2641714096069336
0.3349468231201172,0.2641714096069336
0.3396011352539062,0.2554430007934570
0.3396011352539062,0.2554430007934570
0.3472709655761719,0.2715654373168945
0.3472709655761719,0.2715654373168945
0.3353994369506836,0.2564592361450195
0.3452630996704101,0.2564592361450195
0.3499843597412109,0.2668104171752930
0.3499843597412109,0.2668104171752930
0.3391330718994141,0.2703083038330078
0.3391330718994141,0.2703083038330078
0.3435848236083984,0.2609825134277344
0.3435848236083984,0.2609825134277344
0.3518251419067382,0.2771879196166992
0.3518251419067382,0.2771879196166992
0.3391010284423828,0.2617910385131836
0.3494029998779297,0.2617910385131836
0.3541460037231445,0.2728094100952148
0.3541460037231445,0.2728094100952148
0.3432844161987305,0.2760623931884765
0.3432844161987305,0.2760623931884765
0.3480039596557617,0.2664590835571289
0.3480039596557617,0.2664590835571289
0.3551553726196289,0.2818342208862304
0.3551553726196289,0.2818342208862304
0.3424312591552734,0.2665603637695312
0.3424312591552734,0.2665603637695312
0.3566665649414062,0.2762002944946289
0.3566665649414062,0.2762002944946289
0.3454141616821289,0.2776760101318359
0.3454141616821289,0.2776760101318359
0.3471147537231445,0.2648792266845703
0.3471147537231445,0.2648792266845703
0.3520477294921875,0.2770826339721680
0.3520477294921875,0.2770826339721680
0.3361427307128906,0.2571453094482422
0.3361427307128906,0.2571453094482422
0.3473052978515625,0.2621612548828125
0.3473052978515625,0.2621612548828125
0.3321882247924804,0.2595537185668945
0.3321882247924804,0.2595537185668945
0.3320405960083008,0.2448228836059570
0.3320405960083008,0.2448228836059570
0.3355579376220703,0.2552055358886718
0.3355579376220703,0.2552055358886718
0.3193193435668945,0.2347681045532226
0.3193193435668945,0.2347681045532226
0.3298055648803711,0.2399568557739258
0.3298055648803711,0.2399568557739258
0.3164257049560547,0.2401863098144531
0.3164257049560547,0.2401863098144531
0.3179609298706055,0.2276498794555664
0.3179609298706055,0.2276498794555664
0.3247907638549805,0.2416454315185547
0.3247907638549805,0.2416454315185547
0.3105285644531250,0.2248140335083008
0.3105285644531250,0.2248140335083008
0.3245223999023437,0.2342754364013672
0.3245223999023437,0.2342754364013672
0.3133358001708984,0.2368005752563477
0.3133358001708984,0.2368005752563477
0.3167867660522461,0.2258222579956055
0.3167867660522461,0.2258222579956055
0.3239261627197266,0.2407133102416992
0.3239261627197266,0.2407133102416992
0.3109113693237305,0.2256855010986328
0.3109113693237305,0.2256855010986328
0.3256078720092773,0.2356069564819336
0.3256078720092773,0.2356069564819336
0.3154689788818359,0.2389858245849609
0.3154689788818359,0.2389858245849609
0.3193553924560547,0.2284778594970703
0.3193553924560547,0.2284778594970703
0.3269628524780273,0.2450901031494140
0.3269628524780273,0.2450901031494140
0.3146032333374023,0.2303993225097656
0.3146032333374023,0.2303993225097656
0.3301328659057617,0.2408403396606445
0.3301328659057617,0.2408403396606445
0.3198240280151367,0.2447307586669922
0.3198240280151367,0.2447307586669922
0.3239250183105469,0.2356121063232422
0.3239250183105469,0.2356121063232422
0.3326814651489258,0.2525659561157226
0.3326814651489258,0.2525659561157226
0.3210290908813476,0.2384977340698242
0.3210290908813476,0.2384977340698242
0.3360998153686524,0.2489576339721680
0.3360998153686524,0.2489576339721680
0.3264484405517578,0.2540256500244141
0.3264484405517578,0.2540256500244141
0.3306993484497070,0.2445579528808594
0.3306993484497070,0.2445579528808594
0.3399467468261719,0.2614030838012695
0.3399467468261719,0.2614030838012695
0.3274646759033203,0.2469984054565429
0.3274646759033203,0.2469984054565429
0.3426813125610351,0.2578639984130859
0.3426813125610351,0.2578639984130859
0.3328056335449219,0.2619764328002930
0.3328056335449219,0.2619764328002930
0.3369546890258789,0.2519685745239258
0.3369546890258789,0.2519685745239258
0.3446411132812500,0.2675903320312500
0.3446411132812500,0.2675903320312500
0.3319976806640625,0.2532548904418945
0.3319976806640625,0.2532548904418945
0.3466363906860351,0.2630430221557617
0.3466363906860351,0.2630430221557617
0.3369220733642578,0.2667285919189453
0.3369220733642578,0.2667285919189453
0.3397310256958008,0.2558206558227539
0.3397310256958008,0.2558206558227539
0.3475925445556641,0.2719556808471680
0.3475925445556641,0.2719556808471680
0.3348049163818359,0.2571762084960937
0.3348049163818359,0.2571762084960937
0.3495872497558594,0.2662805557250976
0.3495872497558594,0.2662805557250976
0.3385677337646484,0.2690649032592773
0.3385677337646484,0.2690649032592773
0.3414596557617187,0.2586931228637695
0.3414596557617187,0.2586931228637695
0.3493967056274414,0.2741987228393555
0.3493967056274414,0.2741987228393555
0.3367052078247070,0.2589414596557617
0.3367052078247070,0.2589414596557617
0.3503625869750976,0.2674627304077148
0.3503625869750976,0.2674627304077148
0.3398929595947265,0.2712661743164063
0.3398929595947265,0.2712661743164063
0.3427190780639648,0.2602998733520508
0.3427190780639648,0.2602998733520508
0.3508747100830078,0.2753076553344727
0.3508747100830078,0.2753076553344727
0.3367830276489258,0.2589157104492187
0.3367830276489258,0.2589157104492187
0.3497835159301758,0.2667503356933594
0.3497835159301758,0.2667503356933594
0.3375457763671875,0.2673826217651367
0.3375457763671875,0.2673826217651367
0.3371709823608398,0.2509866714477539
0.3371709823608398,0.2509866714477539
0.3393247604370117,0.2586999893188476
0.3393247604370117,0.2586999893188476
0.3201662063598633,0.2364549636840820
0.3201662063598633,0.2364549636840820
0.3290227890014648,0.2389577865600586
0.3290227890014648,0.2389577865600586
0.3154500961303711,0.2377487182617187
0.3154500961303711,0.2377487182617187
0.3146535873413086,0.2229274749755859
0.3146535873413086,0.2229274749755859
0.3204597473144531,0.2360612869262695
0.3204597473144531,0.2360612869262695
0.3059274673461914,0.2190879821777344
0.3059274673461914,0.2190879821777344
0.3189474105834961,0.2259366989135742
0.3189474105834961,0.2259366989135742
0.3072916030883789,0.2277008056640625
0.3072916030883789,0.2277008056640625
0.3087764739990234,0.2160953521728516
0.3087764739990234,0.2160953521728516
0.3162157058715820,0.2312061309814453
0.3162157058715820,0.2312061309814453
0.3037759780883789,0.2164976119995117
0.3037759780883789,0.2164976119995117
0.3177612304687500,0.2250320434570312
0.3177612304687500,0.2250320434570312
0.3080560684204102,0.2297481536865234
0.3221952438354492,0.2297481536865234
0.3110012054443359,0.2192058563232422
0.3110012054443359,0.2192058563232422
0.3198314666748047,0.2350690841674805
0.3198314666748047,0.2350690841674805
0.3067462921142578,0.2204412460327148
0.3067462921142578,0.2204412460327148
0.3216241836547851,0.2303346633911133
0.3216241836547851,0.2303346633911133
0.3124294281005859,0.2353134155273438
0.3124294281005859,0.2353134155273438
0.3160200119018555,0.2251487731933594
0.3160200119018555,0.2251487731933594
0.3251855850219726,0.2417959213256836
0.3251855850219726,0.2417959213256836
0.3128917694091797,0.2289825439453125
0.3128917694091797,0.2289825439453125
0.3285781860351563,0.2393434524536133
0.3285781860351563,0.2393434524536133
0.3202211380004883,0.2451021194458008
0.3202211380004883,0.2451021194458008
0.3236680984497070,0.2357042312622070
0.3236680984497070,0.2357042312622070
0.3339363098144531,0.2539043426513672
0.3339363098144531,0.2539043426513672
0.3221557617187500,0.2411510467529297
0.3221557617187500,0.2411510467529297
0.3380596160888672,0.2510890960693359
0.3380596160888672,0.2510890960693359
0.3289215087890625,0.2564460754394531
0.3289215087890625,0.2564460754394531
0.3322471618652343,0.2471151351928711
0.3322471618652343,0.2471151351928711
0.3418230056762695,0.2641668319702148
0.3418230056762695,0.2641668319702148
0.3296453475952149,0.2510324478149414
0.3296453475952149,0.2510324478149414
0.3443630218505859,0.2592676162719726
0.3443630218505859,0.2592676162719726
0.3346458435058594,0.2642360687255859
0.3346458435058594,0.2642360687255859
0.3308206558227539,0.2605819702148438
0.3308206558227539,0.2598009109497070
0.3427980422973633,0.2576236724853516
0.3427980422973633,0.2576236724853516
0.3421474456787109,0.2694282531738281
0.3421474456787109,0.2694282531738281
0.3346366882324219,0.2538019180297851
0.3346366882324219,0.2538019180297851
0.3486591339111328,0.2676149368286133
0.3486591339111328,0.2676149368286133
0.3323244094848632,0.2615301132202149
0.3323244094848632,0.2615301132202149
0.3435218811035156,0.2587211608886719
0.3435218811035156,0.2587211608886719
0.3430091857910156,0.2707654953002930
0.3430091857910156,0.2707654953002930
0.3355384826660156,0.2548387527465820
0.3355384826660156,0.2548387527465820
0.3495105743408203,0.2687707901000976
0.3495105743408203,0.2687707901000976
0.3333595275878906,0.2631288528442383
0.3333595275878906,0.2631288528442383
0.3449861526489258,0.2608440399169922
0.3449861526489258,0.2608440399169922
0.3450181961059570,0.2732740402221679
0.3450181961059570,0.2732740402221679
0.3380310058593750,0.2580608367919922
0.3380310058593750,0.2580608367919922
0.3521186828613281,0.2725473403930664
0.3521186828613281,0.2725473403930664
0.3366857528686523,0.2675256729125977
0.3366857528686523,0.2675256729125977
0.3482603073120117,0.2652105331420898
0.3482603073120117,0.2652105331420898
0.3479244232177734,0.2770940780639649
0.3479244232177734,0.2770940780639649
0.3421194076538086,0.2737993240356445
0.3549871444702148,0.2737993240356445
0.3430915832519531,0.2608554840087891
0.3430915832519531,0.2608554840087891
0.3501062393188477,0.2734302520751953
0.3501062393188477,0.2734302520751953
0.3335351943969727,0.2543403625488281
0.3335351943969727,0.2543403625488281
0.3423231124877930,0.2550693511962890
0.3423231124877930,0.2550693511962890
0.3260576248168945,0.2508436203002929
0.3260576248168945,0.2508436203002929
0.3215452194213867,0.2312284469604492
0.3215452194213867,0.2312284469604492
0.3245853424072265,0.2401468276977539
0.3245853424072265,0.2401468276977539
0.3080394744873047,0.2224262237548828
0.3080394744873047,0.2224262237548828
0.3196146011352539,0.2270341873168945
0.3196146011352539,0.2270341873168945
0.3087930679321289,0.2296314239501953
0.3087930679321289,0.2296314239501953
0.3088491439819336,0.2162567138671875
0.3088491439819336,0.2162567138671875
0.3164789199829102,0.2305864334106445
0.3164789199829102,0.2305864334106445
0.3023586273193359,0.2156410217285156
0.3023586273193359,0.2156410217285156
0.3161956787109375,0.2219707489013672
0.3161956787109375,0.2219707489013672
0.3057260513305664,0.2259172439575195
0.3057260513305664,0.2259172439575195
0.3071308135986328,0.2143964767456055
0.3071308135986328,0.2143964767456055
0.3160326004028320,0.2298568725585937
0.3160326004028320,0.2298568725585937
0.3032667160034180,0.2163293838500976
0.3032667160034180,0.2163293838500976
0.3172943115234375,0.2238029479980469
0.3172943115234375,0.2238029479980469
0.3085418701171875,0.2300033569335938
0.3085418701171875,0.2300033569335938
0.3109067916870117,0.2193946838378906
0.3109067916870117,0.2193946838378906
0.3208105087280274,0.2356595993041992
0.3208105087280274,0.2356595993041992
0.3078746795654297,0.2225732803344727
0.3078746795654297,0.2225732803344727
0.3227022171020508,0.2309589385986328
0.3227022171020508,0.2309589385986328
0.3141906738281250,0.2369590759277344
0.3141906738281250,0.2369590759277344
0.3166740417480469,0.2264122009277344
0.3166740417480469,0.2264122009277344
0.3259500503540039,0.2422668457031250
0.3259500503540039,0.2422668457031250
0.3134078979492188,0.2302333831787109
0.3134078979492188,0.2302333831787109
0.3281158447265625,0.2382282257080078
0.3281158447265625,0.2382282257080078
0.3203498840332031,0.2446380615234375
0.3203498840332031,0.2446380615234375
0.3221168518066406,0.2336843490600586
0.3221168518066406,0.2336843490600586
0.3318025588989258,0.2504922866821289
0.3279001235961914,0.2504922866821289
0.3192203521728516,0.2381029129028320
0.3192203521728516,0.2381029129028320
0.3344438552856445,0.2459278106689453
0.3344438552856445,0.2459278106689453
0.3254619598388672,0.2515892028808593
0.3254619598388672,0.2515892028808593
0.3272375106811523,0.2409101486206054
0.3272375106811523,0.2409101486206054
0.3366353988647461,0.2566921234130859
0.3366353988647461,0.2566921234130859
0.3239244461059570,0.2436796188354492
0.3239244461059570,0.2436796188354492
0.3378822326660156,0.2503005981445313
0.3378822326660156,0.2503005981445313
0.3286399841308594,0.2560501098632812
0.3286399841308594,0.2560501098632812
0.3299554824829101,0.2444675445556641
0.3299554824829101,0.2444675445556641
0.3394878387451172,0.2598300933837890
0.3394878387451172,0.2598300933837890
0.3255838394165039,0.2462499618530273
0.3255838394165039,0.2462499618530273
0.3399993896484375,0.2536977767944336
0.3399993896484375,0.2536977767944336
0.3312137603759766,0.2596149444580078
0.3312137603759766,0.2596149444580078
0.3330797195434570,0.2483900070190430
0.3330797195434570,0.2483900070190430
0.3422544479370117,0.2636249542236328
0.3422544479370117,0.2636249542236328
0.3290502548217774,0.2513277053833008
0.3290502548217774,0.2513277053833008
0.3432592391967773,0.2580877304077148
0.3432592391967773,0.2580877304077148
0.3347934722900390,0.2638784408569336
0.3347934722900390,0.2638784408569336
0.3357805252075195,0.2522998809814453
0.3357805252075195,0.2522998809814453
0.3452236175537109,0.2681459426879882
0.3452236175537109,0.2681459426879882
0.3320182800292968,0.2554647445678711
0.3320182800292968,0.2554647445678711
0.3463863372802734,0.2616788864135742
0.3463863372802734,0.2616788864135742
0.3366348266601563,0.2661169052124023
0.3366348266601563,0.2661169052124023
0.3365873336791992,0.2532577514648438
0.3365873336791992,0.2532577514648438
0.3441232681274414,0.2657260894775391
0.3441232681274414,0.2657260894775391
0.3285678863525390,0.2491252899169922
0.3285678863525390,0.2491252899169922
0.3384910583496094,0.2503086090087890
0.3384910583496094,0.2503086090087890
0.3260633468627930,0.2515331268310547
0.3260633468627930,0.2515331268310547
0.3235977172851562,0.2355445861816406
0.3235977172851562,0.2355445861816406
0.3302576065063477,0.2467432022094727
0.3302576065063477,0.2467432022094727
0.3137769699096680,0.2304994583129883
0.3137769699096680,0.2304994583129883
0.3259168624877929,0.2347852706909180
0.3259168624877929,0.2347852706909180
0.3155902862548828,0.2384542465209961
0.3155902862548828,0.2384542465209961
0.3154575347900391,0.2250303268432617
0.3154575347900391,0.2250303268432617
0.3236824035644531,0.2388244628906250
0.3236824035644531,0.2388244628906250
0.3092937469482422,0.2254411697387695
0.3092937469482422,0.2254411697387695
0.3230266571044922,0.2309675216674805
0.3230266571044922,0.2309675216674805
0.3142902374267578,0.2363279342651367
0.3142902374267578,0.2363279342651367
0.3142730712890625,0.2236272811889648
0.3142730712890625,0.2236272811889648
0.3236978530883789,0.2390230178833008
0.3236978530883789,0.2390230178833008
0.3099678039550781,0.2261243820190429
0.3099678039550781,0.2261243820190429
0.3118835449218750,0.2242813110351562
0.3118835449218750,0.2242813110351562
0.3109663009643555,0.2345729827880859
0.3109663009643555,0.2345729827880859
0.3131870269775390,0.2440183639526367
0.3236280441284179,0.2440183639526367
0.3295555114746094,0.2419761657714844
0.3295555114746094,0.2422863006591797
0.3302919387817383,0.2480157852172852
0.3302919387817383,0.2480157852172852
0.3302919387817383,0.2471837997436523
0.3317487716674805,0.2407676696777344
0.3317487716674805,0.2420322418212890
0.3317487716674805,0.2420322418212890
0.3231439590454102,0.2488758087158203
0.3231439590454102,0.2488758087158203
0.3250579833984375,0.2377046585083008
0.3250579833984375,0.2377046585083008
0.3347717285156250,0.2530895233154297
0.3347717285156250,0.2530895233154297
0.3214347839355469,0.2417833328247070
0.3346647262573242,0.2417833328247070
0.3361289978027344,0.2481176376342773
0.3361289978027344,0.2481176376342773
0.3284969329833984,0.2551368713378906
0.3284969329833984,0.2551368713378906
0.3291240692138672,0.2434879302978515
0.3291240692138672,0.2434879302978515
0.3394403457641602,0.2596635818481445
0.3394403457641602,0.2596635818481445
0.3260742187500000,0.2481336593627930
0.3260742187500000,0.2481336593627930
0.3415311813354492,0.2545640945434570
0.3415311813354492,0.2545640945434570
0.3329389572143555,0.2614603042602539
0.3329389572143555,0.2614603042602539
0.3342647552490234,0.2508224487304687
0.3342647552490234,0.2508224487304687
0.3447023391723633,0.2667634963989258
0.3447023391723633,0.2667634963989258
0.3316526412963867,0.2554115295410156
0.3316526412963867,0.2554115295410156
0.3462833404541015,0.2614637374877929
0.3462833404541015,0.2614637374877929
0.3384241104125976,0.2692497253417969
0.3384241104125976,0.2692497253417969
0.3394329071044922,0.2581752777099609
0.3394329071044922,0.2581752777099609
0.3504987716674804,0.2739463806152344
0.3504987716674804,0.2739463806152344
0.3364294052124023,0.2622980117797851
0.3364294052124023,0.2622980117797851
0.3511848449707031,0.2688589096069336
0.3511848449707031,0.2688589096069336
0.3431877136230468,0.2762306213378906
0.3431877136230468,0.2762306213378906
0.3445026397705078,0.2647939682006836
0.3445026397705078,0.2647939682006836
0.3546867370605469,0.2801553726196289
0.3546867370605469,0.2801553726196289
0.3409978866577149,0.2690620422363281
0.3409978866577149,0.2690620422363281
0.3555295944213867,0.2746622085571289
0.3555295944213867,0.2746622085571289
0.3476366043090820,0.2811372756958008
0.3476366043090820,0.2811372756958008
0.3468681335449219,0.2678518295288086
0.3468681335449219,0.2678518295288086
0.3557338714599609,0.2812294006347656
0.3557338714599609,0.2812294006347656
0.3394884109497070,0.2660499572753906
0.3394884109497070,0.2660499572753906
0.3508415222167969,0.2664659500122070
0.3508415222167969,0.2664659500122070
0.3379634857177734,0.2670536041259766
0.3379634857177734,0.2670536041259766
0.3335958480834961,0.2492780685424805
0.3335958480834961,0.2492780685424805
0.3390254974365234,0.2580379486083984
0.3390254974365234,0.2580379486083984
0.3208877563476563,0.2405296325683594
0.3208877563476563,0.2405296325683594
0.3307891845703125,0.2402606964111328
0.3307891845703125,0.2402606964111328
0.3193485260009766,0.2434535980224609
0.3193485260009766,0.2434535980224609
0.3174854278564453,0.2287570953369140
0.3174854278564453,0.2287570953369140
0.3264192581176757,0.2418125152587891
0.3264192581176757,0.2418125152587891
0.3110504150390625,0.2283514022827148
0.3110504150390625,0.2283514022827148
0.3243581771850586,0.2324100494384765
0.3243581771850586,0.2324100494384765
0.3156017303466797,0.2385303497314453
0.3156017303466797,0.2385303497314453
0.3157321929931641,0.2260391235351562
0.3157321929931641,0.2260391235351562
0.3252199172973633,0.2402761459350586
0.3252199172973633,0.2402761459350586
0.3112564086914062,0.2291387557983398
0.3112564086914062,0.2291387557983398
0.3257743835449219,0.2340631484985352
0.3257743835449219,0.2340631484985352
0.3181291580200195,0.2410823822021484
0.3181291580200195,0.2410823822021484
0.3179946899414062,0.2289825439453125
0.3179946899414062,0.2289825439453125
0.3285192489624023,0.2444692611694336
0.3285192489624023,0.2444692611694336
0.3145969390869141,0.2336082458496094
0.3145969390869141,0.2336082458496094
0.3299526214599609,0.2388530731201172
0.3299526214599609,0.2388530731201172
0.3219938278198242,0.2461950302124023
0.3219938278198242,0.2461950302124023
0.3224756240844727,0.2353214263916016
0.3224756240844727,0.2353214263916016
0.3335506439208984,0.2508819580078125
0.3335506439208984,0.2508819580078125
0.3200586318969726,0.2401468276977539
0.3200586318969726,0.2401468276977539
0.3343254089355469,0.2445367813110352
0.3343254089355469,0.2445367813110352
0.3263139724731445,0.2521373748779297
0.3263139724731445,0.2521373748779297
0.3260187149047851,0.2400781631469726
0.3260187149047851,0.2400781631469726
0.3371429443359375,0.2552553176879883
0.3371429443359375,0.2552553176879883
0.3226787567138672,0.2441385269165039
0.3226787567138672,0.2441385269165039
0.3370365142822265,0.2489850997924805
0.3370365142822265,0.2489850997924805
0.3288568496704101,0.2560014724731445
0.3288568496704101,0.2560014724731445
0.3287532806396484,0.2434444427490234
0.3287532806396484,0.2434444427490234
0.3389247894287109,0.2580562591552734
0.3389247894287109,0.2580562591552734
0.3245819091796875,0.2474899291992188
0.3245819091796875,0.2474899291992188
0.3389556884765625,0.2519771575927734
0.3265399932861328,0.2451833724975586
0.3307296752929688,0.2574640274047851
0.3307296752929688,0.2574640274047851
0.3261995315551758,0.2556804656982422
0.3261995315551758,0.2556804656982422
0.3365524291992187,0.2508848190307617
0.3365524291992187,0.2508848190307617
0.3393064498901367,0.2647436141967773
0.3393064498901367,0.2647436141967773
0.3301483154296875,0.2496431350708008
0.3301483154296875,0.2496431350708008
0.3452018737792968,0.2620920181274414
0.3452018737792968,0.2620920181274414
0.3300888061523438,0.2604772567749024
0.3300888061523438,0.2604772567749024
0.3401212692260742,0.2554475784301758
0.3401212692260742,0.2554475784301758
0.3432867050170899,0.2698722839355469
0.3432867050170899,0.2698722839355469
0.3341148376464844,0.2551511764526367
0.3341148376464844,0.2551511764526367
0.3496398925781250,0.2685270309448242
0.3496398925781250,0.2685270309448242
0.3354194641113281,0.2677900314331055
0.3354194641113281,0.2677900314331055
0.3462518692016601,0.2635734558105469
0.3462518692016601,0.2635734558105469
0.3494310379028320,0.2779718399047851
0.3494310379028320,0.2779718399047851
0.3403575897216797,0.2634704589843750
0.3403575897216797,0.2634704589843750
0.3554494857788086,0.2755868911743164
0.3554494857788086,0.2755868911743164
0.3400743484497070,0.2731178283691406
0.3400743484497070,0.2731178283691406
0.3485784530639648,0.2656837463378906
0.3485784530639648,0.2656837463378906
0.3491626739501953,0.2763198852539062
0.3491626739501953,0.2763198852539062
0.3363990783691406,0.2566022872924805
0.3363990783691406,0.2566022872924805
0.3474929809570312,0.2633646011352539
0.3474929809570312,0.2633646011352539
0.3280609130859375,0.2558727264404297
0.3280609130859375,0.2558727264404297
0.3326677322387695,0.2437025070190429
0.3326677322387695,0.2437025070190429
0.3308389663696289,0.2513820648193359
0.3308389663696289,0.2513820648193359
0.3175420761108398,0.2318166732788086
0.3175420761108398,0.2318166732788086
0.3296258926391601,0.2402881622314453
0.3296258926391601,0.2402881622314453
0.3131149291992187,0.2366357803344726
0.3131149291992187,0.2366357803344726
0.3212053298950195,0.2292257308959961
0.3212053298950195,0.2292257308959961
0.3227256774902343,0.2412220001220703
0.3227256774902343,0.2412220001220703
0.3122606277465820,0.2252901077270508
0.3122606277465820,0.2252901077270508
0.3264169692993164,0.2363199234008789
0.3264169692993164,0.2363199234008789
0.3113651275634766,0.2342668533325195
0.3113651275634766,0.2342668533325195
0.3204626083374023,0.2281368255615234
0.3204626083374023,0.2281368255615234
0.3230426788330078,0.2411939620971680
0.3230426788330078,0.2411939620971680
0.3129890441894531,0.2262113571166992
0.3129890441894531,0.2262113571166992
0.3277622222900390,0.2378122329711914
0.3277622222900390,0.2378122329711914
0.3133014678955078,0.2367937088012695
0.3133014678955078,0.2367937088012695
0.3228126525878906,0.2313783645629883
0.3228126525878906,0.2313783645629883
0.3262327194213867,0.2454912185668945
0.3262327194213867,0.2454912185668945
0.3165658950805664,0.2308839797973633
0.3165658950805664,0.2308839797973633
0.3321052551269531,0.2433025360107422
0.3321052551269531,0.2433025360107422
0.3179471969604492,0.2427961349487305
0.3351339340209961,0.2427961349487305
0.3279333114624023,0.2380107879638672
0.3279333114624023,0.2380107879638672
0.3314569473266601,0.2523456573486328
0.3314569473266601,0.2523456573486328
0.3221466064453125,0.2379610061645508
0.3221466064453125,0.2379610061645508
0.3372728347778320,0.2501626968383789
0.3372728347778320,0.2501626968383789
0.3232652664184570,0.2496328353881836
0.3232652664184570,0.2496328353881836
0.3328411102294922,0.2445047378540039
0.3328411102294922,0.2445047378540039
0.3363487243652344,0.2584619522094727
0.3363487243652344,0.2584619522094727
0.3264907836914062,0.2438112258911133
0.3264907836914062,0.2438112258911133
0.3417234420776367,0.2560884475708008
0.3417234420776367,0.2560884475708008
0.3273656845092773,0.2551671981811524
0.3273656845092773,0.2551671981811524
0.3366371154785156,0.2495264053344727
0.3366371154785156,0.2495264053344727
0.3399101257324219,0.2634384155273438
0.3399101257324219,0.2634384155273438
0.3301523208618164,0.2490154266357422
0.3301523208618164,0.2490154266357422
0.3453157424926758,0.2608514785766601
0.3453157424926758,0.2608514785766601
0.3310770034790039,0.2600429534912109
0.3310770034790039,0.2600429534912109
0.3399461746215820,0.2541967391967773
0.3399461746215820,0.2541967391967773
0.3433788299560547,0.2681070327758789
0.3433788299560547,0.2681070327758789
0.3331386566162109,0.2531015396118164
0.3331386566162109,0.2531015396118164
0.3481744766235351,0.2649833679199219
0.3481744766235351,0.2649833679199219
0.3338922500610351,0.2645158767700195
0.3338922500610351,0.2645158767700195
0.3430292129516602,0.2591594696044922
0.3430292129516602,0.2591594696044922
0.3463159561157226,0.2730051040649414
0.3463159561157226,0.2730051040649414
0.3364099502563476,0.2587594985961914
0.3364099502563476,0.2587594985961914
0.3519029617309570,0.2712249755859375
0.3519029617309570,0.2712249755859375
0.3385545730590820,0.2721176147460938
0.3385545730590820,0.2721176147460938
0.3483455657958984,0.2675966262817382
0.3483455657958984,0.2675966262817382
0.3529781341552734,0.2828430175781250
0.3529781341552734,0.2828430175781250
0.3436254501342773,0.2693017959594726
0.3436254501342773,0.2693017959594726
0.3594280242919922,0.2819995880126953
0.3594280242919922,0.2819995880126953
0.3456630706787109,0.2818124771118164
0.3456630706787109,0.2818124771118164
0.3543525695800781,0.2755107879638672
0.3543525695800781,0.2755107879638672
0.3573108673095703,0.2880798339843750
0.3573108673095703,0.2880798339843750
0.3454736709594726,0.2710269927978515
0.3454736709594726,0.2710269927978515
0.3577898025512695,0.2783586502075195
0.3577898025512695,0.2783586502075195
0.3402540206909180,0.2727722167968750
0.3402540206909180,0.2727722167968750
0.3445152282714843,0.2608268737792969
0.3445152282714843,0.2608268737792969
0.3438640594482422,0.2686832427978516
0.3438640594482422,0.2686832427978516
0.3289947509765625,0.2475780487060547
0.3289947509765625,0.2475780487060547
0.3400354385375977,0.2538597106933594
0.3400354385375977,0.2538597106933594
0.3224555969238281,0.2489450454711914
0.3224555969238281,0.2489450454711914
0.3281890869140625,0.2392461776733398
0.3281890869140625,0.2392461776733398
0.3299531936645508,0.2505054473876953
0.3299531936645508,0.2505054473876953
0.3179592132568359,0.2337627410888672
0.3179592132568359,0.2337627410888672
0.3321887969970703,0.2440784454345703
0.3321887969970703,0.2440784454345703
0.3174757003784179,0.2429826736450195
0.3174757003784179,0.2429826736450195
0.3253223419189453,0.2357225418090820
0.3253223419189453,0.2357225418090820
0.3290410995483398,0.2493558883666992
0.3290410995483398,0.2493558883666992
0.3181903839111328,0.2340528488159180
0.3181903839111328,0.2340528488159180
0.3335346221923828,0.2459701538085937
0.3335346221923828,0.2459701538085937
0.3197599411010742,0.2459014892578125
0.3366920471191406,0.2459014892578125
0.3284837722778320,0.2399105072021484
0.3284837722778320,0.2399105072021484
0.3331266403198242,0.2548318862915039
0.3331266403198242,0.2548318862915039
0.3232372283935547,0.2407613754272461
0.3232372283935547,0.2407613754272461
0.3390861511230469,0.2531015396118164
0.3390861511230469,0.2531015396118164
0.3258361816406250,0.2539707183837890
0.3258361816406250,0.2539707183837890
0.3347454071044922,0.2484357833862305
0.3347454071044922,0.2484357833862305
0.3398569107055664,0.2637210845947265
0.3398569107055664,0.2637210845947265
0.3299806594848633,0.2498147964477539
0.3299806594848633,0.2498147964477539
0.3459085464477539,0.2623031616210937
0.3459085464477539,0.2623031616210937
0.3328514099121094,0.2633136749267578
0.3328514099121094,0.2633136749267578
0.3417566299438476,0.2579097747802734
0.3417566299438476,0.2579097747802734
0.3468200683593750,0.2726949691772461
0.3468200683593750,0.2726949691772461
0.3366708755493164,0.2582719802856445
0.3366708755493164,0.2582719802856445
0.3515499114990234,0.2700250625610351
0.3515499114990234,0.2700250625610351
0.3385694503784180,0.2703432083129882
0.3385694503784180,0.2703432083129882
0.3466861724853516,0.2637193679809570
0.3466861724853516,0.2637193679809570
0.3508878707885742,0.2773160934448242
0.3508878707885742,0.2773160934448242
0.3400943756103516,0.2623329162597656
0.3400943756103516,0.2623329162597656
0.3552297592163086,0.2737066268920899
0.3552297592163086,0.2737066268920899
0.3414562225341797,0.2738903045654297
0.3414562225341797,0.2738903045654297
0.3492874145507812,0.2674346923828125
0.3492874145507812,0.2674346923828125
0.3537878036499023,0.2814039230346679
0.3537878036499023,0.2814039230346679
0.3430881500244141,0.2667789459228516
0.3430881500244141,0.2667789459228516
0.3580833435058594,0.2778762817382812
0.3580833435058594,0.2778762817382812
0.3444162368774414,0.2781097412109375
0.3444162368774414,0.2781097412109375
0.3518869400024414,0.2711551666259766
0.3518869400024414,0.2711551666259766
0.3562065124511719,0.2852365493774414
0.3562065124511719,0.2852365493774414
0.3452075958251953,0.2703357696533203
0.3452075958251953,0.2703357696533203
0.3603836059570312,0.2816757202148437
0.3603836059570312,0.2816757202148437
0.3467628479003906,0.2817867279052734
0.3467628479003906,0.2817867279052734
0.3543474197387695,0.2753540039062500
0.3543474197387695,0.2753540039062500
0.3588981628417969,0.2889999389648437
0.3588981628417969,0.2889999389648437
0.3471410751342773,0.2731155395507812
0.3471410751342773,0.2731155395507812
0.3614204406738281,0.2835582733154297
0.3614204406738281,0.2835582733154297
0.3474397659301758,0.2834890365600586
0.3474397659301758,0.2834890365600586
0.3545230865478515,0.2760332107543945
0.3545230865478515,0.2760332107543945
0.3588695526123047,0.2891870498657226
0.3588695526123047,0.2891870498657226
0.3466026306152344,0.2720426559448242
0.3466026306152344,0.2720426559448242
0.3592712402343750,0.2798915863037109
0.3592712402343750,0.2798915863037109
0.3424856185913086,0.2755067825317383
0.3424856185913086,0.2755067825317383
0.3462135314941406,0.2632822036743164
0.3462135314941406,0.2632822036743164
0.3470752716064453,0.2715156555175781
0.3470752716064453,0.2715156555175781
0.3315879821777344,0.2504831314086914
0.3315879821777344,0.2504831314086914
0.3422733306884765,0.2556055068969726
0.3422733306884765,0.2556055068969726
0.3247976303100586,0.2509048461914062
0.3247976303100586,0.2509048461914062
0.3286954879760742,0.2396821975708008
0.3286954879760742,0.2396821975708008
0.3312177658081055,0.2508087158203125
0.3312177658081055,0.2508087158203125
0.3183883666992187,0.2334423065185547
0.3183883666992187,0.2334423065185547
0.3324022293090820,0.2431846618652344
0.3324022293090820,0.2431846618652344
0.3182807922363281,0.2424510955810547
0.3182807922363281,0.2424510955810547
0.3246494293212890,0.2341821670532226
0.3246494293212890,0.2341821670532226
0.3292568206787109,0.2474149703979492
0.3296504974365234,0.2474149703979492
0.3176553726196289,0.2317211151123047
0.3176553726196289,0.2317211151123047
0.3325761795043945,0.2423475265502930
0.3325761795043945,0.2423475265502930
0.3190458297729492,0.2425987243652344
0.3190458297729492,0.2425987243652344
0.3259534835815430,0.2352270126342773
0.3259534835815430,0.2352270126342773
0.3311943054199218,0.2496397018432617
0.3311943054199218,0.2496397018432617
0.3276758193969727,0.2527639389038086
0.3276758193969727,0.2527639389038086
0.3276758193969727,0.2501718521118164
0.3253017425537109,0.2382963180541992
0.3236732482910156,0.2382963180541992
0.3385145187377930,0.2538036346435547
0.3385145187377930,0.2538036346435547
0.3239873886108398,0.2459346771240234
0.3239873886108398,0.2459346771240234
0.3383863449096680,0.2494291305541992
0.3383863449096680,0.2494291305541992
0.3349742889404297,0.2599708557128906
0.3349742889404297,0.2599708557128906
0.3332530975341797,0.2484786987304687
0.3332530975341797,0.2484786987304687
0.3459211349487304,0.2636850357055664
0.3459211349487304,0.2636850357055664
0.3313625335693359,0.2563831329345703
0.3313625335693359,0.2563831329345703
0.3457271575927734,0.2591508865356445
0.3457271575927734,0.2591508865356445
0.3420278549194336,0.2692726135253906
0.3420278549194336,0.2692726135253906
0.3386020660400391,0.2564357757568359
0.3386020660400391,0.2564357757568359
0.3510011672973632,0.2714584350585937
0.3510011672973632,0.2714584350585937
0.3356403350830078,0.2627838134765625
0.3356403350830078,0.2627838134765625
0.3492811203002930,0.2642148971557617
0.3492811203002930,0.2642148971557617
0.3444219589233398,0.2732460021972656
0.3444219589233398,0.2732460021972656
0.3407295227050781,0.2602626800537109
0.3407295227050781,0.2602626800537109
0.3531269073486328,0.2744682312011719
0.3531269073486328,0.2744682312011719
0.3378438949584961,0.2652008056640625
0.3378438949584961,0.2652008056640625
0.3507202148437500,0.2659635543823242
0.3507202148437500,0.2659635543823242
0.3461414337158203,0.2752183914184570
0.3461414337158203,0.2752183914184570
0.3421159744262695,0.2610031127929687
0.3421159744262695,0.2610031127929687
0.3539154052734375,0.2742834091186523
0.3539154052734375,0.2742834091186523
0.3373620986938476,0.2642486572265625
0.3373620986938476,0.2642486572265625
0.3502481460571289,0.2653553009033203
0.3502481460571289,0.2653553009033203
0.3456653594970703,0.2745512008666992
0.3456653594970703,0.2745512008666992
0.3421823501586914,0.2609149932861328
0.3421823501586914,0.2609149932861328
0.3540664672851562,0.2749505996704101
0.3540664672851562,0.2749505996704101
0.3387811660766601,0.2666547775268555
0.3387811660766601,0.2666547775268555
0.3519968032836914,0.2681402206420898
0.3519968032836914,0.2681402206420898
0.3485818862915039,0.2780261993408203
0.3485818862915039,0.2780261993408203
0.3445558547973633,0.2646858215332031
0.3445558547973633,0.2646858215332031
0.3570384979248047,0.2795305252075195
0.3570384979248047,0.2795305252075195
0.3415740966796875,0.2707403182983398
0.3415740966796875,0.2707403182983398
0.3548572540283203,0.2711488723754883
0.3548572540283203,0.2711488723754883
0.3486419677734375,0.2774785995483398
0.3486419677734375,0.2774785995483398
0.3406883239746094,0.2580699920654297
0.3406883239746094,0.2580699920654297
0.3466283798217774,0.2627323150634766
0.3466283798217774,0.2627323150634766
0.3231439590454102,0.2428848266601562
0.3231439590454102,0.2428848266601562
0.3285524368286133,0.2346565246582031
0.3285524368286133,0.2346565246582031
0.3193193435668945,0.2383901596069336
0.3193193435668945,0.2383901596069336
0.3120008468627929,0.2208091735839844
0.3120008468627929,0.2208091735839844
0.3223600387573242,0.2322298049926758
0.3223600387573242,0.2322298049926758
0.3046560287475586,0.2210792541503906
0.3046560287475586,0.2210792541503906
0.3169767379760742,0.2211502075195312
0.3037708282470703,0.2211502075195312
0.3127939224243164,0.2304651260375976
0.3127939224243164,0.2304651260375976
0.3091587066650390,0.2171642303466797
0.3091587066650390,0.2171642303466797
0.3217941284179687,0.2317113876342773
0.3217941284179687,0.2317113876342773
0.3065740585327149,0.2236461639404297
0.3065740585327149,0.2236461639404297
0.3203332901000976,0.2248678207397461
0.3203332901000976,0.2248678207397461
0.3170986175537109,0.2346794128417969
0.3170986175537109,0.2346794128417969
0.3124385833740234,0.2216629028320312
0.3124385833740234,0.2216629028320312
0.3253515243530273,0.2356401443481445
0.3253515243530273,0.2356401443481445
0.3098173141479492,0.2273712158203125
0.3098173141479492,0.2273712158203125
0.3237447738647461,0.2286174774169922
0.3237447738647461,0.2286174774169922
0.3198629379272461,0.2385177612304688
0.3198629379272461,0.2385177612304688
0.3160657882690430,0.2256694793701172
0.3160657882690430,0.2256694793701172
0.3290966033935547,0.2406612396240234
0.3290966033935547,0.2406612396240234
0.3145420074462891,0.2328311920166015
0.3145420074462891,0.2328311920166015
0.3278680801391601,0.2343286514282227
0.3278680801391601,0.2343286514282227
0.3250167846679687,0.2457927703857422
0.3250167846679687,0.2457927703857422
0.3217391967773438,0.2332929611206055
0.3217391967773438,0.2332929611206055
0.3357908248901367,0.2489765167236328
0.3266807556152344,0.2489765167236328
0.3206354141235351,0.2412666320800781
0.3206354141235351,0.2412666320800781
0.3345823287963867,0.2439331054687500
0.3345823287963867,0.2439331054687500
0.3319650650024414,0.2549531936645508
0.3319650650024414,0.2549531936645508
0.3291395187377930,0.2426496505737304
0.3291395187377930,0.2426496505737304
0.3416971206665039,0.2571395874023437
0.3416971206665039,0.2571395874023437
0.3267356872558594,0.2498720169067383
0.3267356872558594,0.2498720169067383
0.3402299880981445,0.2514993667602539
0.3402299880981445,0.2514993667602539
0.3376270294189453,0.2617733001708984
0.3376270294189453,0.2617733001708984
0.3329429626464844,0.2478384017944336
0.3329429626464844,0.2478384017944336
0.3454908370971679,0.2627580642700195
0.3454908370971679,0.2627580642700195
0.3297042846679688,0.2540433883666992
0.3297042846679688,0.2540433883666992
0.3429697036743164,0.2544164657592773
0.3429697036743164,0.2544164657592773
0.3384675979614258,0.2634601593017578
0.3384675979614258,0.2634601593017578
0.3336370468139648,0.2494668960571289
0.3336370468139648,0.2494668960571289
0.3461128234863281,0.2636587142944336
0.3461128234863281,0.2636587142944336
0.3307176589965820,0.2546613693237305
0.3307176589965820,0.2546613693237305
0.3429239273071289,0.2547569274902344
0.3429239273071289,0.2547569274902344
0.3396154403686523,0.2655218124389648
0.3396154403686523,0.2655218124389648
0.3353113174438476,0.2519451141357422
0.3353113174438476,0.2519451141357422
0.3491638183593750,0.2671686172485351
0.3491638183593750,0.2671686172485351
0.3332210540771484,0.2588499069213867
0.3332210540771484,0.2588499069213867
0.3463388442993164,0.2605459213256836
0.3463388442993164,0.2605459213256836
0.3436614990234375,0.2712364196777344
0.3436614990234375,0.2712364196777344
0.3398769378662109,0.2577690124511718
0.3398769378662109,0.2577690124511718
0.3526182174682617,0.2724340438842773
0.3526182174682617,0.2724340438842773
0.3374073028564453,0.2650400161743164
0.3374073028564453,0.2650400161743164
0.3503797531127930,0.2657741546630859
0.3503797531127930,0.2657741546630859
0.3477430343627930,0.2755165100097656
0.3477430343627930,0.2755165100097656
0.3414293289184570,0.2595771789550781
0.3414293289184570,0.2595771789550781
0.3518400192260742,0.2703712463378906
0.3518400192260742,0.2703712463378906
0.3305557250976562,0.2535535812377930
0.3305557250976562,0.2535535812377930
0.3363767623901367,0.2437557220458984
0.3363767623901367,0.2437557220458984
0.3251529693603515,0.2438535690307617
0.3251529693603515,0.2438535690307617
0.3144195556640625,0.2229263305664062
0.3116300582885742,0.2229263305664062
0.3232709884643555,0.2327539443969726
0.3232709884643555,0.2327539443969726
0.3053438186645508,0.2210540771484375
0.3053438186645508,0.2210540771484375
0.3156154632568359,0.2184659957885742
0.3156154632568359,0.2184659957885742
0.3112386703491211,0.2272928237915039
0.3112386703491211,0.2272928237915039
0.3052797317504883,0.2115531921386719
0.3052797317504883,0.2115531921386719
0.3177366256713867,0.2248758316040039
0.3177366256713867,0.2248758316040039
0.3009029388427734,0.2152793884277344
0.3009029388427734,0.2152793884277344
0.3128402709960937,0.2150299072265625
0.3128402709960937,0.2150299072265625
0.3098642349243164,0.2251888275146484
0.3098642349243164,0.2251888275146484
0.3049289703369141,0.2107400894165039
0.3049289703369141,0.2107400894165039
0.3176284790039062,0.2251785278320312
0.3176284790039062,0.2251785278320312
0.3024169921875000,0.2179796218872070
0.3024169921875000,0.2179796218872070
0.3155221939086914,0.2186639785766601
0.3155221939086914,0.2186639785766601
0.3138982772827149,0.2300113677978516
0.3138982772827149,0.2300113677978516
0.3089458465576172,0.2162876129150391
0.3089458465576172,0.2162876129150391
0.3228567123413086,0.2321376800537109
0.3228567123413086,0.2321376800537109
0.3080623626708984,0.2251996994018555
0.3080623626708984,0.2251996994018555
0.3217638015747070,0.2263172149658203
0.3217638015747070,0.2263172149658203
0.3196683883666992,0.2377155303955078
0.3196683883666992,0.2377155303955078
0.3151216506958008,0.2247974395751953
0.3151216506958008,0.2247974395751953
0.3292093276977539,0.2403156280517578
0.3292093276977539,0.2403156280517578
0.3145317077636718,0.2333438873291016
0.3145317077636718,0.2333438873291016
0.3275173187255859,0.2338623046875000
0.3275173187255859,0.2338623046875000
0.3256050109863281,0.2458099365234375
0.3256050109863281,0.2458099365234375
0.3207647323608399,0.2321657180786133
0.3207647323608399,0.2321657180786133
0.3349903106689453,0.2472759246826172
0.3349903106689453,0.2472759246826172
0.3190378189086914,0.2393714904785156
0.3190378189086914,0.2393714904785156
0.3317453384399414,0.2398035049438476
0.3317453384399414,0.2398035049438476
0.3294136047363281,0.2505666732788086
0.3294136047363281,0.2505666732788086
0.3242815017700195,0.2359685897827148
0.3242815017700195,0.2359685897827148
0.3369958877563476,0.2498279571533203
0.3369958877563476,0.2498279571533203
0.3210794448852539,0.2421535491943359
0.3210794448852539,0.2421535491943359
0.3332656860351562,0.2416740417480469
0.3332656860351562,0.2416740417480469
0.3311651229858398,0.2521162033081055
0.3311651229858398,0.2521162033081055
0.3248519897460938,0.2369470596313477
0.3248519897460938,0.2369470596313477
0.3380224227905274,0.2516086578369141
0.3380224227905274,0.2516086578369141
0.3222084045410156,0.2437065124511719
0.3222084045410156,0.2437065124511719
0.3348289489746094,0.2435056686401367
0.3348289489746094,0.2435056686401367
0.3320663452148437,0.2537521362304687
0.3320663452148437,0.2537521362304687
0.3264976501464844,0.2396593093872070
0.3264976501464844,0.2396593093872070
0.3397699356079101,0.2543809890747070
0.3397699356079101,0.2543809890747070
0.3247890472412109,0.2469280242919922
0.3247890472412109,0.2469280242919922
0.3367795944213867,0.2466035842895508
0.3367795944213867,0.2466035842895508
0.3347562789916992,0.2582599639892578
0.3347562789916992,0.2582599639892578
0.3297718048095703,0.2444738388061523
0.3297718048095703,0.2444738388061523
0.3439561843872070,0.2595754623413086
0.3439561843872070,0.2595754623413086
0.3283184051513672,0.2521116256713867
0.3283184051513672,0.2521116256713867
0.3405927658081054,0.2522758483886718
0.3405927658081054,0.2522758483886718
0.3383628845214844,0.2629297256469726
0.3383628845214844,0.2629297256469726
0.3326745986938476,0.2473480224609375
0.3322511672973633,0.2473480224609375
0.3442914962768555,0.2595096588134765
0.3442914962768555,0.2595096588134765
0.3266990661621094,0.2492860794067383
0.3266990661621094,0.2492860794067383
0.3349365234375000,0.2429294586181641
0.3349365234375000,0.2429294586181641
0.3302158355712890,0.2373928070068359
0.3302158355712890,0.2373928070068359
0.3143978118896484,0.2337089538574219
0.3143978118896484,0.2337089538574219
0.3144521713256836,0.2192916870117188
0.3144521713256836,0.2192916870117188
0.3189445495605469,0.2308708190917969
0.3189445495605469,0.2308708190917969
0.3042675018310547,0.2130363464355469
0.3042675018310547,0.2130363464355469
0.3171489715576172,0.2206111907958984
0.3171489715576172,0.2206111907958984
0.3051418304443359,0.2218528747558594
0.3051418304443359,0.2218528747558594
0.3077064514160156,0.2102645874023437
0.3077064514160156,0.2102645874023437
0.3142112731933593,0.2244455337524414
0.3142112731933593,0.2244455337524414
0.3009510040283203,0.2082567214965820
0.3009510040283203,0.2082567214965820
0.3147897720336914,0.2174257278442383
0.3147897720336914,0.2174257278442383
0.3037857055664062,0.2196081161499023
0.3037857055664062,0.2196081161499023
0.3070775985717774,0.2091184616088867
0.3070775985717774,0.2091184616088867
0.3143571853637695,0.2241794586181640
0.3143571853637695,0.2241794586181640
0.3019443511962890,0.2094314575195312
0.3019443511962890,0.2094314575195312
0.3163438796997070,0.2191715240478516
0.3163438796997070,0.2191715240478516
0.3062089920043945,0.2224994659423828
0.3062089920043945,0.2224994659423828
0.3100233078002930,0.2128801345825195
0.3100233078002930,0.2128801345825195
0.3180067062377930,0.2290987014770508
0.3180067062377930,0.2290987014770508
0.3059738159179687,0.2145996093750000
0.3059738159179687,0.2145996093750000
0.3207733154296875,0.2248826980590820
0.3207733154296875,0.2248826980590820
0.3108558654785156,0.2284961700439453
0.3108558654785156,0.2284961700439453
0.3147989273071289,0.2191801071166992
0.3147989273071289,0.2191801071166992
0.3226713180541992,0.2348630905151367
0.3226713180541992,0.2348630905151367
0.3103437423706055,0.2202335357666016
0.3103437423706055,0.2202335357666016
0.3248571395874023,0.2302991867065430
0.3248571395874023,0.2302991867065430
0.3149305343627929,0.2337387084960937
0.3149305343627929,0.2337387084960937
0.3182418823242187,0.2235162734985351
0.3182418823242187,0.2235162734985351
0.3261497497558594,0.2392187118530273
0.3261497497558594,0.2392187118530273
0.3136459350585937,0.2245599746704101
0.3136459350585937,0.2245599746704101
0.3279430389404297,0.2344287872314453
0.3279430389404297,0.2344287872314453
0.3180736541748047,0.2380508422851562
0.3180736541748047,0.2380508422851562
0.3214336395263672,0.2279783248901367
0.3214336395263672,0.2279783248901367
0.3294708251953125,0.2438089370727539
0.3294708251953125,0.2438089370727539
0.3171758651733398,0.2296531677246094
0.3171758651733398,0.2296531677246094
0.3316240310668945,0.2391220092773437
0.3316240310668945,0.2391220092773437
0.3216590881347656,0.2428676605224609
0.3216590881347656,0.2428676605224609
0.3248908996582031,0.2325828552246094
0.3248908996582031,0.2325828552246094
0.3328868865966797,0.2485296249389648
0.3328868865966797,0.2485296249389648
0.3203676223754883,0.2338222503662109
0.3203676223754883,0.2338222503662109
0.3346881866455078,0.2432361602783203
0.3346881866455078,0.2432361602783203
0.3246843338012695,0.2466178894042969
0.3246843338012695,0.2466178894042969
0.3278423309326172,0.2368486404418945
0.3278423309326172,0.2368486404418945
0.3358057022094726,0.2521654129028320
0.3358057022094726,0.2521654129028320
0.3229803085327148,0.2371335983276367
0.3229803085327148,0.2371335983276367
0.3366691589355469,0.2454374313354492
0.3366691589355469,0.2454374313354492
0.3258556365966797,0.2480129241943359
0.3258556365966797,0.2480129241943359
0.3277994155883789,0.2361574172973633
0.3277994155883789,0.2361574172973633
0.3337640762329102,0.2488689422607422
0.3337640762329102,0.2488689422607422
0.3252096176147461,0.2300903320312500
0.3283521652221680,0.2336917877197265
0.3283521652221680,0.2336917877197265
0.3137472152709961,0.2309354782104492
0.3137472152709961,0.2309354782104492
0.3122806549072266,0.2148983001708984
0.3122806549072266,0.2148983001708984
0.3162700653076172,0.2252380371093750
0.3162700653076172,0.2252380371093750
0.3006122589111328,0.2070173263549805
0.3006122589111328,0.2070173263549805
0.3121089935302734,0.2124034881591797
0.3121089935302734,0.2124034881591797
0.2999685287475586,0.2133293151855469
0.2999685287475586,0.2133293151855469
0.3010173797607422,0.2004804611206055
0.3010173797607422,0.2004804611206055
0.3074300765991211,0.2139793395996094
0.3074300765991211,0.2139793395996094
0.2938476562500000,0.1979913711547852
0.2938476562500000,0.1979913711547852
0.3068035125732422,0.2054517745971680
0.3068035125732422,0.2054517745971680
0.2963098526000976,0.2082509994506836
0.2963098526000976,0.2082509994506836
0.2985889434814453,0.1974317550659180
0.2985889434814453,0.1974317550659180
0.3061317443847656,0.2119354248046875
0.3061317443847656,0.2119354248046875
0.2937767028808594,0.1977888107299805
0.2937767028808594,0.1977888107299805
0.3073396682739258,0.2061538696289062
0.3073396682739258,0.2061538696289062
0.2977569580078125,0.2100797653198242
0.2977569580078125,0.2100797653198242
0.3005905151367188,0.1998104095458984
0.3005905151367188,0.1998104095458984
0.3086849212646484,0.2152084350585937
0.3086849212646484,0.2152084350585937
0.2966365814208984,0.2015241622924805
0.2966365814208984,0.2015241622924805
0.3107059478759766,0.2105798721313477
0.3107059478759766,0.2105798721313477
0.3016336441040039,0.2147203445434570
0.3016336441040039,0.2147203445434570
0.3046686172485352,0.2049070358276367
0.3046686172485352,0.2049070358276367
0.3128734588623047,0.2205562591552734
0.3128734588623047,0.2205562591552734
0.3008073806762695,0.2069040298461914
0.3008073806762695,0.2069040298461914
0.3149539947509766,0.2155305862426758
0.3149539947509766,0.2155305862426758
0.3054931640625000,0.2196819305419922
0.3054931640625000,0.2196819305419922
0.3080938339233398,0.2090103149414062
0.3080938339233398,0.2090103149414062
0.3161161422729492,0.2245748519897461
0.3161161422729492,0.2245748519897461
0.3034091949462890,0.2101100921630859
0.3034091949462890,0.2101100921630859
0.3171621322631836,0.2181529998779297
0.3171621322631836,0.2181529998779297
0.3074844360351562,0.2220817565917969
0.3074844360351562,0.2220817565917969
0.3100725173950195,0.2118181228637695
0.3100725173950195,0.2118181228637695
0.3186040878295898,0.2277442932128906
0.3186040878295898,0.2277442932128906
0.3064956665039062,0.2144433975219726
0.3064956665039062,0.2144433975219726
0.3207738876342773,0.2230401992797852
0.3207738876342773,0.2230401992797852
0.3116666793823242,0.2278375625610352
0.3116666793823242,0.2278375625610352
0.3142690658569336,0.2173759460449219
0.3142690658569336,0.2173759460449219
0.3227434158325195,0.2328157424926758
0.3227434158325195,0.2328157424926758
0.3103832244873047,0.2193666458129883
0.3103832244873047,0.2193666458129883
0.3242958068847656,0.2277019500732422
0.3242958068847656,0.2277019500732422
0.3151508331298828,0.2322309494018555
0.3151508331298828,0.2322309494018555
0.3175266265869141,0.2218431472778320
0.3175266265869141,0.2218431472778320
0.3263277053833007,0.2378362655639648
0.3263277053833007,0.2378362655639648
0.3143308639526367,0.2248929977416992
0.3143308639526367,0.2248929977416992
0.3284454345703125,0.2332162857055664
0.3284454345703125,0.2332162857055664
0.3194795608520508,0.2381029129028320
0.3194795608520508,0.2381029129028320
0.3223005294799804,0.2279628753662109
0.3223005294799804,0.2279628753662109
0.3301557540893554,0.2439765930175781
0.3301557540893554,0.2439765930175781
0.3183574676513672,0.2303443908691406
0.3183574676513672,0.2303443908691406
0.3321510314941406,0.2381298065185547
0.3321510314941406,0.2381298065185547
0.3228681564331055,0.2426450729370117
0.3228681564331055,0.2426450729370117
0.3252593994140625,0.2323179244995117
0.3252593994140625,0.2323179244995117
0.3337869644165039,0.2477085113525390
0.3337869644165039,0.2477085113525390
0.3212991714477539,0.2343441009521484
0.3212991714477539,0.2343441009521484
0.3350297927856445,0.2417100906372070
0.3350297927856445,0.2417100906372070
0.3253366470336914,0.2455266952514648
0.3253366470336914,0.2455266952514648
0.3263082504272461,0.2332288742065430
0.3263082504272461,0.2332288742065430
0.3331546783447266,0.2459947586059570
0.3331546783447266,0.2459947586059570
0.3180404663085937,0.2288618087768555
0.3180404663085937,0.2288618087768555
0.3276981353759765,0.2307626724243164
0.3276981353759765,0.2307626724243164
0.3132493972778320,0.2288349151611328
0.3132493972778320,0.2288349151611328
0.3110057830810547,0.2126626968383789
0.3110057830810547,0.2126626968383789
0.3158918380737304,0.2238029479980469
0.3158918380737304,0.2238029479980469
0.3007696151733398,0.2072450637817383
0.3007696151733398,0.2072450637817383
0.3124431610107422,0.2122203826904297
0.3124431610107422,0.2122203826904297
0.3017532348632813,0.2149955749511719
0.3017532348632813,0.2149955749511719
0.3024438858032226,0.2025381088256836
0.3024438858032226,0.2025381088256836
0.3100702285766602,0.2166515350341797
0.3100702285766602,0.2166515350341797
0.2966669082641601,0.2020317077636719
0.2966669082641601,0.2020317077636719
0.3096439361572266,0.2084861755371094
0.3096439361572266,0.2084861755371094
0.2997522354125977,0.2125053405761719
0.2997522354125977,0.2125053405761719
0.3012977600097656,0.2012603759765625
0.3012977600097656,0.2012603759765625
0.3095008850097656,0.2159837722778320
0.3095008850097656,0.2159837722778320
0.2967504501342773,0.2023910522460937
0.2967504501342773,0.2023910522460937
0.3102321624755859,0.2093639373779297
0.3102321624755859,0.2093639373779297
0.3012365341186523,0.2144268035888672
0.3012365341186523,0.2144268035888672
0.3029840469360351,0.2035720825195312
0.3029840469360351,0.2035720825195312
0.3119905471801758,0.2191017150878906
0.3119905471801758,0.2191017150878906
0.2996480941772461,0.2062803268432617
0.2996480941772461,0.2062803268432617
0.3139114379882812,0.2142940521240234
0.3139114379882812,0.2142940521240234
0.3055732727050781,0.2201477050781250
0.3055732727050781,0.2201477050781250
0.3081230163574218,0.2100528717041016
0.3081230163574218,0.2100528717041016
0.3173950195312500,0.2259218215942383
0.3173950195312500,0.2259218215942383
0.3052219390869140,0.2137332916259766
0.3052219390869140,0.2137332916259766
0.3193828582763672,0.2212841033935547
0.3193828582763672,0.2212841033935547
0.3108055114746094,0.2267063140869141
0.3108055114746094,0.2267063140869141
0.3126062393188476,0.2158395767211914
0.3126062393188476,0.2158395767211914
0.3215595245361328,0.2313938140869141
0.3215595245361328,0.2313938140869141
0.3089040756225586,0.2184007644653320
0.3089040756225586,0.2184007644653320
0.3228012084960937,0.2253461837768554
0.3228012084960937,0.2253461837768554
0.3135646820068359,0.2302413940429687
0.3135646820068359,0.2302413940429687
0.3153333663940430,0.2191349029541016
0.3153333663940430,0.2191349029541016
0.3239770889282226,0.2343772888183594
0.3239770889282226,0.2343772888183594
0.3111602783203125,0.2211193084716797
0.3111602783203125,0.2211193084716797
0.3246065139770508,0.2276578903198242
0.3246065139770508,0.2276578903198242
0.3154466629028320,0.2327138900756836
0.3154466629028320,0.2327138900756836
0.3172834396362305,0.2217813491821289
0.3172834396362305,0.2217813491821289
0.3261234283447266,0.2369659423828125
0.3261234283447266,0.2369659423828125
0.3228052139282226,0.2374860763549805
0.3228052139282226,0.2374860763549805
0.3176010131835937,0.2217727661132813
0.3171083450317383,0.2217727661132813
0.3283052444458008,0.2350639343261719
0.3283052444458008,0.2350639343261719
0.3129238128662109,0.2308879852294922
0.3304922103881836,0.2308879852294922
0.3244800567626953,0.2286529541015625
0.3244800567626953,0.2286529541015625
0.3254796981811524,0.2416402816772461
0.3254796981811524,0.2416402816772461
0.3186847686767578,0.2277111053466797
0.3186847686767578,0.2277111053466797
0.3334281921386719,0.2423360824584961
0.3334281921386719,0.2423360824584961
0.3191425323486328,0.2401439666748047
0.3191425323486328,0.2401439666748047
0.3318117141723633,0.2390441894531250
0.3318117141723633,0.2390441894531250
0.3345943450927734,0.2540319442749023
0.3345943450927734,0.2540319442749023
0.3284368515014648,0.2412466049194336
0.3284368515014648,0.2412466049194336
0.3443962097167969,0.2577260971069336
0.3443962097167969,0.2577260971069336
0.3305740356445312,0.2555774688720703
0.3305740356445312,0.2555774688720703
0.3428443908691406,0.2531044006347656
0.3428443908691406,0.2531044006347656
0.3430526733398437,0.2653284072875977
0.3430526733398437,0.2653284072875977
0.3347654342651367,0.2493289947509766
0.3347654342651367,0.2493289947509766
0.3472875595092773,0.2604074478149414
0.3472875595092773,0.2604074478149414
0.3297317504882812,0.2527198791503906
0.3297317504882812,0.2527198791503906
0.3371034622192383,0.2443393707275391
0.3371034622192383,0.2443393707275391
0.3338756561279297,0.2518466949462890
0.3338756561279297,0.2518466949462890
0.3219383239746094,0.2314321517944336
0.3219383239746094,0.2314321517944336
0.3327644348144531,0.2402801513671875
0.3327644348144531,0.2402801513671875
0.3140945434570312,0.2324295043945312
0.3140945434570312,0.2324295043945312
0.3226163864135742,0.2258651733398437
0.3226163864135742,0.2258651733398437
0.3216081619262695,0.2362941741943359
0.3216081619262695,0.2362941741943359
0.3125123977661133,0.2194627761840820
0.3125123977661133,0.2194627761840820
0.3255929946899414,0.2317983627319336
0.3255929946899414,0.2317983627319336
0.3097869873046875,0.2276538848876953
0.3097869873046875,0.2276538848876953
0.3204259872436523,0.2232215881347656
0.3204259872436523,0.2232215881347656
0.3213300704956055,0.2355594635009766
0.3213300704956055,0.2355594635009766
0.3126594543457031,0.2197649002075195
0.3126594543457031,0.2197649002075195
0.3266115188598633,0.2332094192504883
0.3266115188598633,0.2332094192504883
0.3116437911987305,0.2297252655029297
0.3116437911987305,0.2297252655029297
0.3230443954467773,0.2262519836425781
0.3230443954467773,0.2262519836425781
0.3239850997924805,0.2391231536865234
0.3239850997924805,0.2391231536865234
0.3163879394531250,0.2249799728393555
0.3163879394531250,0.2249799728393555
0.3311159133911133,0.2389778137207031
0.3311159133911133,0.2389778137207031
0.3168354034423828,0.2363445281982422
0.3168354034423828,0.2363445281982422
0.3284088134765625,0.2335750579833984
0.3284088134765625,0.2335750579833984
0.3304086685180664,0.2478063583374023
0.3304086685180664,0.2478063583374023
0.3236320495605469,0.2341987609863281
0.3236320495605469,0.2341987609863281
0.3389310836791992,0.2486223220825195
0.3389310836791992,0.2486223220825195
0.3244079589843750,0.2457618713378906
0.3244079589843750,0.2457618713378906
0.3360139846801758,0.2435428619384765
0.3360139846801758,0.2435428619384765
0.3376344680786132,0.2571012496948242
0.3376344680786132,0.2571012496948242
0.3309900283813477,0.2433477401733398
0.3309900283813477,0.2433477401733398
0.3452682495117188,0.2573661804199219
0.3452682495117188,0.2573661804199219
0.3305099487304687,0.2547740936279297
0.3305099487304687,0.2547740936279297
0.3419368743896484,0.2517900466918945
0.3419368743896484,0.2517900466918945
0.3436151504516601,0.2648391723632812
0.3436151504516601,0.2648391723632812
0.3353862762451172,0.2497947692871094
0.3353862762451172,0.2497947692871094
0.3496976852416992,0.2636610031127929
0.3496976852416992,0.2636610031127929
0.3346446990966797,0.2602031707763672
0.3519779205322265,0.2602031707763672
0.3458908081054687,0.2563602447509766
0.3458908081054687,0.2563602447509766
0.3462203979492187,0.2686901092529297
0.3462203979492187,0.2686901092529297
0.3378662109375000,0.2537349700927734
0.3378662109375000,0.2537349700927734
0.3520963668823242,0.2668996810913086
0.3520963668823242,0.2668996810913086
0.3371395111083984,0.2631912231445312
0.3371395111083984,0.2631912231445312
0.3473281860351562,0.2589855194091797
0.3473281860351562,0.2589855194091797
0.3480503082275391,0.2716363906860351
0.3480503082275391,0.2716363906860351
0.3397773742675781,0.2562852859497070
0.3397773742675781,0.2562852859497070
0.3544687271118164,0.2698631286621094
0.3544687271118164,0.2698631286621094
0.3391880035400390,0.2663097381591797
0.3391880035400390,0.2663097381591797
0.3499237060546875,0.2626184463500976
0.3499237060546875,0.2626184463500976
0.3507350921630859,0.2752309799194336
0.3507350921630859,0.2752309799194336
0.3431425094604492,0.2603576660156250
0.3431425094604492,0.2603576660156250
0.3567821502685547,0.2730749130249023
0.3567821502685547,0.2730749130249023
0.3411403656005859,0.2690700531005859
0.3411403656005859,0.2690700531005859
0.3510721206665039,0.2637416839599609
0.3510721206665039,0.2637416839599609
0.3505754470825195,0.2736803054809570
0.3505754470825195,0.2736803054809570
0.3390369415283203,0.2541017532348633
0.3390369415283203,0.2541017532348633
0.3498069763183594,0.2628890991210938
0.3498069763183594,0.2628890991210938
0.3297243118286133,0.2519330978393555
0.3297243118286133,0.2519330978393555
0.3331214904785156,0.2374099731445312
0.3331214904785156,0.2374099731445312
0.3257331848144531,0.2400598526000977
0.3257331848144531,0.2400598526000977
0.3117301940917969,0.2182691574096680
0.3117301940917969,0.2182691574096680
0.3219989776611328,0.2267784118652344
0.3219989776611328,0.2267784118652344
0.3043544769287109,0.2200069427490234
0.3043544769287109,0.2200069427490234
0.3128528594970703,0.2134477615356445
0.3128528594970703,0.2134477615356445
0.3125850677490234,0.2245416641235352
0.3125850677490234,0.2245416641235352
0.3031637191772461,0.2079706192016602
0.3031637191772461,0.2079706192016602
0.3170213699340820,0.2202690124511719
0.3170213699340820,0.2202690124511719
0.3013195037841797,0.2161296844482422
0.3013195037841797,0.2161296844482422
0.3117530822753906,0.2120172500610351
0.3117530822753906,0.2120172500610351
0.3130147933959961,0.2247236251831055
0.3130147933959961,0.2247236251831055
0.3052511215209961,0.2100208282470703
0.3052511215209961,0.2100208282470703
0.3194320678710937,0.2233154296875000
0.3194320678710937,0.2233154296875000
0.3049226760864258,0.2210987091064453
0.3049226760864258,0.2210987091064453
0.3163358688354492,0.2178932189941406
0.3163358688354492,0.2178932189941406
0.3185125350952148,0.2315031051635742
0.3185125350952148,0.2315031051635742
0.3105703353881836,0.2170921325683594
0.3105703353881836,0.2170921325683594
0.3255008697509765,0.2312971115112304
0.3255008697509765,0.2312971115112304
0.3111396789550781,0.2290952682495117
0.3111396789550781,0.2290952682495117
0.3227348327636719,0.2260105133056640
0.3227348327636719,0.2260105133056640
0.3244554519653320,0.2397159576416016
0.3244554519653320,0.2397159576416016
0.3170591354370117,0.2261432647705078
0.3170591354370117,0.2261432647705078
0.3320692062377930,0.2400787353515625
0.3320692062377930,0.2400787353515625
0.3181491851806640,0.2381492614746094
0.3181491851806640,0.2381492614746094
0.3291028976440429,0.2344882965087891
0.3291028976440429,0.2344882965087891
0.3309299468994141,0.2482772827148437
0.3309299468994141,0.2482772827148437
0.3228744506835937,0.2339492797851562
0.3228744506835937,0.2339492797851562
0.3380195617675781,0.2474470138549805
0.3380195617675781,0.2474470138549805
0.3231164932250977,0.2448743820190430
0.3231164932250977,0.2448743820190430
0.3339145660400391,0.2412048339843750
0.3339145660400391,0.2412048339843750
0.3359338760375977,0.2542482376098633
0.3396537780761719,0.2542482376098633
0.3277662277221680,0.2395414352416992
0.3277662277221680,0.2395414352416992
0.3418476104736328,0.2522432327270508
0.3418476104736328,0.2522432327270508
0.3269233703613281,0.2498428344726562
0.3269233703613281,0.2498428344726562
0.3375497817993164,0.2454809188842773
0.3375497817993164,0.2454809188842773
0.3392429351806641,0.2583320617675781
0.3392429351806641,0.2583320617675781
0.3302650451660156,0.2430484771728516
0.3302650451660156,0.2430484771728516
0.3444339752197266,0.2559207916259765
0.3444339752197266,0.2559207916259765
0.3295274734497070,0.2532302856445313
0.3295274734497070,0.2532302856445313
0.3403976440429687,0.2491704940795898
0.3403976440429687,0.2491704940795898
0.3415094375610351,0.2616577148437500
0.3415094375610351,0.2616577148437500
0.3331449508666992,0.2471374511718750
0.3331449508666992,0.2471374511718750
0.3473144531250000,0.2598730087280273
0.3473144531250000,0.2598730087280273
0.3328468322753906,0.2571287155151367
0.3328468322753906,0.2571287155151367
0.3430017471313476,0.2525556564331055
0.3430017471313476,0.2525556564331055
0.3444082260131836,0.2657186508178711
0.3444082260131836,0.2657186508178711
0.3357261657714843,0.2508207321166992
0.3357261657714843,0.2508207321166992
0.3502075195312500,0.2629743576049804
0.3502075195312500,0.2629743576049804
0.3335088729858398,0.2577369689941406
0.3335088729858398,0.2577369689941406
0.3405172348022461,0.2487625122070312
0.3405172348022461,0.2487625122070312
0.3365364074707031,0.2541612625122070
0.3365364074707031,0.2541612625122070
0.3219154357910156,0.2309503555297852
0.3219154357910156,0.2309503555297852
0.3298318862915039,0.2356624603271484
0.3298318862915039,0.2356624603271484
0.3094688415527344,0.2268716812133789
0.3094688415527344,0.2268716812133789
0.3161212921142578,0.2177787780761719
0.3161212921142578,0.2177787780761719
0.3156332015991211,0.2281608581542969
0.3156332015991211,0.2281608581542969
0.3048894882202148,0.2106754302978515
0.3048894882202148,0.2106754302978515
0.3183860778808594,0.2226470947265625
0.3183860778808594,0.2226470947265625
0.3027774810791016,0.2192939758300781
0.3027774810791016,0.2192939758300781
0.3133106231689453,0.2141000747680664
0.3133106231689453,0.2141000747680664
0.3142330169677734,0.2263509750366211
0.3142330169677734,0.2263509750366211
0.3049364089965820,0.2109540939331055
0.3049364089965820,0.2109540939331055
0.3194480895996094,0.2233932495117187
0.3194480895996094,0.2233932495117187
0.3042028427124023,0.2204441070556641
0.3042028427124023,0.2204441070556641
0.3142295837402344,0.2153680801391601
0.3142295837402344,0.2153680801391601
0.3158237457275391,0.2286895751953125
0.3158237457275391,0.2286895751953125
0.3069385528564453,0.2135004043579102
0.3069385528564453,0.2135004043579102
0.3219406127929688,0.2264059066772461
0.3219406127929688,0.2264059066772461
0.3065963745117187,0.2234601974487305
0.3065963745117187,0.2234601974487305
0.3171855926513672,0.2194250106811523
0.3171855926513672,0.2194250106811523
0.3190790176391601,0.2326835632324219
0.3190790176391601,0.2326835632324219
0.3106515884399414,0.2178428649902344
0.3106515884399414,0.2178428649902344
0.3252107620239258,0.2307317733764648
0.3252107620239258,0.2307317733764648
0.3103231430053711,0.2287611007690430
0.3103231430053711,0.2287611007690430
0.3213140487670899,0.2248546600341797
0.3213140487670899,0.2248546600341797
0.3243553161621094,0.2382711410522461
0.3280460357666016,0.2382711410522461
0.3204620361328125,0.2242567062377930
0.3198440551757812,0.2242567062377930
0.3308052062988281,0.2382436752319336
0.3308052062988281,0.2382436752319336
0.3163810729980469,0.2364006042480469
0.3163810729980469,0.2364006042480469
0.3277536392211914,0.2325090408325195
0.3277536392211914,0.2325090408325195
0.3295806884765625,0.2457475662231445
0.3295806884765625,0.2457475662231445
0.3206823348999023,0.2309560775756836
0.3206823348999023,0.2309560775756836
0.3353782653808594,0.2435651779174804
0.3353782653808594,0.2435651779174804
0.3202571868896484,0.2410383224487305
0.3202571868896484,0.2410383224487305
0.3301300048828125,0.2357213973999023
0.3301300048828125,0.2357213973999023
0.3316102981567383,0.2490692138671875
0.3316102981567383,0.2490692138671875
0.3221517562866211,0.2332872390747070
0.3221517562866211,0.2332872390747070
0.3369203567504883,0.2454242706298828
0.3369203567504883,0.2454242706298828
0.3205890655517578,0.2419767379760742
0.3205890655517578,0.2419767379760742
0.3306421279907226,0.2367113113403320
0.3306421279907226,0.2367113113403320
0.3321928024291992,0.2495830535888672
0.3321928024291992,0.2495830535888672
0.3229711532592773,0.2338468551635742
0.3229711532592773,0.2338468551635742
0.3370788574218750,0.2458625793457031
0.3370788574218750,0.2458625793457031
0.3215612411499023,0.2436069488525391
0.3215612411499023,0.2436069488525391
0.3321979522705078,0.2389165878295898
0.3321979522705078,0.2389165878295898
0.3346561431884765,0.2523502349853515
0.3346561431884765,0.2523502349853515
0.3252885818481445,0.2372543334960937
0.3252885818481445,0.2372543334960937
0.3405252456665039,0.2507921218872070
0.3405252456665039,0.2507921218872070
0.3255781173706054,0.2489599227905273
0.3255781173706054,0.2489599227905273
0.3371091842651367,0.2448783874511719
0.3371091842651367,0.2448783874511719
0.3389144897460937,0.2583887100219727
0.3389144897460937,0.2583887100219727
0.3300888061523438,0.2440595626831055
0.3300888061523438,0.2440595626831055
0.3453042984008789,0.2569782257080078
0.3453042984008789,0.2569782257080078
0.3305007934570313,0.2544919967651367
0.3305007934570313,0.2544919967651367
0.3393545150756836,0.2475545883178711
0.3393545150756836,0.2475545883178711
0.3387748718261719,0.2573942184448242
0.3387748718261719,0.2573942184448242
0.3246763229370117,0.2353054046630859
0.3246763229370117,0.2353054046630859
0.3340158462524414,0.2394842147827148
0.3340158462524414,0.2394842147827148
0.3119441986083984,0.2292051315307617
0.3270074844360352,0.2292051315307617
0.3178218841552734,0.2189128875732422
0.3178218841552734,0.2189128875732422
0.3166700363159179,0.2285064697265625
0.3166700363159179,0.2285064697265625
0.3052419662475586,0.2098548889160156
0.3052419662475586,0.2098548889160156
0.3176971435546875,0.2195869445800781
0.3046331405639648,0.2195869445800781
0.3004932403564453,0.2154241561889648
0.3004932403564453,0.2154241561889648
0.3096376419067383,0.2083385467529297
0.3096376419067383,0.2083385467529297
0.3106956481933594,0.2200584411621094
0.3106956481933594,0.2200584411621094
0.2996309280395508,0.2027423858642578
0.2996309280395508,0.2027423858642578
0.3137077331542968,0.2144542694091797
0.3137077331542968,0.2144542694091797
0.2973592758178711,0.2110748291015625
0.2973592758178711,0.2110748291015625
0.3075828552246094,0.2051130294799805
0.3075828552246094,0.2051130294799805
0.3088989257812500,0.2177730560302734
0.3088989257812500,0.2177730560302734
0.2993722915649414,0.2026159286499023
0.2993722915649414,0.2026159286499023
0.3143709182739258,0.2149772644042969
0.3143709182739258,0.2149772644042969
0.2996103286743164,0.2129899978637695
0.2996103286743164,0.2129899978637695
0.3094820022583007,0.2076450347900391
0.3094820022583007,0.2076450347900391
0.3117656707763672,0.2216646194458008
0.3117656707763672,0.2216646194458008
0.3024839401245117,0.2065177917480469
0.3024839401245117,0.2065177917480469
0.3183546066284180,0.2194507598876953
0.3183546066284180,0.2194507598876953
0.3025177001953125,0.2170446395874023
0.3025177001953125,0.2170446395874023
0.3128019332885742,0.2123903274536133
0.3128019332885742,0.2123903274536133
0.3154706954956055,0.2264350891113281
0.3154706954956055,0.2264350891113281
0.3063108444213867,0.2111503601074219
0.3063108444213867,0.2111503601074219
0.3210411071777344,0.2234865188598633
0.3210411071777344,0.2234865188598633
0.3058874130249024,0.2221675872802734
0.3236371994018555,0.2221675872802734
0.3166191101074219,0.2172288894653320
0.3166191101074219,0.2172288894653320
0.3195688247680664,0.2312965393066406
0.3195688247680664,0.2312965393066406
0.3098556518554688,0.2160066604614258
0.3098556518554688,0.2160066604614258
0.3255151748657226,0.2296731948852539
0.3255151748657226,0.2296731948852539
0.3107620239257812,0.2282775878906250
0.3107620239257812,0.2282775878906250
0.3217203140258789,0.2233411788940430
0.3217203140258789,0.2233411788940430
0.3237178802490234,0.2369636535644531
0.3237178802490234,0.2369636535644531
0.3140882492065429,0.2219095230102539
0.3140882492065429,0.2219095230102539
0.3291732788085938,0.2339933395385742
0.3291732788085938,0.2339933395385742
0.3140018463134766,0.2317869186401367
0.3140018463134766,0.2317869186401367
0.3233253479003906,0.2257284164428711
0.3233253479003906,0.2257284164428711
0.3252359390258789,0.2392284393310547
0.3252359390258789,0.2392284393310547
0.3153167724609375,0.2234956741333008
0.3153167724609375,0.2234956741333008
0.3305997848510742,0.2356962203979492
0.3305997848510742,0.2356962203979492
0.3145483016967773,0.2330972671508789
0.3145483016967773,0.2330972671508789
0.3246728897094727,0.2280401229858398
0.3246728897094727,0.2280401229858398
0.3269433975219727,0.2414480209350586
0.3269433975219727,0.2414480209350586
0.3175346374511719,0.2260133743286133
0.3175346374511719,0.2260133743286133
0.3321172714233399,0.2381795883178711
0.3321172714233399,0.2381795883178711
0.3169212341308594,0.2367467880249023
0.3169212341308594,0.2367467880249023
0.3274337768554688,0.2318515777587891
0.3274337768554688,0.2318515777587891
0.3306009292602539,0.2459129333496094
0.3306009292602539,0.2459129333496094
0.3207595825195312,0.2307935714721679
0.3263757705688476,0.2307935714721679
0.3362302780151367,0.2442546844482422
0.3362302780151367,0.2442546844482422
0.3211069107055664,0.2421478271484375
0.3211069107055664,0.2421478271484375
0.3311994552612305,0.2355680465698242
0.3311994552612305,0.2355680465698242
0.3308349609375000,0.2454036712646484
0.3308349609375000,0.2454036712646484
0.3170957565307617,0.2249233245849609
0.3170957565307617,0.2249233245849609
0.3273050308227539,0.2307489395141601
0.3273050308227539,0.2307489395141601
0.3075937271118164,0.2227638244628906
0.3075937271118164,0.2227638244628906
0.3134496688842773,0.2123931884765625
0.3134496688842773,0.2123931884765625
0.3129787445068359,0.2227157592773437
0.3129787445068359,0.2227157592773437
0.3010597229003906,0.2045059204101562
0.3010597229003906,0.2045059204101562
0.3149368286132813,0.2144937515258789
0.3149368286132813,0.2144937515258789
0.2974376678466797,0.2101936340332031
0.2974376678466797,0.2101936340332031
0.3062278747558594,0.2032384872436523
0.3062278747558594,0.2032384872436523
0.3074878692626953,0.2152416229248047
0.3074878692626953,0.2152416229248047
0.2970582962036133,0.1985389709472656
0.2970582962036133,0.1985389709472656
0.3109891891479492,0.2095510482788086
0.3109891891479492,0.2095510482788086
0.2948152542114258,0.2070997238159180
0.2948152542114258,0.2070997238159180
0.3045370101928711,0.2007951736450195
0.3045370101928711,0.2007951736450195
0.3067869186401367,0.2135725021362305
0.3067869186401367,0.2135725021362305
0.2961015701293945,0.1972846984863281
0.2961015701293945,0.1972846984863281
0.3110160827636719,0.2095933914184570
0.3110160827636719,0.2095933914184570
0.2953697204589844,0.2074087142944336
0.2953697204589844,0.2074087142944336
0.3057815551757813,0.2016923904418945
0.3057815551757813,0.2016923904418945
0.3078248977661133,0.2152278900146484
0.3078248977661133,0.2152278900146484
0.2981552124023437,0.2005966186523437
0.2981552124023437,0.2005966186523437
0.3138874053955078,0.2134300231933594
0.3138874053955078,0.2134300231933594
0.2993333816528320,0.2120447158813477
0.3165132522583008,0.2120447158813477
0.3090957641601562,0.2066768646240234
0.3090957641601562,0.2066768646240234
0.3121805191040039,0.2211336135864258
0.3121805191040039,0.2211336135864258
0.3027654647827148,0.2063884735107422
0.3027654647827148,0.2063884735107422
0.3189645767211914,0.2193466186523438
0.3189645767211914,0.2193466186523438
0.3036661148071289,0.2180328369140625
0.3036661148071289,0.2180328369140625
0.3141242980957031,0.2133327484130859
0.3141242980957031,0.2133327484130859
0.3171340942382813,0.2276573181152344
0.3171340942382813,0.2276573181152344
0.3081659317016601,0.2130397796630859
0.3081659317016601,0.2130397796630859
0.3234546661376953,0.2256643295288086
0.3234546661376953,0.2256643295288086
0.3088954925537109,0.2251396179199219
0.3088954925537109,0.2251396179199219
0.3193983078002929,0.2203777313232422
0.3193983078002929,0.2203777313232422
0.3230031967163086,0.2348281860351562
0.3230031967163086,0.2348281860351562
0.3135612487792969,0.2203674316406250
0.3135612487792969,0.2203674316406250
0.3294685363769531,0.2340351104736328
0.3294685363769531,0.2340351104736328
0.3152235031127930,0.2332448959350586
0.3152235031127930,0.2332448959350586
0.3262722015380859,0.2286661148071289
0.3262722015380859,0.2286661148071289
0.3244142532348633,0.2423171997070312
0.3244142532348633,0.2423171997070312
0.3353473663330078,0.2456428527832031
0.3293735504150391,0.2456428527832031
0.3328222274780273,0.2353523254394531
0.3328222274780273,0.2353523254394531
0.3355951309204102,0.2398075103759766
0.3355951309204102,0.2398075103759766
0.3282623291015625,0.2478509902954101
0.3282623291015625,0.2478509902954101
0.3280197143554687,0.2360200881958008
0.3280197143554687,0.2360200881958008
0.3386255264282226,0.2507183074951172
0.3386255264282226,0.2507183074951172
0.3241590499877929,0.2398916244506836
0.3241590499877929,0.2398916244506836
0.3384075164794922,0.2438718795776367
0.3384075164794922,0.2438718795776367
0.3305522918701172,0.2506834030151367
0.3305522918701172,0.2506834030151367
0.3292705535888672,0.2374031066894531
0.3292705535888672,0.2374031066894531
0.3386667251586914,0.2502828598022461
0.3386667251586914,0.2502828598022461
0.3222095489501953,0.2367244720458984
0.3222095489501953,0.2367244720458984
0.3340965270996094,0.2372629165649414
0.3340965270996094,0.2372629165649414
0.3230672836303711,0.2399671554565430
0.3230672836303711,0.2399671554565430
0.3188055038452148,0.2228902816772461
0.3188055038452148,0.2228902816772461
0.3255552291870117,0.2324312210083008
0.3255552291870117,0.2324312210083008
0.3080377578735352,0.2179035186767578
0.3080377578735352,0.2179035186767578
0.3200237274169922,0.2190616607666016
0.3200237274169922,0.2190616607666016
0.3106298446655273,0.2237932205200195
0.3106298446655273,0.2237932205200195
0.3086992263793945,0.2098674774169922
0.3086992263793945,0.2098674774169922
0.3178670883178711,0.2222494125366211
0.3178670883178711,0.2222494125366211
0.3022802352905273,0.2101833343505859
0.3022802352905273,0.2101833343505859
0.3135211944580078,0.2122032165527344
0.3031087875366211,0.2061807632446289
0.3079730987548828,0.2061807632446289
0.3178808212280274,0.2173713684082031
0.3178808212280274,0.2173713684082031
0.3017189025878906,0.2144788742065430
0.3017189025878906,0.2144788742065430
0.3109359741210938,0.2081045150756836
0.3109359741210938,0.2081045150756836
0.3128528594970703,0.2211513519287109
0.3128528594970703,0.2211513519287109
0.3031740188598633,0.2053550720214844
0.3031740188598633,0.2053550720214844
0.3174150466918945,0.2168426513671875
0.3174150466918945,0.2168426513671875
0.3019924163818359,0.2147804260253906
0.3019924163818359,0.2147804260253906
0.3115373611450195,0.2091384887695313
0.3115373611450195,0.2091384887695313
0.3141632080078125,0.2223821640014648
0.3141632080078125,0.2223821640014648
0.3039430618286132,0.2070722579956055
0.3039430618286132,0.2070722579956055
0.3194366455078125,0.2200830459594726
0.3194366455078125,0.2200830459594726
0.3045455932617188,0.2184980392456055
0.3221494674682617,0.2184980392456055
0.3153001785278320,0.2138208389282227
0.3040969848632812,0.2138208389282227
0.3180130004882812,0.2278409957885742
0.3180130004882812,0.2278409957885742
0.3087078094482422,0.2136262893676758
0.3087078094482422,0.2136262893676758
0.3244731903076172,0.2265632629394531
0.3244731903076172,0.2265632629394531
0.3101526260375976,0.2253049850463867
0.3101526260375976,0.2253049850463867
0.3201656341552734,0.2202363967895508
0.3201656341552734,0.2202363967895508
0.3229488372802734,0.2344654083251953
0.3229488372802734,0.2344654083251953
0.3134925842285156,0.2196035385131836
0.3134925842285156,0.2196035385131836
0.3294851303100586,0.2325479507446289
0.3294851303100586,0.2325479507446289
0.3146741867065430,0.2313142776489258
0.3146741867065430,0.2313142776489258
0.3254201889038086,0.2269769668579101
0.3254201889038086,0.2269769668579101
0.3283945083618164,0.2409679412841797
0.3283945083618164,0.2409679412841797
0.3195196151733398,0.2264207839965820
0.3195196151733398,0.2264207839965820
0.3346515655517578,0.2391832351684570
0.3346515655517578,0.2391832351684570
0.3198429107666015,0.2381509780883789
0.3198429107666015,0.2381509780883789
0.3303222656250000,0.2335103988647461
0.3303222656250000,0.2335103988647461
0.3336135864257813,0.2476095199584961
0.3336135864257813,0.2476095199584961
0.3238363265991211,0.2327281951904297
0.3238363265991211,0.2327281951904297
0.3388893127441406,0.2456171035766601
0.3388893127441406,0.2456171035766601
0.3240554809570312,0.2441001892089844
0.3240554809570312,0.2441001892089844
0.3346069335937500,0.2393463134765625
0.3346069335937500,0.2393463134765625
0.3369043350219726,0.2529956817626953
0.3369043350219726,0.2529956817626953
0.3275922775268554,0.2387472152709961
0.3275922775268554,0.2387472152709961
0.3431922912597656,0.2517986297607422
0.3431922912597656,0.2517986297607422
0.3290205001831055,0.2502788543701172
0.3290205001831055,0.2502788543701172
0.3388813018798828,0.2452669143676758
0.3388813018798828,0.2452669143676758
0.3417045593261719,0.2593294143676758
0.3417045593261719,0.2593294143676758
0.3322362899780273,0.2444080352783203
0.3322362899780273,0.2444080352783203
0.3478277206420898,0.2567533493041992
0.3478277206420898,0.2567533493041992
0.3322116851806641,0.2542928695678711
0.3322116851806641,0.2542928695678711
0.3416444778442383,0.2484094619750976
0.3416444778442383,0.2484094619750976
0.3424678802490234,0.2588315963745117
0.3424678802490234,0.2588315963745117
0.3287761688232422,0.2370088577270508
0.3287761688232422,0.2370088577270508
0.3363046646118164,0.2391271591186523
0.3363046646118164,0.2391271591186523
0.3138158798217773,0.2282770156860351
0.3138158798217773,0.2282770156860351
0.3182458877563477,0.2165885925292969
0.3182458877563477,0.2165885925292969
0.3175031661987305,0.2255258560180664
0.3186521530151367,0.2255258560180664
0.3049266815185547,0.2070018768310547
0.3090345382690430,0.2070018768310547
0.3179861068725586,0.2169588088989258
0.3051126480102539,0.2169588088989258
0.3014316558837891,0.2129945755004883
0.3177984237670898,0.2129945755004883
0.3103328704833984,0.2061401367187500
0.2983543395996094,0.2061401367187500
0.3114927291870117,0.2179281234741211
0.3114927291870117,0.2179281234741211
0.3009304046630859,0.2020002365112305
0.3009304046630859,0.2020002365112305
0.3154706954956055,0.2134700775146484
0.3154706954956055,0.2134700775146484
0.3003450393676758,0.2108076095581055
0.3003450393676758,0.2108076095581055
0.3095678329467773,0.2048046112060547
0.3095678329467773,0.2048046112060547
0.3117605209350586,0.2178548812866211
0.3117605209350586,0.2178548812866211
0.3018848419189453,0.2023687362670898
0.3018848419189453,0.2023687362670898
0.3170825958251953,0.2144834518432617
0.3170825958251953,0.2144834518432617
0.3016851425170898,0.2122020721435547
0.3188907623291016,0.2122020721435547
0.3117055892944336,0.2074087142944336
0.3117055892944336,0.2074087142944336
0.3143308639526367,0.2211353302001953
0.3143308639526367,0.2211353302001953
0.3053106307983398,0.2065595626831055
0.3053106307983398,0.2065595626831055
0.3206645965576172,0.2191881179809570
0.3206645965576172,0.2191881179809570
0.3059658050537109,0.2180912017822265
0.3059658050537109,0.2180912017822265
0.3165956497192383,0.2136703491210938
0.3165956497192383,0.2136703491210938
0.3196769714355469,0.2273494720458984
0.3196769714355469,0.2273494720458984
0.3099655151367187,0.2123542785644531
0.3099655151367187,0.2123542785644531
0.3251283645629883,0.2254137039184570
0.3251283645629883,0.2254137039184570
0.3102161407470703,0.2232891082763672
0.3102161407470703,0.2232891082763672
0.3206645965576172,0.2181455612182617
0.3206645965576172,0.2181455612182617
0.3222845077514648,0.2308816909790039
0.3222845077514648,0.2308816909790039
0.3123378753662109,0.2157245635986328
0.3123378753662109,0.2157245635986328
0.3269393920898437,0.2275543212890625
0.3269393920898437,0.2275543212890625
0.3115699768066406,0.2247007369995117
0.3115699768066406,0.2247007369995117
0.3205644607543945,0.2185615539550781
0.3205644607543945,0.2185615539550781
0.3223073959350586,0.2318487167358398
0.3223073959350586,0.2318487167358398
0.3123979568481445,0.2169061660766602
0.3123979568481445,0.2169061660766602
0.3282955169677734,0.2300977706909180
0.3282955169677734,0.2300977706909180
0.3132333755493164,0.2282369613647461
0.3132333755493164,0.2282369613647461
0.3233184814453125,0.2233766555786133
0.3233184814453125,0.2233766555786133
0.3260925292968750,0.2370855331420898
0.3260925292968750,0.2370855331420898
0.3165218353271484,0.2218448638916015
0.3165218353271484,0.2218448638916015
0.3316331863403320,0.2344024658203125
0.3316331863403320,0.2344024658203125
0.3166339874267578,0.2333106994628906
0.3166339874267578,0.2333106994628906
0.3270984649658203,0.2283674240112304
0.3270984649658203,0.2283674240112304
0.3304029464721679,0.2423435211181640
0.3304029464721679,0.2423435211181640
0.3204151153564453,0.2272928237915039
0.3204151153564453,0.2272928237915039
0.3361307144165039,0.2408815383911133
0.3361307144165039,0.2408815383911133
0.3215858459472656,0.2396638870239258
0.3215858459472656,0.2396638870239258
0.3325304031372070,0.2351085662841797
0.3325304031372070,0.2351085662841797
0.3354148864746094,0.2496711730957031
0.3354148864746094,0.2496711730957031
0.3264066696166992,0.2355897903442383
0.3264066696166992,0.2355897903442383
0.3424186706542969,0.2495269775390625
0.3424186706542969,0.2495269775390625
0.3285581588745117,0.2489765167236328
0.3285581588745117,0.2489765167236328
0.3387657165527344,0.2439931869506836
0.3387657165527344,0.2439931869506836
0.3414293289184570,0.2579246520996094
0.3414293289184570,0.2579246520996094
0.3312692642211914,0.2418176651000976
0.3312692642211914,0.2418176651000976
0.3456933975219726,0.2526563644409179
0.3456933975219726,0.2526563644409179
0.3279516220092774,0.2469903945922851
0.3279516220092774,0.2469903945922851
0.3342378616333008,0.2367633819580078
0.3342378616333008,0.2367633819580078
0.3326723098754883,0.2447130203247070
0.3326723098754883,0.2447130203247070
0.3187431335449218,0.2237646102905273
0.3187431335449218,0.2237646102905273
0.3298112869262695,0.2312175750732422
0.3298112869262695,0.2312175750732422
0.3117284774780273,0.2258588790893555
0.3117284774780273,0.2258588790893555
0.3194927215576172,0.2176076889038086
0.3194927215576172,0.2176076889038086
0.3206056594848632,0.2291410446166992
0.3206056594848632,0.2291410446166992
0.3089710235595703,0.2118450164794922
0.3089710235595703,0.2118450164794922
0.3232744216918945,0.2233617782592773
0.3232744216918945,0.2233617782592773
0.3071794509887695,0.2204172134399414
0.3071794509887695,0.2204172134399414
0.3168766021728516,0.2139455795288086
0.3168766021728516,0.2139455795288086
0.3186527252197265,0.2267766952514648
0.3137517929077148,0.2110679626464844
0.3234048843383789,0.2233165740966797
0.3234048843383789,0.2233165740966797
0.3082712173461914,0.2212635040283203
0.3082712173461914,0.2212635040283203
0.3179523468017578,0.2153549194335938
0.3179523468017578,0.2153549194335938
0.3206256866455078,0.2292640686035156
0.3206256866455078,0.2292640686035156
0.3107048034667969,0.2139890670776367
0.3107048034667969,0.2139890670776367
0.3267053604125976,0.2268253326416015
0.3267053604125976,0.2268253326416015
0.3115053176879883,0.2251934051513672
0.3115053176879883,0.2251934051513672
0.3219566345214844,0.2204504013061523
0.3219566345214844,0.2204504013061523
0.3251237869262695,0.2346073150634765
0.3251237869262695,0.2346073150634765
0.3160028457641602,0.2199748992919922
0.3160028457641602,0.2199748992919922
0.3315959930419922,0.2329736709594726
0.3315959930419922,0.2329736709594726
0.3168811798095703,0.2322967529296875
0.3168811798095703,0.2322967529296875
0.3275098800659180,0.2276475906372070
0.3275098800659180,0.2276475906372070
0.3311399459838867,0.2420734405517578
0.3311399459838867,0.2420734405517578
0.3213901519775391,0.2271360397338867
0.3213901519775391,0.2271360397338867
0.3369930267333984,0.2406389236450195
0.3369930267333984,0.2406389236450195
0.3221054077148438,0.2391225814819336
0.3221054077148438,0.2391225814819336
0.3324525833129883,0.2336688995361328
0.3324525833129883,0.2336688995361328
0.3346292495727539,0.2468627929687500
0.3346292495727539,0.2468627929687500
0.3245561599731445,0.2314722061157226
0.3245561599731445,0.2314722061157226
0.3393796920776367,0.2436183929443359
0.3393796920776367,0.2436183929443359
0.3240926742553711,0.2411556243896484
0.3240926742553711,0.2411556243896484
0.3332674026489258,0.2351234436035156
0.3332674026489258,0.2351234436035156
0.3355728149414062,0.2484226226806641
0.3355728149414062,0.2484226226806641
0.3252805709838867,0.2326492309570312
0.3252805709838867,0.2326492309570312
0.3404251098632812,0.2445384979248047
0.3404251098632812,0.2445384979248047
0.3245681762695312,0.2422525405883789
0.3245681762695312,0.2422525405883789
0.3342515945434570,0.2366901397705078
0.3342515945434570,0.2366901397705078
0.3366050720214844,0.2500282287597656
0.3366050720214844,0.2500282287597656
0.3271923065185547,0.2349620819091797
0.3321184158325195,0.2349620819091797
0.3419500350952148,0.2471242904663086
0.3419500350952148,0.2471242904663086
0.3269508361816406,0.2456439971923828
0.3269508361816406,0.2456439971923828
0.3369907379150390,0.2404752731323242
0.3369907379150390,0.2404752731323242
0.3423906326293945,0.2447261810302734
0.3423906326293945,0.2447261810302734
0.3423906326293945,0.2458488464355469
0.3352718353271484,0.2537252426147461
0.3465019226074219,0.2537252426147461
0.3346824645996094,0.2414314270019531
0.3346824645996094,0.2414314270019531
0.3447950363159180,0.2553314208984375
0.3447950363159180,0.2553314208984375
0.3299995422363281,0.2441940307617188
0.3299995422363281,0.2441940307617188
0.3435104370117187,0.2466482162475586
0.3435104370117187,0.2466482162475586
0.3339672088623047,0.2514804840087890
0.3339672088623047,0.2514804840087890
0.3309539794921875,0.2358095169067383
0.3309539794921875,0.2358095169067383
0.3384693145751953,0.2455169677734375
0.3384693145751953,0.2455169677734375
0.3198806762695313,0.2299804687500000
0.3198806762695313,0.2299804687500000
0.3311216354370117,0.2301841735839844
0.3311216354370117,0.2301841735839844
0.3207561492919922,0.2340511322021484
0.3207561492919922,0.2340511322021484
0.3181228637695312,0.2189077377319336
0.3181228637695312,0.2189077377319336
0.3269336700439453,0.2310979843139648
0.3269336700439453,0.2310979843139648
0.3110063552856445,0.2186679840087891
0.3110063552856445,0.2186679840087891
0.3241790771484375,0.2210718154907227
0.3241790771484375,0.2210718154907227
0.3155548095703125,0.2269048690795898
0.3263757705688476,0.2269048690795898
0.3141082763671875,0.2134775161743164
0.3141082763671875,0.2134775161743164
0.3238048553466797,0.2268568038940429
0.3238048553466797,0.2268568038940429
0.3087581634521484,0.2153995513916016
0.3087581634521484,0.2153995513916016
0.3227725982666015,0.2190370559692383
0.3227725982666015,0.2190370559692383
0.3148349761962890,0.2255916595458984
0.3148349761962890,0.2255916595458984
0.3141391754150391,0.2132646560668945
0.3141391754150391,0.2132646560668945
0.3245166778564453,0.2274003982543945
0.3245166778564453,0.2274003982543945
0.3101062774658203,0.2167310714721680
0.3101062774658203,0.2167310714721680
0.3245321273803711,0.2209098815917969
0.3245321273803711,0.2209098815917969
0.3170717239379883,0.2283685684204101
0.3170717239379883,0.2283685684204101
0.3168188095092773,0.2165205001831055
0.3168188095092773,0.2165205001831055
0.3277181625366211,0.2314321517944336
0.3277181625366211,0.2314321517944336
0.3136922836303711,0.2213161468505859
0.3136922836303711,0.2213161468505859
0.3285964965820312,0.2262634277343750
0.3285964965820312,0.2262634277343750
0.3216213226318359,0.2342245101928711
0.3216213226318359,0.2342245101928711
0.3218175888061524,0.2230585098266601
0.3218175888061524,0.2230585098266601
0.3330934524536133,0.2383844375610351
0.3330934524536133,0.2383844375610351
0.3195058822631836,0.2286546707153320
0.3195058822631836,0.2286546707153320
0.3342905044555664,0.2334812164306641
0.3342905044555664,0.2334812164306641
0.3272317886352539,0.2414159774780273
0.3272317886352539,0.2414159774780273
0.3272935867309570,0.2298511505126953
0.3272935867309570,0.2298511505126953
0.3381597518920899,0.2448720932006836
0.3381597518920899,0.2448720932006836
0.3238552093505859,0.2344648361206055
0.3238552093505859,0.2344648361206055
0.3384698867797851,0.2389698028564453
0.3384698867797851,0.2389698028564453
0.3307382583618164,0.2462482452392578
0.3307382583618164,0.2462482452392578
0.3303028106689453,0.2344545364379883
0.3303028106689453,0.2344545364379883
0.3408765792846680,0.2485771179199219
0.3408765792846680,0.2485771179199219
0.3264816284179687,0.2380090713500976
0.3264816284179687,0.2380090713500976
0.3405744552612305,0.2418102264404297
0.3405744552612305,0.2418102264404297
0.3325223922729492,0.2484346389770508
0.3325223922729492,0.2484346389770508
0.3314260482788086,0.2354026794433594
0.3314260482788086,0.2354026794433594
0.3406305313110352,0.2482521057128906
0.3406305313110352,0.2482521057128906
0.3251621246337891,0.2360710144042969
0.3251621246337891,0.2360710144042969
0.3380264282226562,0.2389423370361328
0.3380264282226562,0.2389423370361328
0.3293609619140625,0.2446151733398437
0.3293609619140625,0.2446151733398437
0.3283229827880859,0.2316810607910156
0.3283229827880859,0.2316810607910156
0.3380619049072265,0.2451158523559570
0.3380619049072265,0.2451158523559570
0.3231760025024414,0.2339366912841797
0.3231760025024414,0.2339366912841797
0.3371068954467774,0.2375398635864258
0.3371068954467774,0.2375398635864258
0.3288705825805664,0.2442598342895508
0.3288705825805664,0.2442598342895508
0.3280872344970703,0.2315162658691406
0.3280872344970703,0.2315162658691406
0.3376390457153320,0.2448343276977539
0.3376390457153320,0.2448343276977539
0.3218347549438477,0.2326114654541016
0.3218347549438477,0.2326114654541016
0.3350578308105469,0.2353626251220703
0.3350578308105469,0.2353626251220703
0.3257383346557617,0.2401250839233398
0.3257383346557617,0.2401250839233398
0.3231101989746094,0.2251190185546875
0.3231101989746094,0.2251190185546875
0.3315010070800781,0.2367330551147461
0.3315010070800781,0.2367330551147461
0.3147909164428711,0.2231821060180664
0.3147909164428711,0.2231821060180664
0.3273056030273437,0.2246086120605469
0.3273056030273437,0.2246086120605469
0.3176393508911133,0.2293121337890625
0.3176393508911133,0.2293121337890625
0.3153551101684570,0.2146545410156250
0.3153551101684570,0.2146545410156250
0.3243650436401367,0.2271011352539062
0.3175632476806641,0.2271011352539062
0.3082311630249023,0.2144617080688477
0.3082311630249023,0.2144617080688477
0.3217203140258789,0.2173473358154297
0.3217203140258789,0.2173473358154297
0.3130702972412109,0.2233474731445312
0.3130702972412109,0.2233474731445312
0.3117771148681641,0.2101020812988281
0.3117771148681641,0.2101020812988281
0.3216905593872070,0.2238338470458984
0.3216905593872070,0.2238338470458984
0.3067245483398438,0.2125219345092773
0.3067245483398438,0.2125219345092773
0.3208854675292969,0.2161611557006836
0.3208854675292969,0.2161611557006836
0.3130376815795898,0.2231843948364258
0.3130376815795898,0.2231843948364258
0.3120128631591797,0.2105003356933594
0.3120128631591797,0.2105003356933594
0.3226564407348633,0.2248334884643555
0.3226564407348633,0.2248334884643555
0.3078420639038086,0.2140188217163086
0.3078420639038086,0.2140188217163086
0.3222061157226562,0.2178691864013672
0.3222061157226562,0.2178691864013672
0.3145671844482422,0.2253181457519531
0.3145671844482422,0.2253181457519531
0.3137620925903320,0.2129648208618164
0.3137620925903320,0.2129648208618164
0.3247209548950195,0.2276876449584961
0.3247209548950195,0.2276876449584961
0.3102647781372070,0.2173484802246094
0.3102647781372070,0.2173484802246094
0.3249120712280273,0.2216165542602539
0.3249120712280273,0.2216165542602539
0.3175598144531250,0.2295370101928711
0.3175598144531250,0.2295370101928711
0.3169166564941406,0.2173204421997070
0.3169166564941406,0.2173204421997070
0.3281484603881836,0.2322446823120117
0.3281484603881836,0.2322446823120117
0.3134204864501953,0.2217138290405273
0.3134204864501953,0.2217138290405273
0.3281021118164062,0.2259109497070312
0.3281021118164062,0.2259109497070312
0.3206439971923828,0.2336820602416992
0.3206439971923828,0.2336820602416992
0.3199338912963867,0.2213533401489258
0.3199338912963867,0.2213533401489258
0.3309654235839843,0.2361293792724609
0.3309654235839843,0.2361293792724609
0.3162311553955078,0.2254503250122070
0.3162311553955078,0.2254503250122070
0.3307085037231445,0.2293567657470703
0.3307085037231445,0.2293567657470703
0.3229608535766602,0.2369544982910156
0.3229608535766602,0.2369544982910156
0.3221775054931640,0.2243659973144531
0.3221775054931640,0.2243659973144531
0.3331787109375000,0.2391443252563477
0.3331787109375000,0.2391443252563477
0.3183345794677734,0.2282604217529297
0.3183345794677734,0.2282604217529297
0.3329961776733398,0.2323711395263672
0.3329961776733398,0.2323711395263672
0.3251964569091797,0.2399763107299805
0.3251964569091797,0.2399763107299805
0.3249172210693359,0.2279331207275390
0.3249172210693359,0.2279331207275390
0.3359104156494140,0.2427715301513672
0.3359104156494140,0.2427715301513672
0.3214656829833984,0.2322006225585938
0.3214656829833984,0.2322006225585938
0.3362754821777343,0.2365848541259765
0.3362754821777343,0.2365848541259765
0.3288225173950195,0.2443508148193359
0.3288225173950195,0.2443508148193359
0.3283756256103516,0.2323253631591797
0.3283756256103516,0.2323253631591797
0.3394311904907226,0.2472164154052734
0.3394311904907226,0.2472164154052734
0.3249938964843750,0.2367713928222656
0.3249938964843750,0.2367713928222656
0.3398323059082031,0.2414669036865234
0.3398323059082031,0.2414669036865234
0.3326093673706055,0.2493976593017578
0.3326093673706055,0.2493976593017578
0.3325349807739258,0.2376131057739258
0.3325349807739258,0.2376131057739258
0.3435979843139648,0.2528274536132812
0.3435979843139648,0.2528274536132812
0.3293678283691406,0.2424053192138672
0.3293678283691406,0.2424053192138672
0.3437828063964843,0.2462121963500976
0.3437828063964843,0.2462121963500976
0.3356220245361328,0.2528348922729492
0.3356220245361328,0.2528348922729492
0.3340169906616211,0.2390350341796875
0.3340169906616211,0.2390350341796875
0.3429977416992188,0.2511806488037109
0.3429977416992188,0.2511806488037109
0.3262464523315430,0.2372125625610352
0.3262464523315430,0.2372125625610352
0.3380710601806641,0.2377744674682617
0.3380710601806641,0.2377744674682617
0.3275424957275391,0.2416568756103515
0.3275424957275391,0.2416568756103515
0.3246488571166992,0.2263475418090820
0.3246488571166992,0.2263475418090820
0.3331106185913086,0.2380920410156250
0.3331106185913086,0.2380920410156250
0.3168783187866211,0.2249341964721680
0.3168783187866211,0.2249341964721680
0.3297477722167969,0.2268035888671875
0.3297477722167969,0.2268035888671875
0.3202806472778320,0.2321342468261719
0.3202806472778320,0.2321342468261719
0.3185434341430664,0.2181249618530273
0.3185434341430664,0.2181249618530273
0.3277925491333007,0.2309560775756836
0.3277925491333007,0.2309560775756836
0.3121473312377930,0.2187149047851562
0.3121473312377930,0.2187149047851562
0.3258224487304687,0.2218826293945312
0.3258224487304687,0.2218826293945312
0.3172468185424804,0.2281059265136719
0.3172468185424804,0.2281059265136719
0.3162357330322266,0.2150064468383789
0.3162357330322266,0.2150064468383789
0.3262584686279297,0.2286735534667969
0.3262584686279297,0.2286735534667969
0.3109228134155274,0.2169404983520508
0.3109228134155274,0.2169404983520508
0.3251392364501953,0.2207073211669922
0.3251392364501953,0.2207073211669922
0.3169864654541015,0.2277757644653320
0.3169864654541015,0.2277757644653320
0.3166019439697266,0.2155534744262695
0.3166019439697266,0.2155534744262695
0.3272272109985351,0.2302625656127930
0.3272272109985351,0.2302625656127930
0.3127618789672851,0.2191177368164063
0.3127618789672851,0.2191177368164063
0.3274600982666016,0.2236358642578125
0.3274600982666016,0.2236358642578125
0.3196672439575195,0.2311265945434570
0.3196672439575195,0.2311265945434570
0.3196706771850586,0.2193780899047852
0.3196706771850586,0.2193780899047852
0.3305654525756836,0.2345260620117187
0.3305654525756836,0.2345260620117187
0.3165143966674804,0.2240524291992188
0.3165143966674804,0.2240524291992188
0.3312057495117187,0.2288171768188476
0.3312057495117187,0.2288171768188476
0.3237682342529297,0.2363777160644531
0.3237682342529297,0.2363777160644531
0.3237321853637695,0.2245691299438476
0.3237321853637695,0.2245691299438476
0.3344753265380859,0.2395236968994141
0.3344753265380859,0.2395236968994141
0.3202074050903320,0.2284772872924805
0.3202074050903320,0.2284772872924805
0.3222639083862305,0.2262605667114258
0.3273822784423828,0.2262605667114258
0.3375606536865234,0.2386693954467773
0.3375606536865234,0.2386693954467773
0.3219480514526367,0.2363828659057617
0.3219480514526367,0.2363828659057617
0.3319147109985351,0.2311437606811523
0.3319147109985351,0.2311437606811523
0.3341199874877930,0.2446289062500000
0.3341199874877930,0.2446289062500000
0.3248399734497070,0.2291707992553711
0.3248399734497070,0.2291707992553711
0.3394094467163086,0.2414194107055664
0.3394094467163086,0.2414194107055664
0.3242025375366211,0.2394641876220703
0.3242025375366211,0.2394641876220703
0.3344123840332031,0.2342851638793945
0.3344123840332031,0.2342851638793945
0.3368888854980469,0.2478424072265625
0.3368888854980469,0.2478424072265625
0.3270795822143555,0.2323270797729492
0.3270795822143555,0.2323270797729492
0.3421194076538086,0.2452783584594727
0.3421194076538086,0.2452783584594727
0.3271728515625000,0.2433391571044922
0.3271728515625000,0.2433391571044922
0.3377569198608398,0.2385068893432617
0.3377569198608398,0.2385068893432617
0.3397373199462890,0.2519056320190430
0.3397373199462890,0.2519056320190430
0.3304235458374024,0.2371736526489258
0.3304235458374024,0.2371736526489258
0.3455514907836914,0.2500368118286133
0.3455514907836914,0.2500368118286133
0.3310953140258789,0.2482183456420898
0.3310953140258789,0.2482183456420898
0.3411455154418945,0.2433723449707031
0.3411455154418945,0.2433723449707031
0.3435132980346680,0.2574491500854492
0.3435132980346680,0.2574491500854492
0.3343099594116211,0.2423887252807617
0.3343099594116211,0.2423887252807617
0.3491884231567383,0.2543128967285156
0.3365306854248047,0.2543128967285156
0.3328210830688477,0.2500900268554687
0.3328210830688477,0.2500900268554687
0.3403387069702148,0.2412969589233398
0.3403387069702148,0.2412969589233398
0.3371812820434570,0.2470132827758789
0.3371812820434570,0.2470132827758789
0.3220190048217773,0.2237903594970703
0.3220190048217773,0.2237903594970703
0.3312091827392578,0.2296440124511719
0.3312091827392578,0.2296440124511719
0.3126806259155273,0.2230791091918945
0.3126806259155273,0.2230791091918945
0.3199373245239258,0.2145235061645508
0.3199373245239258,0.2145235061645508
0.3201278686523437,0.2248392105102539
0.3201278686523437,0.2248392105102539
0.3088474273681641,0.2072273254394531
0.3088474273681641,0.2072273254394531
0.3219137191772461,0.2180391311645508
0.3219137191772461,0.2180391311645508
0.3057363510131836,0.2139198303222656
0.3057363510131836,0.2139198303222656
0.3152681350708008,0.2077875137329102
0.3152681350708008,0.2077875137329102
0.3157911300659180,0.2193832397460938
0.3157911300659180,0.2193832397460938
0.3059200286865234,0.2036293029785156
0.3059200286865234,0.2036293029785156
0.3200906753540039,0.2153715133666992
0.3200906753540039,0.2153715133666992
0.3049415588378906,0.2122913360595703
0.3049415588378906,0.2122913360595703
0.3143754959106445,0.2067987442016601
0.3143754959106445,0.2067987442016601
0.3160200119018555,0.2198324203491211
0.3160200119018555,0.2198324203491211
0.3066398620605469,0.2044612884521484
0.3066398620605469,0.2044612884521484
0.3215755462646484,0.2170011520385742
0.3215755462646484,0.2170011520385742
0.3060934066772461,0.2144210815429687
0.3060934066772461,0.2144210815429687
0.3165143966674804,0.2102348327636719
0.3165143966674804,0.2102348327636719
0.3185720443725586,0.2237611770629883
0.3185720443725586,0.2237611770629883
0.3100959777832031,0.2092008590698242
0.3100959777832031,0.2092008590698242
0.3249990463256836,0.2220142364501953
0.3249990463256836,0.2220142364501953
0.3103918075561523,0.2205917358398437
0.3103918075561523,0.2205917358398437
0.3212739944458008,0.2170017242431641
0.3212739944458008,0.2170017242431641
0.3243095397949219,0.2313463211059570
0.3243095397949219,0.2313463211059570
0.3156538009643555,0.2169479370117187
0.3156538009643555,0.2169479370117187
0.3309946060180664,0.2310647964477539
0.3309946060180664,0.2310647964477539
0.3170528411865234,0.2298757553100586
0.3170528411865234,0.2298757553100586
0.3285867691040039,0.2261930465698242
0.3285867691040039,0.2261930465698242
0.3306449890136718,0.2402132034301758
0.3306449890136718,0.2402132034301758
0.3221689224243164,0.2261878967285156
0.3221689224243164,0.2261878967285156
0.3373363494873047,0.2395471572875977
0.3373363494873047,0.2395471572875977
0.3231702804565429,0.2375135421752930
0.3231702804565429,0.2375135421752930
0.3333017349243164,0.2328935623168945
0.3333017349243164,0.2328935623168945
0.3353210449218750,0.2466361999511719
0.3353210449218750,0.2466361999511719
0.3263666152954102,0.2316810607910156
0.3263666152954102,0.2316810607910156
0.3414121627807617,0.2442781448364258
0.3414121627807617,0.2442781448364258
0.3258722305297851,0.2413101196289062
0.3258722305297851,0.2413101196289062
0.3358509063720703,0.2365545272827148
0.3358509063720703,0.2365545272827148
0.3375411987304687,0.2486738204956055
0.3375411987304687,0.2486738204956055
0.3282062530517578,0.2334091186523437
0.3282062530517578,0.2334091186523437
0.3422052383422852,0.2453779220581055
0.3422052383422852,0.2453779220581055
0.3268135070800781,0.2428504943847656
0.3268135070800781,0.2428504943847656
0.3368476867675781,0.2378946304321289
0.3368476867675781,0.2378946304321289
0.3389076232910156,0.2510387420654297
0.3389076232910156,0.2510387420654297
0.3294925689697266,0.2353574752807617
0.3294925689697266,0.2353574752807617
0.3440574645996093,0.2483699798583984
0.3322837829589844,0.2483699798583984
0.3290485382080078,0.2460302352905273
0.3290485382080078,0.2460302352905273
0.3398511886596680,0.2415596008300781
0.3398511886596680,0.2415596008300781
0.3415380477905273,0.2547454833984375
0.3415380477905273,0.2547454833984375
0.3323799133300781,0.2396970748901367
0.3323799133300781,0.2396970748901367
0.3470483779907226,0.2522930145263672
0.3470483779907226,0.2522930145263672
0.3318964004516601,0.2489656448364258
0.3318964004516601,0.2489656448364258
0.3407884597778320,0.2423589706420898
0.3407884597778320,0.2423589706420898
0.3407117843627930,0.2531450271606445
0.3407117843627930,0.2531450271606445
0.3292259216308593,0.2341632843017578
0.3292259216308593,0.2341632843017578
0.3410808563232422,0.2427423477172851
0.3410808563232422,0.2427423477172851
0.3221872329711914,0.2356407165527344
0.3221872329711914,0.2356407165527344
0.3295955657958984,0.2271011352539062
0.3295955657958984,0.2271011352539062
0.3289421081542969,0.2372983932495117
0.3289421081542969,0.2372983932495117
0.3182498931884766,0.2194690704345703
0.3182498931884766,0.2194690704345703
0.3308189392089844,0.2297733306884766
0.3308189392089844,0.2297733306884766
0.3143148422241211,0.2256048202514648
0.3143148422241211,0.2256048202514648
0.3236063003540039,0.2193546295166016
0.3236063003540039,0.2193546295166016
0.3249109268188476,0.2313674926757812
0.3249109268188476,0.2313674926757812
0.3147886276245117,0.2149160385131836
0.3147886276245117,0.2149160385131836
0.3286703109741211,0.2269821166992188
0.3286703109741211,0.2269821166992188
0.3128431320190430,0.2234733581542969
0.3128431320190430,0.2234733581542969
0.3232057571411133,0.2183252334594727
0.3232057571411133,0.2183252334594727
0.3241298675537109,0.2307031631469726
0.3241298675537109,0.2307031631469726
0.3150815963745117,0.2153383255004883
0.3150815963745117,0.2153383255004883
0.3294050216674805,0.2277454376220703
0.3294050216674805,0.2277454376220703
0.3143257141113281,0.2249198913574219
0.3143257141113281,0.2249198913574219
0.3243049621582031,0.2199783325195312
0.3243049621582031,0.2199783325195312
0.3259706497192383,0.2331602096557617
0.3259706497192383,0.2331602096557617
0.3170625686645508,0.2179613113403320
0.3170625686645508,0.2179613113403320
0.3320789337158203,0.2310499191284180
0.3320789337158203,0.2310499191284180
0.3167032241821289,0.2286764144897461
0.3167032241821289,0.2286764144897461
0.3276437759399414,0.2248592376708984
0.3276437759399414,0.2248592376708984
0.3297288894653320,0.2386230468750000
0.3297288894653320,0.2386230468750000
0.3215961456298828,0.2238138198852539
0.3215961456298828,0.2238138198852539
0.3363212585449218,0.2371908187866211
0.3363212585449218,0.2371908187866211
0.3214513778686524,0.2353488922119140
0.3214513778686524,0.2353488922119140
0.3324279785156250,0.2314161300659180
0.3324279785156250,0.2314161300659180
0.3351224899291992,0.2455226898193359
0.3351224899291992,0.2455226898193359
0.3266149520874023,0.2308513641357422
0.3266149520874023,0.2308513641357422
0.3418750762939453,0.2444011688232422
0.3418750762939453,0.2444011688232422
0.3265394210815429,0.2417278289794922
0.3265394210815429,0.2417278289794922
0.3373643875122070,0.2372051239013672
0.3373643875122070,0.2372051239013672
0.3386959075927734,0.2503143310546875
0.3386959075927734,0.2503143310546875
0.3297901153564453,0.2353940963745117
0.3297901153564453,0.2353940963745117
0.3448551177978516,0.2488443374633789
0.3448551177978516,0.2488443374633789
0.3297632217407226,0.2465280532836914
0.3297632217407226,0.2465280532836914
0.3399845123291015,0.2411321640014648
0.3399845123291015,0.2411321640014648
0.3414213180541992,0.2544095993041992
0.3414213180541992,0.2544095993041992
0.3326442718505859,0.2390453338623047
0.3326442718505859,0.2390453338623047
0.3473659515380859,0.2517808914184570
0.3473659515380859,0.2517808914184570
0.3315502166748047,0.2484638214111328
0.3315502166748047,0.2484638214111328
0.3418601989746093,0.2439331054687500
0.3303428649902344,0.2439331054687500
0.3431390762329101,0.2565176010131836
0.3431390762329101,0.2565176010131836
0.3344112396240234,0.2409736633300781
0.3344112396240234,0.2409736633300781
0.3482425689697266,0.2532691955566406
0.3482425689697266,0.2532691955566406
0.3328565597534179,0.2503749847412109
0.3328565597534179,0.2503749847412109
0.3432014465332031,0.2456623077392578
0.3432014465332031,0.2456623077392578
0.3450965881347656,0.2586061477661133
0.3450965881347656,0.2586061477661133
0.3358165740966797,0.2431617736816406
0.3358165740966797,0.2431617736816406
0.3502899169921875,0.2562051773071289
0.3502899169921875,0.2562051773071289
0.3350212097167969,0.2527078628540039
0.3350212097167969,0.2527078628540039
0.3450531005859375,0.2473445892333984
0.3450531005859375,0.2473445892333984
0.3448671340942382,0.2579738616943359
0.3448671340942382,0.2579738616943359
0.3337772369384766,0.2397937774658203
0.3337772369384766,0.2397937774658203
0.3454319000244140,0.2486154556274414
0.3454319000244140,0.2486154556274414
0.3271717071533203,0.2413684844970703
0.3271717071533203,0.2413684844970703
0.3340410232543945,0.2323259353637695
0.3340410232543945,0.2323259353637695
0.3326173782348633,0.2416677474975586
0.3326173782348633,0.2416677474975586
0.3214633941650391,0.2231946945190430
0.3214633941650391,0.2231946945190430
0.3343282699584961,0.2336277008056641
0.3343282699584961,0.2336277008056641
0.3172948837280273,0.2285522460937500
0.3172948837280273,0.2285522460937500
0.3265623092651367,0.2227483749389648
0.3265623092651367,0.2227483749389648
0.3270463943481445,0.2342107772827148
0.3270463943481445,0.2342107772827148
0.3178339004516602,0.2177415847778320
0.3178339004516602,0.2177415847778320
0.3312223434448242,0.2294340133666992
0.3312223434448242,0.2294340133666992
0.3155691146850586,0.2256734848022461
0.3155691146850586,0.2256734848022461
0.3253967285156250,0.2207330703735352
0.3253967285156250,0.2207330703735352
0.3299125671386718,0.2249050140380859
0.3157762527465820,0.2249050140380859
0.3331975936889648,0.2308170318603515
0.3317150115966797,0.2308170318603515
0.3216110229492187,0.2191698074340820
0.3216110229492187,0.2191698074340820
