REDsignal,IRsignal
0.5415464401245117,0.5115686416625976
0.5533109664916992,0.5304553985595702
0.5533109664916992,0.5304553985595702
0.5374111175537110,0.5118907928466797
0.5374111175537110,0.5118907928466797
0.5499189376831054,0.5105037689208984
0.5499189376831054,0.5105037689208984
0.5266656875610352,0.5048137664794922
0.5266656875610352,0.5048137664794922
0.5237726211547852,0.4785707473754883
0.5237726211547852,0.4785707473754883
0.5339046478271484,0.4902534484863281
0.5339046478271484,0.4902534484863281
0.5081279754638671,0.4661813735961914
0.5081279754638671,0.4661813735961914
0.5258514404296875,0.4735256195068359
0.5258514404296875,0.4735256195068359
0.5084358215332031,0.4777141571044922
0.5084358215332031,0.4777141571044922
0.5171607971191406,0.4639686584472656
0.5171607971191406,0.4639686584472656
0.5250904083251953,0.4807634353637695
0.5250904083251953,0.4807634353637695
0.5065681457519531,0.4658220291137695
0.5065681457519531,0.4658220291137695
0.5267492294311523,0.4757909774780273
0.5267492294311523,0.4757909774780273
0.5150991439819336,0.4830368041992187
0.5150991439819336,0.4830368041992187
0.5172380447387696,0.4682064056396484
0.5172380447387696,0.4682064056396484
0.5298185348510742,0.4905361175537109
0.5298185348510742,0.4905361175537109
0.5122112274169922,0.4757022857666016
0.5122112274169922,0.4757022857666016
0.5376422882080077,0.4879491806030273
0.5376422882080077,0.4879491806030273
0.5186061859130859,0.4934492111206055
0.5186061859130859,0.4934492111206055
0.5253444671630859,0.4833623886108398
0.5253444671630859,0.4833623886108398
0.5377252578735351,0.5045488357543945
0.5377252578735351,0.5045488357543945
0.5243711471557617,0.4892829895019531
0.5243711471557617,0.4892829895019531
0.5403568267822265,0.4964447021484375
0.5403568267822265,0.4964447021484375
0.5238338470458984,0.5031835556030273
0.5238338470458984,0.5031835556030273
0.5290208816528320,0.4885860443115234
0.5290208816528320,0.4885860443115234
0.5442420959472656,0.5073411941528320
0.5442420959472656,0.5073411941528320
0.5210048675537109,0.4864809036254882
0.5210048675537109,0.4864809036254882
0.5397422790527343,0.4956825256347656
0.5397422790527343,0.4956825256347656
0.5225040435791015,0.4996976852416992
0.5225040435791015,0.4996976852416992
0.5317090988159180,0.4851270675659179
0.5317090988159180,0.4851270675659179
0.5375535964965820,0.4997022628784180
0.5375535964965820,0.4997022628784180
0.5189603805541992,0.4845085144042969
0.5262090682983398,0.4845085144042969
0.5371187210083007,0.4920404434204101
0.5371187210083007,0.4920404434204101
0.5254938125610351,0.4977218627929687
0.5254938125610351,0.4977218627929687
0.5258216857910156,0.4811302185058594
0.5258216857910156,0.4811302185058594
0.5363302230834961,0.5006830215454101
0.5363302230834961,0.5006830215454101
0.5184665679931640,0.4849422454833984
0.5184665679931640,0.4849422454833984
0.5412014007568359,0.4931528091430664
0.5412014007568359,0.4931528091430664
0.5215015411376953,0.4958879470825195
0.5215015411376953,0.4958879470825195
0.5262485504150390,0.4843225479125977
0.5262485504150390,0.4843225479125977
0.5370071411132812,0.5025089263916015
0.5370071411132812,0.5025089263916015
0.5242641448974609,0.4881088256835937
0.5242641448974609,0.4881088256835937
0.5386808395385742,0.4937936782836914
0.5386808395385742,0.4937936782836914
0.5237703323364258,0.5015676498413085
0.5237703323364258,0.5015676498413085
0.5287782669067382,0.4888875961303711
0.5287782669067382,0.4888875961303711
0.5443943023681640,0.5078619003295898
0.5443943023681640,0.5078619003295898
0.5231054306030273,0.4903930664062500
0.5231054306030273,0.4903930664062500
0.5417140960693360,0.5002939224243164
0.5417140960693360,0.5002939224243164
0.5265432357788086,0.5053693771362304
0.5265432357788086,0.5053693771362304
0.5349964141845703,0.4896125793457031
0.5349964141845703,0.4896125793457031
0.5368680953979492,0.4964727401733398
0.5368680953979492,0.4964727401733398
0.5135427474975586,0.4730243682861328
0.5135427474975586,0.4730243682861328
0.5270032882690430,0.4734992980957031
0.5270032882690430,0.4734992980957031
0.5129802703857421,0.4739913940429688
0.5129802703857421,0.4739913940429688
0.5107973098754882,0.4539327621459961
0.5107973098754882,0.4539327621459961
0.5194931030273438,0.4716161727905273
0.5194931030273438,0.4716161727905273
0.5008947372436523,0.4542863845825195
0.5008947372436523,0.4542863845825195
0.5243053436279297,0.4625701904296875
0.5243053436279297,0.4625701904296875
0.5031784057617187,0.4647022247314453
0.5031784057617187,0.4647022247314453
0.5089668273925781,0.4537204742431640
0.5089668273925781,0.4537204742431640
0.5198524475097656,0.4730237960815429
0.5198524475097656,0.4730237960815429
0.5084272384643554,0.4584508895874023
0.5084272384643554,0.4584508895874023
0.5223604202270508,0.4646724700927734
0.5223604202270508,0.4646724700927734
0.5078424453735352,0.4734535217285156
0.5078424453735352,0.4734535217285156
0.5143650054931640,0.4621667861938477
0.5143650054931640,0.4621667861938477
0.5324518203735351,0.4836845397949219
0.5324518203735351,0.4836845397949219
0.5118553161621093,0.4678871154785156
0.5118553161621093,0.4678871154785156
0.5319391250610351,0.4802724838256835
0.5319391250610351,0.4802724838256835
0.5163299560546875,0.4867864608764648
0.5163299560546875,0.4867864608764648
0.5285676956176758,0.4753904342651367
0.5285676956176758,0.4753904342651367
0.5334938049316406,0.4917869567871094
0.5334938049316406,0.4917869567871094
0.5160301208496093,0.4786439895629883
0.5160301208496093,0.4786439895629883
0.5349466323852539,0.4873924255371094
0.5349466323852539,0.4873924255371094
0.5251230239868164,0.4932592391967773
0.5251230239868164,0.4932592391967773
0.5246091842651367,0.4757772445678711
0.5246091842651367,0.4757772445678711
0.5342153549194336,0.4960773468017578
0.5342153549194336,0.4960773468017578
0.5157646179199219,0.4791378021240234
0.5157646179199219,0.4791378021240234
0.5414703369140624,0.4879251480102539
0.5414703369140624,0.4879251480102539
0.5183750152587890,0.4891096115112304
0.5183750152587890,0.4891096115112304
0.5245141983032227,0.4772815704345703
0.5245141983032227,0.4772815704345703
0.5344751358032226,0.4961614608764648
0.5344751358032226,0.4961614608764648
0.5224090576171875,0.4794519424438476
0.5224090576171875,0.4794519424438476
0.5361963272094726,0.4853616714477539
0.5361963272094726,0.4853616714477539
0.5191709518432617,0.4935132980346679
0.5374002456665039,0.4935132980346679
0.5259412765502930,0.4794090270996094
0.5259412765502930,0.4794090270996094
0.5428756713867188,0.4999700546264648
0.5428756713867188,0.4999700546264648
0.5178920745849609,0.4786108016967773
0.5178920745849609,0.4786108016967773
0.5382677078247070,0.4907999038696289
0.5382677078247070,0.4907999038696289
0.5202678680419922,0.4957569122314453
0.5202678680419922,0.4957569122314453
0.5338846206665039,0.4825315475463867
0.5338846206665039,0.4825315475463867
0.5380771636962890,0.4993474960327148
0.5380771636962890,0.4993474960327148
0.5191320419311524,0.4838905334472656
0.5191320419311524,0.4838905334472656
0.5395219802856445,0.4943309783935547
0.5395219802856445,0.4943309783935547
0.5282426834106445,0.5004261016845702
0.5282426834106445,0.5004261016845702
0.5293350219726562,0.4832445144653320
0.5293350219726562,0.4832445144653320
0.5394796371459961,0.5056972503662109
0.5394796371459961,0.5056972503662109
0.5208206176757812,0.4878421783447265
0.5208206176757812,0.4878421783447265
0.5461858749389649,0.4956893920898438
0.5461858749389649,0.4956893920898438
0.5192230224609374,0.4894020080566406
0.5192230224609374,0.4894020080566406
0.5195966720581054,0.4671546936035156
0.5195966720581054,0.4671546936035156
0.5238641738891602,0.4785490036010742
0.5238641738891602,0.4785490036010742
0.5077486038208008,0.4558553695678711
0.5077486038208008,0.4558553695678711
0.5009056091308594,0.4446802139282227
0.5009056091308594,0.4446802139282227
0.5134191513061523,0.4635738372802734
0.5134191513061523,0.4635738372802734
0.4959817886352539,0.4532730102539062
0.4959817886352539,0.4532730102539062
0.5145629882812500,0.4514539718627930
0.5145629882812500,0.4514539718627930
0.5083419799804687,0.4663330078125000
0.5083419799804687,0.4663330078125000
0.4957855224609375,0.4451328277587890
0.4957855224609375,0.4451328277587890
0.5193054199218750,0.4648258209228515
0.5193054199218750,0.4648258209228515
0.4982917785644531,0.4564979553222656
0.4982917785644531,0.4564979553222656
0.5151700973510742,0.4550193786621093
0.5151700973510742,0.4550193786621093
0.5069967269897461,0.4724018096923828
0.5069967269897461,0.4724018096923828
0.5048652648925781,0.4513664245605469
0.5048652648925781,0.4513664245605469
0.5253822326660156,0.4724435806274414
0.5253822326660156,0.4724435806274414
0.5024934768676758,0.4642621994018554
0.5024934768676758,0.4642621994018554
0.5157073974609375,0.4648818969726562
0.5157073974609375,0.4648818969726562
0.5175481796264648,0.4808475494384765
0.5175481796264648,0.4808475494384765
0.5103973388671875,0.4597297668457031
0.5103973388671875,0.4597297668457031
0.5280670166015625,0.4787738800048828
0.5280670166015625,0.4787738800048828
0.5012832641601562,0.4703733444213867
0.5012832641601562,0.4703733444213867
0.5237365722656250,0.4684484481811523
0.5237365722656250,0.4684484481811523
0.5204469680786132,0.4830299377441406
0.5204469680786132,0.4830299377441406
0.5100872039794921,0.4598310470581055
0.5100872039794921,0.4598310470581055
0.5231609344482422,0.4794771194458007
0.5231609344482422,0.4794771194458007
0.5059513092041016,0.4685646057128906
0.5059513092041016,0.4685646057128906
0.5235631942749023,0.4672393798828125
0.5235631942749023,0.4672393798828125
0.5177021026611328,0.4812618255615234
0.5177021026611328,0.4812618255615234
0.5051021575927734,0.4601274490356445
0.5051021575927734,0.4601274490356445
0.5289447784423827,0.4802341461181641
0.5289447784423827,0.4802341461181641
0.5083808898925781,0.4702297210693359
0.5083808898925781,0.4702297210693359
0.5242990493774414,0.4697044372558594
0.5242990493774414,0.4697044372558594
0.5145040512084961,0.4856872558593750
0.5145040512084961,0.4856872558593750
0.5126770019531249,0.4633546829223633
0.5126770019531249,0.4633546829223633
0.5317211151123047,0.4843048095703125
0.5317211151123047,0.4843048095703125
0.5088855743408203,0.4731782913208007
0.5088855743408203,0.4731782913208007
0.5217172622680664,0.4742832183837891
0.5217172622680664,0.4742832183837891
0.5222740173339844,0.4895742416381836
0.5222740173339844,0.4895742416381836
0.5168123245239258,0.4674768447875977
0.5168123245239258,0.4674768447875977
0.5333227157592774,0.4883445739746093
0.5333227157592774,0.4883445739746093
0.5058139801025391,0.4784872055053710
0.5058139801025391,0.4784872055053710
0.5299203872680663,0.4784008026123047
0.5299203872680663,0.4784008026123047
0.5252866744995117,0.4944007873535156
0.5252866744995117,0.4944007873535156
0.5177112579345703,0.4713764190673828
0.5177112579345703,0.4713764190673828
0.5313709259033202,0.4942617416381836
0.5313709259033202,0.4942617416381836
0.5143301010131835,0.4823633193969726
0.5143301010131835,0.4823633193969726
0.5334285736083985,0.4799308776855469
0.5334285736083985,0.4799308776855469
0.5219146728515625,0.4879360198974609
0.5219146728515625,0.4879360198974609
0.5036893844604492,0.4554222106933594
0.5036893844604492,0.4554222106933594
0.5236885070800781,0.4695293426513671
0.5236885070800781,0.4695293426513671
0.4968086242675781,0.4518831253051758
0.4968086242675781,0.4518831253051758
0.5123765945434570,0.4470834732055664
0.5123765945434570,0.4470834732055664
0.4991420745849609,0.4616151809692383
0.4991420745849609,0.4616151809692383
0.4966833114624023,0.4361532211303711
0.4966833114624023,0.4361532211303711
0.5171607971191406,0.4575433731079102
0.5171607971191406,0.4575433731079102
0.4911689758300781,0.4444147109985351
0.4911689758300781,0.4444147109985351
0.5052612304687499,0.4452541351318359
0.5052612304687499,0.4452541351318359
0.5042781829833984,0.4609909057617188
0.5042781829833984,0.4609909057617188
0.4980709075927734,0.4377376556396484
0.4980709075927734,0.4377376556396484
0.5170606613159180,0.4598281860351562
0.5170606613159180,0.4598281860351562
0.4884149551391601,0.4491319656372070
0.4884149551391601,0.4491319656372070
0.5144290924072266,0.4506483078002930
0.5144290924072266,0.4506483078002930
0.5101678848266601,0.4677589416503906
0.5101678848266601,0.4677589416503906
0.5021764755249023,0.4452175140380859
0.5021764755249023,0.4452175140380859
0.5171739578247070,0.4694818496704101
0.5171739578247070,0.4694818496704101
0.4998075485229492,0.4573871612548828
0.4998075485229492,0.4573871612548828
0.5199708938598633,0.4593532562255859
0.5031915664672851,0.4593532562255859
0.5128875732421875,0.4748428344726562
0.5128875732421875,0.4748428344726562
0.5009542465209961,0.4526098251342773
0.5009542465209961,0.4526098251342773
0.5257696151733399,0.4746294021606445
0.5257696151733399,0.4746294021606445
0.5035846710205077,0.4613222122192382
0.5035846710205077,0.4613222122192382
0.5206449508666992,0.4615728378295898
0.5206449508666992,0.4615728378295898
0.5081571578979492,0.4771940231323242
0.5081571578979492,0.4771940231323242
0.5062259674072266,0.4526601791381836
0.5062259674072266,0.4526601791381836
0.5254034042358399,0.4746786117553711
0.5254034042358399,0.4746786117553711
0.5005943298339843,0.4601726531982422
0.5005943298339843,0.4601726531982422
0.5146001815795899,0.4629129409790039
0.5146001815795899,0.4629129409790039
0.5136445999145508,0.4788499832153320
0.5136445999145508,0.4788499832153320
0.5090618133544922,0.4562410354614257
0.5090618133544922,0.4562410354614257
0.5263057708740234,0.4790966033935546
0.5263057708740234,0.4790966033935546
0.4981676101684570,0.4677125930786132
0.4981676101684570,0.4677125930786132
0.5240375518798828,0.4698480606079101
0.5240375518798828,0.4698480606079101
0.5190525054931641,0.4866416931152344
0.5190525054931641,0.4866416931152344
0.5126518249511719,0.4645540237426757
0.5126518249511719,0.4645540237426757
0.5243551254272460,0.4862571716308594
0.5243551254272460,0.4862571716308594
0.5091945648193359,0.4748868942260742
0.5091945648193359,0.4748868942260742
0.5298414230346680,0.4771757125854492
0.5298414230346680,0.4771757125854492
0.5222797393798828,0.4930921554565429
0.5343086242675781,0.4930921554565429
0.5107028961181640,0.4722713470458984
0.5107028961181640,0.4722713470458984
0.5354387283325195,0.4940792083740234
0.5354387283325195,0.4940792083740234
0.5141504287719726,0.4825292587280273
0.5141504287719726,0.4825292587280273
0.5320844650268555,0.4837480545043945
0.5320844650268555,0.4837480545043945
0.5210174560546875,0.5009759902954102
0.5210174560546875,0.5009759902954102
0.5213830947875976,0.4793357849121094
0.5213830947875976,0.4793357849121094
0.5413032531738281,0.5008466720581054
0.5413032531738281,0.5008466720581054
0.5160478591918946,0.4854503631591797
0.5160478591918946,0.4854503631591797
0.5248277664184570,0.4798290252685546
0.5248277664184570,0.4798290252685546
0.5183830261230469,0.4831100463867187
0.5183830261230469,0.4831100463867187
0.5063821792602539,0.4522121429443359
0.5063821792602539,0.4522121429443359
0.5193466186523438,0.4661813735961914
0.5193466186523438,0.4661813735961914
0.4888881683349609,0.4503805160522460
0.4888881683349609,0.4503805160522460
0.5113151550292968,0.4489019393920898
0.5113151550292968,0.4489019393920898
0.5060663223266602,0.4624935150146484
0.5060663223266602,0.4624935150146484
0.4970054626464844,0.4394599914550781
0.4970054626464844,0.4394599914550781
0.5091699600219727,0.4607923507690430
0.5091699600219727,0.4607923507690430
0.4930114746093750,0.4474599838256836
0.4930114746093750,0.4474599838256836
0.5116813659667968,0.4493705749511719
0.5116813659667968,0.4493705749511719
0.5047811508178711,0.4637432098388672
0.5169525146484375,0.4637432098388672
0.4936546325683593,0.4437595367431640
0.4936546325683593,0.4437595367431640
0.5180557250976562,0.4657344818115234
0.5180557250976562,0.4657344818115234
0.4986270904541015,0.4538017272949219
0.4986270904541015,0.4538017272949219
0.5154790878295898,0.4567451477050781
0.5154790878295898,0.4567451477050781
0.5050020217895508,0.4735891342163085
0.5050020217895508,0.4735891342163085
0.5059524536132812,0.4530956268310546
0.5059524536132812,0.4530956268310546
0.5250823974609374,0.4759151458740234
0.5250823974609374,0.4759151458740234
0.5027858734130859,0.4627132415771484
0.5027858734130859,0.4627132415771484
0.5160175323486328,0.4666002273559570
0.5160175323486328,0.4666002273559570
0.5159906387329102,0.4815902709960938
0.5159906387329102,0.4815902709960938
0.5117534637451172,0.4599168777465820
0.5117534637451172,0.4599168777465820
0.5271097183227539,0.4808195114135742
0.5271097183227539,0.4808195114135742
0.4991884231567383,0.4671758651733398
0.4991884231567383,0.4671758651733398
0.5233016967773437,0.4683666229248047
0.5233016967773437,0.4683666229248047
0.5170818328857422,0.4827444076538085
0.5170818328857422,0.4827444076538085
0.5099361419677734,0.4593835830688476
0.5099361419677734,0.4593835830688476
0.5218585968017578,0.4816823959350586
0.5218585968017578,0.4816823959350586
0.5057985305786132,0.4673498153686523
0.5057985305786132,0.4673498153686523
0.5255138397216796,0.4693943023681640
0.5255138397216796,0.4693943023681640
0.5169158935546875,0.4839723587036133
0.5169158935546875,0.4839723587036133
0.5054992675781250,0.4629192352294922
0.5054992675781250,0.4629192352294922
0.5295066833496094,0.4844181060791015
0.5295066833496094,0.4844181060791015
0.5080495834350586,0.4709260940551758
0.5080495834350586,0.4709260940551758
0.5257781982421875,0.4725128173828125
0.5257781982421875,0.4725128173828125
0.5139678955078125,0.4888538360595703
0.5139678955078125,0.4888538360595703
0.5146350860595703,0.4671747207641601
0.5146350860595703,0.4671747207641601
0.5340831756591796,0.4889482498168945
0.5340831756591796,0.4889482498168945
0.5096677780151367,0.4748348236083984
0.5096677780151367,0.4748348236083984
0.5224720001220703,0.4779556274414062
0.5224720001220703,0.4779556274414062
0.5223031997680664,0.4925703048706054
0.5409450531005859,0.4925703048706054
0.5170623779296875,0.4714067459106445
0.5170623779296875,0.4714067459106445
0.5337387084960937,0.4921920776367187
0.5337387084960937,0.4921920776367187
0.5061607360839844,0.4797855377197265
0.5061607360839844,0.4797855377197265
0.5311574935913086,0.4825504302978516
0.5311574935913086,0.4825504302978516
0.5267486572265625,0.4979221343994140
0.5267486572265625,0.4979221343994140
0.5191246032714844,0.4765291213989258
0.5191246032714844,0.4765291213989258
0.5310070037841796,0.4982877731323242
0.5310070037841796,0.4982877731323242
0.5134597778320312,0.4801019668579101
0.5134597778320312,0.4801019668579101
0.5277940750122070,0.4739707946777343
0.5277940750122070,0.4739707946777343
0.5137716293334961,0.4769250869750976
0.5137716293334961,0.4769250869750976
0.4973756790161132,0.4488693237304687
0.4973756790161132,0.4488693237304687
0.5173233032226562,0.4649940490722656
0.5173233032226562,0.4649940490722656
0.4940906524658203,0.4467481613159179
0.4940906524658203,0.4467481613159179
0.5089468002319336,0.4471120834350586
0.5089468002319336,0.4471120834350586
0.5123605728149414,0.4545221328735352
0.4997417449951171,0.4545221328735352
0.4996582031250000,0.4566335678100586
0.5131885528564453,0.4566335678100586
0.5029094696044921,0.4400327682495117
0.5029094696044921,0.4400327682495117
0.5105026245117187,0.4637701034545898
0.5105026245117187,0.4637701034545898
0.4939006805419922,0.4428611755371094
0.4939006805419922,0.4428611755371094
0.5217275619506836,0.4601383209228516
0.5217275619506836,0.4601383209228516
0.4973865509033203,0.4589338302612305
0.4973865509033203,0.4589338302612305
0.5074836730957031,0.4494049072265625
0.5074836730957031,0.4494049072265625
0.5151798248291015,0.4724905014038085
0.5151798248291015,0.4724905014038085
0.5055582046508789,0.4529994964599609
0.5055582046508789,0.4529994964599609
0.5217430114746093,0.4669338226318359
0.5217430114746093,0.4669338226318359
0.5036024093627930,0.4720344543457031
0.5036024093627930,0.4720344543457031
0.5137132644653321,0.4604684829711914
0.5137132644653321,0.4604684829711914
0.5279994964599609,0.4838602066040039
0.5279994964599609,0.4838602066040039
0.5054878234863281,0.4590082168579102
0.5101455688476563,0.4590082168579102
0.5263252258300781,0.4769067764282227
0.5263252258300781,0.4769067764282227
0.5070928573608399,0.4779195785522461
0.5070928573608399,0.4779195785522461
0.5224714279174805,0.4652521133422851
0.5224714279174805,0.4652521133422851
0.5229412078857422,0.4820852279663086
0.5229412078857422,0.4820852279663086
0.5057979583740234,0.4620620727539062
0.5057979583740234,0.4620620727539062
0.5259321212768554,0.4769702911376953
0.5259321212768554,0.4769702911376953
0.5132463455200195,0.4786113739013672
0.5132463455200195,0.4786113739013672
0.5163351058959961,0.4621953964233398
0.5163351058959961,0.4621953964233398
0.5233325958251953,0.4858875274658203
0.5233325958251953,0.4858875274658203
0.5068450927734375,0.4648366928100586
0.5068450927734375,0.4648366928100586
0.5345769882202148,0.4820749282836914
0.5345769882202148,0.4820749282836914
0.5098989486694335,0.4800790786743164
0.5098989486694335,0.4800790786743164
0.5197139739990234,0.4704814910888672
0.5197139739990234,0.4704814910888672
0.5269746780395508,0.4923797607421875
0.5269746780395508,0.4923797607421875
0.5172986984252930,0.4724069595336914
0.5172986984252930,0.4724069595336914
0.5323722839355468,0.4852180480957031
0.5323722839355468,0.4852180480957031
0.5135988235473633,0.4886856079101562
0.5135988235473633,0.4886856079101562
0.5229875564575195,0.4766773223876953
0.5229875564575195,0.4766773223876953
0.5367313385009765,0.4990230560302734
0.5367313385009765,0.4990230560302734
0.5139930725097656,0.4737573623657226
0.5139930725097656,0.4737573623657226
0.5352762222290038,0.4925130844116211
0.5352762222290038,0.4925130844116211
0.5163740158081055,0.4937084197998047
0.5163740158081055,0.4937084197998047
0.5325576782226562,0.4825922012329101
0.5167957305908203,0.4825922012329101
0.5335332870483398,0.5008049011230469
0.5335332870483398,0.5008049011230469
0.5172574996948242,0.4815382003784179
0.5172574996948242,0.4815382003784179
0.5384210586547852,0.4985761642456055
0.5384210586547852,0.4985761642456055
0.5265781402587890,0.5007408142089843
0.5265781402587890,0.5007408142089843
0.5296646118164062,0.4844884872436523
0.5296646118164062,0.4844884872436523
0.5357414245605469,0.5058551788330078
0.5357414245605469,0.5058551788330078
0.5155483245849609,0.4765308380126953
0.5155483245849609,0.4765308380126953
0.5362415313720703,0.4821115493774414
0.5362415313720703,0.4821115493774414
0.5044498443603516,0.4693805694580078
0.5044498443603516,0.4693805694580078
0.5091905593872070,0.4527093887329101
0.5091905593872070,0.4527093887329101
0.5130300521850586,0.4700139999389648
0.5130300521850586,0.4700139999389648
0.5011997222900391,0.4460563659667969
0.5011997222900391,0.4460563659667969
0.5151117324829101,0.4576744079589843
0.5151117324829101,0.4576744079589843
0.4959388732910156,0.4596582412719726
0.4959388732910156,0.4596582412719726
0.5050775527954101,0.4470199584960937
0.5050775527954101,0.4470199584960937
0.5183315277099609,0.4697313308715820
0.5183315277099609,0.4697313308715820
0.4963869094848632,0.4444576263427734
0.4963869094848632,0.4444576263427734
0.5177364349365234,0.4641517639160156
0.5177364349365234,0.4641517639160156
0.4993371963500977,0.4657224655151367
0.4993371963500977,0.4657224655151367
0.5164833068847656,0.4553169250488281
0.5164833068847656,0.4553169250488281
0.5181055068969727,0.4760438919067382
0.5181055068969727,0.4760438919067382
0.5010864257812500,0.4556241989135742
0.5010864257812500,0.4556241989135742
0.5252386093139648,0.4756942749023437
0.5252386093139648,0.4756942749023437
0.5123182296752929,0.4789409637451172
0.5123182296752929,0.4789409637451172
0.5165885925292969,0.4624694824218750
0.5165885925292969,0.4624694824218750
0.5251012802124023,0.4897544860839844
0.5251012802124023,0.4897544860839844
0.5072164535522461,0.4658626556396484
0.5072164535522461,0.4658626556396484
0.5374036788940429,0.4855081558227539
0.5374036788940429,0.4855081558227539
0.5104785919189453,0.4814483642578125
0.5104785919189453,0.4814483642578125
0.5205179214477539,0.4708591461181640
0.5205179214477539,0.4708591461181640
0.5262920379638671,0.4918052673339843
0.5262920379638671,0.4918052673339843
0.5159826278686523,0.4693868637084961
0.5159826278686523,0.4693868637084961
0.5305160522460938,0.4820560455322265
0.5305160522460938,0.4820560455322265
0.5107006072998047,0.4835466384887695
0.5107006072998047,0.4835466384887695
0.5194679260253906,0.4708545684814453
0.5194679260253906,0.4708545684814453
0.5326887130737304,0.4930332183837891
0.5326887130737304,0.4930332183837891
0.5101427078247071,0.4667449951171875
0.5141836166381836,0.4667449951171875
0.5316473007202148,0.4867458343505859
0.5316473007202148,0.4867458343505859
0.5129722595214844,0.4871601104736328
0.5129722595214844,0.4871601104736328
0.5294591903686523,0.4759935379028320
0.5294591903686523,0.4759935379028320
0.5308370590209961,0.4962890625000000
0.5308370590209961,0.4962890625000000
0.5130208969116211,0.4740783691406250
0.5130208969116211,0.4740783691406250
0.5363004684448242,0.4936437606811523
0.5363004684448242,0.4936437606811523
0.5224628448486328,0.4946680068969727
0.5224628448486328,0.4946680068969727
0.5260459899902343,0.4779441833496094
0.5260459899902343,0.4779441833496094
0.5333003997802734,0.5038272857666015
0.5333003997802734,0.5038272857666015
0.5157983779907226,0.4798421859741211
0.5157983779907226,0.4798421859741211
0.5448675155639648,0.4993618011474609
0.5448675155639648,0.4993618011474609
0.5196573257446289,0.4959869384765625
0.5196573257446289,0.4959869384765625
0.5293235778808594,0.4864814758300781
0.5293235778808594,0.4864814758300781
0.5361797332763671,0.5091596603393554
0.5361797332763671,0.5091596603393554
0.5263715744018554,0.4869729995727539
0.5263715744018554,0.4869729995727539
0.5419395446777343,0.5016946792602539
0.5419395446777343,0.5016946792602539
0.5228090286254883,0.5038633346557617
0.5228090286254883,0.5038633346557617
0.5323213577270508,0.4918590545654297
0.5323213577270508,0.4918590545654297
0.5454648971557617,0.5146093368530273
0.5454648971557617,0.5146093368530273
0.5211822509765625,0.4838298797607422
0.5211822509765625,0.4838298797607422
0.5383987426757812,0.4954885482788086
0.5383987426757812,0.4954885482788086
0.5114650726318359,0.4828702926635742
0.5114650726318359,0.4828702926635742
0.5209339141845702,0.4620271682739258
0.5209339141845702,0.4620271682739258
0.5170520782470703,0.4742237091064453
0.5170520782470703,0.4742237091064453
0.4976188659667968,0.4487028121948242
0.4976188659667968,0.4487028121948242
0.5175161361694336,0.4644269943237305
0.5175161361694336,0.4644269943237305
0.5037019729614257,0.4636384963989257
0.5179853439331055,0.4636384963989257
0.5069824218750000,0.4475526809692383
0.5069824218750000,0.4475526809692383
0.5134265899658202,0.4716539382934570
0.5134265899658202,0.4716539382934570
0.4968961715698242,0.4485094070434570
0.4968961715698242,0.4485094070434570
0.5255985260009766,0.4682647705078125
0.5255985260009766,0.4682647705078125
0.5005027770996093,0.4647005081176758
0.5005027770996093,0.4647005081176758
0.5106937408447265,0.4561180114746093
0.5106937408447265,0.4561180114746093
0.5179412841796874,0.4794330596923828
0.5179412841796874,0.4794330596923828
0.5088117599487304,0.4584743499755859
0.5088117599487304,0.4584743499755859
0.5259876251220703,0.4754116058349609
0.5259876251220703,0.4754116058349609
0.5078275680541992,0.4790090560913086
0.5078275680541992,0.4790090560913086
0.5184762954711913,0.4694543838500976
0.5184762954711913,0.4694543838500976
0.5325233459472656,0.4940860748291016
0.5325233459472656,0.4940860748291016
0.5108728408813477,0.4681222915649414
0.5108728408813477,0.4681222915649414
0.5334463119506836,0.4895874023437500
0.5334463119506836,0.4895874023437500
0.5138425827026367,0.4889013290405273
0.5138425827026367,0.4889013290405273
0.5300159454345703,0.4779602050781250
0.5300159454345703,0.4779602050781250
0.5301527023315430,0.4960521697998047
0.5301527023315430,0.4960521697998047
0.5133235931396484,0.4739582061767578
0.5133235931396484,0.4739582061767578
0.5348682403564453,0.4920627593994140
0.5348682403564453,0.4920627593994140
0.5212417602539062,0.4909149169921875
0.5212417602539062,0.4909149169921875
0.5240375518798828,0.4747238159179688
0.5240375518798828,0.4747238159179688
0.5299953460693360,0.4982563018798828
0.5299953460693360,0.4982563018798828
0.5129402160644531,0.4738197326660156
0.5129402160644531,0.4738197326660156
0.5414337158203125,0.4931882858276367
0.5414337158203125,0.4931882858276367
0.5156438827514648,0.4882862091064453
0.5156438827514648,0.4882862091064453
0.5248535156249999,0.4787521362304688
0.5248535156249999,0.4787521362304688
0.5310127258300781,0.5009159088134766
0.5310127258300781,0.5009159088134766
0.5212583541870117,0.4781564712524414
0.5212583541870117,0.4781564712524414
0.5372474670410156,0.4933330535888671
0.5372474670410156,0.4933330535888671
0.5180379867553710,0.4947195053100586
0.5180379867553710,0.4947195053100586
0.5273500442504883,0.4832662582397461
0.5273500442504883,0.4832662582397461
0.5402910232543945,0.5066625595092773
0.5402910232543945,0.5066625595092773
0.5178852081298828,0.4791406631469726
0.5178852081298828,0.4791406631469726
0.5399665832519531,0.5004152297973633
0.5399665832519531,0.5004152297973633
0.5204086303710938,0.4996707916259766
0.5204086303710938,0.4996707916259766
0.5365940093994140,0.4892269134521484
0.5365940093994140,0.4892269134521484
0.5368812561035156,0.5080438613891601
0.5368812561035156,0.5080438613891601
0.5206855773925781,0.4866966247558593
0.5206855773925781,0.4866966247558593
0.5431062698364257,0.5062082290649413
0.5303718566894531,0.5064817428588867
0.5303718566894531,0.5064817428588867
0.5342422485351562,0.4918167114257812
0.5342422485351562,0.4918167114257812
0.5406761169433594,0.5167671203613281
0.5406761169433594,0.5167671203613281
0.5235494613647461,0.4914991378784179
0.5235494613647461,0.4914991378784179
0.5507766723632812,0.5069217681884766
0.5507766723632812,0.5069217681884766
0.5194118499755859,0.4915403366088867
0.5194118499755859,0.4915403366088867
0.5214477539062500,0.4697301864624023
0.5214477539062500,0.4697301864624023
0.5213613510131836,0.4835426330566406
0.5213613510131836,0.4835426330566406
0.5067655563354492,0.4531843185424804
0.5067655563354492,0.4531843185424804
0.5213281631469726,0.4659421920776367
0.5092557907104492,0.4659421920776367
0.5168552398681641,0.4637477874755859
0.5131610870361328,0.4637477874755859
0.5079008102416992,0.4506826400756836
0.5079008102416992,0.4506826400756836
0.5200984954833984,0.4742340087890625
0.5200984954833984,0.4742340087890625
0.4969093322753906,0.4450252532958984
0.4969093322753906,0.4450252532958984
0.5206832885742188,0.4676548004150390
0.5206832885742188,0.4676548004150390
0.5002893447875977,0.4665006637573242
0.5002893447875977,0.4665006637573242
0.5169376373291016,0.4561328887939453
0.5169376373291016,0.4561328887939453
0.5182022094726563,0.4770910263061523
0.5182022094726563,0.4770910263061523
0.5018451690673827,0.4550828933715820
0.5018451690673827,0.4550828933715820
0.5263727188110351,0.4771356582641602
0.5263727188110351,0.4771356582641602
0.5133018493652344,0.4783006668090820
0.5133018493652344,0.4783006668090820
0.5185741424560547,0.4650667190551758
0.5185741424560547,0.4650667190551758
0.5262697219848632,0.4924821853637695
0.5262697219848632,0.4924821853637695
0.5096557617187499,0.4685811996459961
0.5096557617187499,0.4685811996459961
0.5407688140869140,0.4914791107177734
0.5407688140869140,0.4914791107177734
0.5148742675781249,0.4871206283569336
0.5148742675781249,0.4871206283569336
0.5249914169311524,0.4780328750610351
0.5249914169311524,0.4780328750610351
0.5313674926757812,0.5017227172851563
0.5313674926757812,0.5017227172851563
0.5204927444458007,0.4765542984008789
0.5204927444458007,0.4765542984008789
0.5378602981567383,0.4931098937988281
0.5378602981567383,0.4931098937988281
0.5170526504516602,0.4925268173217773
0.5170526504516602,0.4925268173217773
0.5264259338378906,0.4799732208251953
0.5264259338378906,0.4799732208251953
0.5386133193969727,0.5034410476684570
0.5386133193969727,0.5034410476684570
0.5149457931518554,0.4737298965454101
0.5149457931518554,0.4737298965454101
0.5383764266967773,0.4958084106445312
0.5383764266967773,0.4958084106445312
0.5172529220581055,0.4935201644897461
0.5172529220581055,0.4935201644897461
0.5334400177001953,0.4823862075805664
0.5334400177001953,0.4823862075805664
0.5334617614746093,0.5017925262451172
0.5334617614746093,0.5017925262451172
0.5161233901977539,0.4781461715698242
0.5161233901977539,0.4781461715698242
0.5395917892456055,0.4985692977905273
0.5395917892456055,0.4985692977905273
0.5254783630371094,0.4976348876953125
0.5254783630371094,0.4976348876953125
0.5298591613769531,0.4829051971435547
0.5298591613769531,0.4829051971435547
0.5360675811767578,0.5084999084472656
0.5360675811767578,0.5084999084472656
0.5187406539916992,0.4831678390502929
0.5187406539916992,0.4831678390502929
0.5490234374999999,0.5046152114868164
0.5490234374999999,0.5046152114868164
0.5221538543701172,0.4990121841430664
0.5221538543701172,0.4990121841430664
0.5322938919067383,0.4897687911987305
0.5322938919067383,0.4897687911987305
0.5383432388305663,0.5131828308105468
0.5383432388305663,0.5131828308105468
0.5276865005493164,0.4888526916503906
0.5276865005493164,0.4888526916503906
0.5457647323608398,0.5063215255737304
0.5457647323608398,0.5063215255737304
0.5251642227172851,0.5066064834594727
0.5251642227172851,0.5066064834594727
0.5354530334472656,0.4958965301513671
0.5354530334472656,0.4958965301513671
0.5483751296997070,0.5202484130859375
0.5483751296997070,0.5202484130859375
0.5253072738647461,0.4911363601684570
0.5253072738647461,0.4911363601684570
0.5487379074096680,0.5130872726440430
0.5369985580444335,0.5130872726440430
0.5254440307617188,0.5054872512817382
0.5254440307617188,0.5054872512817382
0.5367673873901367,0.4845806121826172
0.5367673873901367,0.4845806121826172
0.5288326263427734,0.4910774230957031
0.5288326263427734,0.4910774230957031
0.5045711517333984,0.4572635650634765
0.5045711517333984,0.4572635650634765
0.5239717483520507,0.4719480514526367
0.5239717483520507,0.4719480514526367
0.5062368392944335,0.4656972885131836
0.5062368392944335,0.4656972885131836
0.5095361709594727,0.4488607406616211
0.5095361709594727,0.4488607406616211
0.5145154953002929,0.4727525711059570
0.5145154953002929,0.4727525711059570
0.4967382431030273,0.4461038589477539
0.4967382431030273,0.4461038589477539
0.5266983032226562,0.4681148529052734
0.5266983032226562,0.4681148529052734
0.5001543045043945,0.4619791030883789
0.5001543045043945,0.4619791030883789
0.5111721038818359,0.4537010192871094
0.5111721038818359,0.4537010192871094
0.5172780990600586,0.4780191421508789
0.5172780990600586,0.4780191421508789
0.5069726943969727,0.4539327621459961
0.5069726943969727,0.4539327621459961
0.5262262344360351,0.4733407974243164
0.5262262344360351,0.4733407974243164
0.5061006546020508,0.4741556167602539
0.5061006546020508,0.4741556167602539
0.5180906295776367,0.4656309127807617
0.5180906295776367,0.4656309127807617
0.5312925338745117,0.4920530319213867
0.5312925338745117,0.4920530319213867
0.5100631713867188,0.4650100708007812
0.5100631713867188,0.4650100708007812
0.5351469039916992,0.4903289794921875
0.5351469039916992,0.4903289794921875
0.5144857406616211,0.4883714675903320
0.5144857406616211,0.4883714675903320
0.5322183609008789,0.4793340682983398
0.5322183609008789,0.4793340682983398
0.5321136474609375,0.4992101669311523
0.5321136474609375,0.4992101669311523
0.5148645401000976,0.4747564315795898
0.5148645401000976,0.4747564315795898
0.5380765914916992,0.4951601028442383
0.5380765914916992,0.4951601028442383
0.5224164962768555,0.4916021347045898
0.5224164962768555,0.4916021347045898
0.5269306182861327,0.4766944885253906
0.5135467529296874,0.4766944885253906
0.5319236755371094,0.5009428024291992
0.5319236755371094,0.5009428024291992
0.5143741607666016,0.4744285583496093
0.5143741607666016,0.4744285583496093
0.5445505142211914,0.4961002349853516
0.5445505142211914,0.4961002349853516
0.5171951293945313,0.4891817092895507
0.5171951293945313,0.4891817092895507
0.5281574249267578,0.4807909011840820
0.5281574249267578,0.4807909011840820
0.5334789276123046,0.5039022445678710
0.5334789276123046,0.5039022445678710
0.5229040145874023,0.4792556762695312
0.5229040145874023,0.4792556762695312
0.5411865234375000,0.4973218917846680
0.5411865234375000,0.4973218917846680
0.5197345733642578,0.4960304260253906
0.5197345733642578,0.4960304260253906
0.5307249069213867,0.4862176895141601
0.5307249069213867,0.4862176895141601
0.5424797058105468,0.5099424362182617
0.5424797058105468,0.5099424362182617
0.5198907852172852,0.4808916091918945
0.5198907852172852,0.4808916091918945
0.5439760208129882,0.5045127868652344
0.5439760208129882,0.5045127868652344
0.5223712921142578,0.5007350921630859
0.5223712921142578,0.5007350921630859
0.5399797439575195,0.4916719436645507
0.5399797439575195,0.4916719436645507
0.5393892288208008,0.5111612319946289
0.5393892288208008,0.5111612319946289
0.5225864410400390,0.4876310348510742
0.5225864410400390,0.4876310348510742
0.5465040206909180,0.5091642379760742
0.5465040206909180,0.5091642379760742
0.5317199707031249,0.5065418243408203
0.5317199707031249,0.5065418243408203
0.5371616363525390,0.4935750961303711
0.5371616363525390,0.4935750961303711
0.5422651290893554,0.5182989120483398
0.5476564407348633,0.5182989120483398
0.5256757736206055,0.4929004669189453
0.5256757736206055,0.4929004669189453
0.5556123733520507,0.5150224685668945
0.5556123733520507,0.5150224685668945
0.5272607803344727,0.5055215835571288
0.5272607803344727,0.5055215835571288
0.5357179641723633,0.4910213470458984
0.5197317123413085,0.4910213470458984
0.5333976745605469,0.5006658554077148
0.5333976745605469,0.5006658554077148
0.5152267456054688,0.4629941940307617
0.5152267456054688,0.4629941940307617
0.5267560958862304,0.4719577789306640
0.5267560958862304,0.4719577789306640
0.5016489028930664,0.4640819549560546
0.5016489028930664,0.4640819549560546
0.5104064941406250,0.4506563186645507
0.5104064941406250,0.4506563186645507
0.5200023651123047,0.4717655181884766
0.5200023651123047,0.4717655181884766
0.4970958709716797,0.4413969039916992
0.4970958709716797,0.4413969039916992
0.5203639984130859,0.4640607833862305
0.5203639984130859,0.4640607833862305
0.4983919143676758,0.4594711303710937
0.4983919143676758,0.4594711303710937
0.5159711837768555,0.4505172729492187
0.5159711837768555,0.4505172729492187
0.5154304504394531,0.4700374603271484
0.5154304504394531,0.4700374603271484
0.4992593765258789,0.4465267181396484
0.4992593765258789,0.4465267181396484
0.5230699539184570,0.4684078216552734
0.5230699539184570,0.4684078216552734
0.5079637527465820,0.4649768829345703
0.5079637527465820,0.4649768829345703
0.5146041870117187,0.4549198150634766
0.5146041870117187,0.4549198150634766
0.5194164276123047,0.4785615921020507
0.5194164276123047,0.4785615921020507
0.5052572250366211,0.4570186614990234
0.5052572250366211,0.4570186614990234
0.5336986541748047,0.4783086776733398
0.5336986541748047,0.4783086776733398
0.5091442108154297,0.4722221374511719
0.5091442108154297,0.4722221374511719
0.5205167770385742,0.4668680191040039
0.5205167770385742,0.4668680191040039
0.5249404907226562,0.4877511978149414
0.5249404907226562,0.4877511978149414
0.5164724349975586,0.4656406402587890
0.5164724349975586,0.4656406402587890
0.5319591522216797,0.4814203262329101
0.5319591522216797,0.4814203262329101
0.5119314193725586,0.4785747528076172
0.5119314193725586,0.4785747528076172
0.5222087860107422,0.4699092864990234
0.5222087860107422,0.4699092864990234
0.5319070816040039,0.4898969650268554
0.5319070816040039,0.4898969650268554
0.5110610961914063,0.4629009246826172
0.5110610961914063,0.4629009246826172
0.5318103790283203,0.4832908630371093
0.5318103790283203,0.4832908630371093
0.5118587493896484,0.4786188125610351
0.5118587493896484,0.4786188125610351
0.5289922714233398,0.4716773986816406
0.5289922714233398,0.4716773986816406
0.5273883819580077,0.4890924453735351
0.5273883819580077,0.4890924453735351
0.5120990753173827,0.4667478561401367
0.5120990753173827,0.4667478561401367
0.5330623626708985,0.4865736007690429
0.5330623626708985,0.4865736007690429
0.5187526702880859,0.4833806991577148
0.5187526702880859,0.4833806991577148
0.5256723403930664,0.4710617065429688
0.5256723403930664,0.4710617065429688
0.5281974792480468,0.4949323654174804
0.5281974792480468,0.4949323654174804
0.5145578384399414,0.4723154067993164
0.5145578384399414,0.4723154067993164
0.5442020416259765,0.4950004577636719
0.5442020416259765,0.4950004577636719
0.5173656463623046,0.4865123748779296
0.5173656463623046,0.4865123748779296
0.5308444976806640,0.4817613601684570
0.5308444976806640,0.4817613601684570
0.5337656021118163,0.5034622192382813
0.5337656021118163,0.5034622192382813
0.5244993209838867,0.4795812606811523
0.5244993209838867,0.4795812606811523
0.5417020797729492,0.4978866577148438
0.5417020797729492,0.4978866577148438
0.5197900772094727,0.4927854537963867
0.5197900772094727,0.4927854537963867
0.5348808288574218,0.4885637283325195
0.5348808288574218,0.4885637283325195
0.5439279556274413,0.5122730255126953
0.5475837707519531,0.5122730255126953
0.5221939086914062,0.4827249526977539
0.5221939086914062,0.4827249526977539
0.5486320495605469,0.5088008880615235
0.5486320495605469,0.5088008880615235
0.5229045867919921,0.4998510360717773
0.5229045867919921,0.4998510360717773
0.5422245025634765,0.4888481140136718
0.5422245025634765,0.4888481140136718
0.5354146957397461,0.4999540328979492
0.5354146957397461,0.4999540328979492
0.5107091903686524,0.4603952407836914
0.5107091903686524,0.4603952407836914
0.5287084579467773,0.4730524063110351
0.5077074050903320,0.4478204727172851
0.5038919448852539,0.4585269927978515
0.5237468719482422,0.4585269927978515
0.5112585067749024,0.4433893203735351
0.5112585067749024,0.4433893203735351
0.5120733261108398,0.4652944564819336
0.5120733261108398,0.4652944564819336
0.4943178176879883,0.4362779617309570
0.4943178176879883,0.4362779617309570
0.5236581802368164,0.4587907791137695
0.5236581802368164,0.4587907791137695
0.4937547683715820,0.4474336624145508
0.4937547683715820,0.4474336624145508
0.5085187911987304,0.4411239624023438
0.5085187911987304,0.4411239624023438
0.5111772537231445,0.4641763687133789
0.5111772537231445,0.4641763687133789
0.4998859405517578,0.4381713867187500
0.4998859405517578,0.4381713867187500
0.5201505661010742,0.4590362548828125
0.5201505661010742,0.4590362548828125
0.4961912155151367,0.4537353515625000
0.4961912155151367,0.4537353515625000
0.5119777679443359,0.4476596832275391
0.5119777679443359,0.4476596832275391
0.5206403732299805,0.4726060867309570
0.5206403732299805,0.4726060867309570
0.5007276535034180,0.4446069717407227
0.5007276535034180,0.4446069717407227
0.5265169143676758,0.4711904525756836
0.5265169143676758,0.4711904525756836
0.5027097702026367,0.4648475646972656
0.5027097702026367,0.4648475646972656
0.5245227813720703,0.4600633621215820
0.5245227813720703,0.4600633621215820
0.5231094360351562,0.4812429428100586
0.5231094360351562,0.4812429428100586
0.5070705413818359,0.4567605972290039
0.5070705413818359,0.4567605972290039
0.5319128036499023,0.4803714752197266
0.5319128036499023,0.4803714752197266
0.5130975723266601,0.4726558685302734
0.5130975723266601,0.4726558685302734
0.5226779937744140,0.4618028640747070
0.5226779937744140,0.4618028640747070
0.5251024246215820,0.4860477447509766
0.5251024246215820,0.4860477447509766
0.5082630157470703,0.4582466125488281
0.5082630157470703,0.4582466125488281
0.5383512496948242,0.4814397811889648
0.5383512496948242,0.4814397811889648
0.5077520370483398,0.4695510864257812
0.5077520370483398,0.4695510864257812
0.5227128982543945,0.4637689590454102
0.5227128982543945,0.4637689590454102
0.5249616622924804,0.4863859176635742
0.5249616622924804,0.4863859176635742
0.5140605926513672,0.4600439071655273
0.5140605926513672,0.4600439071655273
0.5330783843994140,0.4800933837890625
0.5330783843994140,0.4800933837890625
0.5085256576538085,0.4737733840942382
0.5085256576538085,0.4737733840942382
0.5236221313476562,0.4667558670043945
0.5236221313476562,0.4667558670043945
0.5314710617065429,0.4908353805541992
0.5314710617065429,0.4908353805541992
0.5105478286743164,0.4614881515502929
0.5105478286743164,0.4614881515502929
0.5351388931274413,0.4865707397460937
0.5351388931274413,0.4865707397460937
0.5106822967529296,0.4791011810302734
0.5106822967529296,0.4791011810302734
0.5316347122192383,0.4732400894165039
0.5316347122192383,0.4732400894165039
0.5295890808105469,0.4935127258300781
0.5295890808105469,0.4935127258300781
0.5138757705688476,0.4692060470581054
0.5138757705688476,0.4692060470581054
0.5383026123046875,0.4926567077636719
0.5383026123046875,0.4926567077636719
0.5202220916748047,0.4864505767822265
0.5202220916748047,0.4864505767822265
0.5305772781372070,0.4773359298706055
0.5305772781372070,0.4773359298706055
0.5334062576293945,0.5017799377441406
0.5334062576293945,0.5017799377441406
0.5180322647094726,0.4772666931152343
0.5180322647094726,0.4772666931152343
0.5483625411987304,0.5011556625366210
0.5296085357666015,0.5011556625366210
0.5203102111816406,0.4915557861328125
0.5203102111816406,0.4915557861328125
0.5349340438842773,0.4872276306152343
0.5349340438842773,0.4872276306152343
0.5378299713134765,0.5084575653076172
0.5378299713134765,0.5084575653076172
0.5269317626953125,0.4798999786376953
0.5269317626953125,0.4798999786376953
0.5370838165283203,0.4850555419921875
0.5370838165283203,0.4850555419921875
0.5072828292846679,0.4674110412597656
0.5072828292846679,0.4674110412597656
0.5123725891113281,0.4511655807495117
0.5123725891113281,0.4511655807495117
0.5174766540527344,0.4670888900756835
0.5174766540527344,0.4670888900756835
0.4959045410156250,0.4372266769409179
0.4959045410156250,0.4372266769409179
0.5171236038208008,0.4577173233032226
0.5171236038208008,0.4577173233032226
0.4947452545166016,0.4500102996826172
0.4947452545166016,0.4500102996826172
0.5129156112670898,0.4431541442871094
0.5129156112670898,0.4431541442871094
0.5109077453613281,0.4608180999755859
0.5109077453613281,0.4608180999755859
0.4955915451049804,0.4377937316894531
0.4955915451049804,0.4377937316894531
0.5178497314453124,0.4589103698730468
0.5178497314453124,0.4589103698730468
0.5014829635620117,0.4531179428100586
0.5014829635620117,0.4531179428100586
0.5101329803466796,0.4436605453491211
0.5101329803466796,0.4436605453491211
0.5133201599121093,0.4663290023803711
0.5133201599121093,0.4663290023803711
0.4984285354614257,0.4428108215332031
0.4984285354614257,0.4428108215332031
0.5266885757446289,0.4654563903808593
0.5266885757446289,0.4654563903808593
0.5002676010131836,0.4566616058349609
0.5002676010131836,0.4566616058349609
0.5143198013305664,0.4524387359619140
0.5143198013305664,0.4524387359619140
0.5173839569091797,0.4740835189819336
0.5173839569091797,0.4740835189819336
0.5081336975097656,0.4511238098144531
0.5081336975097656,0.4511238098144531
0.5259881973266601,0.4696254730224609
0.5259881973266601,0.4696254730224609
0.5041728973388672,0.4647153854370117
0.5041728973388672,0.4647153854370117
0.5176488876342773,0.4579319000244140
0.5176488876342773,0.4579319000244140
0.5257701873779297,0.4794038772583007
0.5257701873779297,0.4794038772583007
0.5056926727294921,0.4519626617431640
0.5056926727294921,0.4519626617431640
0.5275566101074218,0.4739982604980468
0.5147792816162109,0.4739982604980468
0.5052675247192383,0.4670534133911133
0.5052675247192383,0.4670534133911133
0.5239471435546875,0.4610435485839843
0.5239471435546875,0.4610435485839843
0.5219816207885742,0.4784820556640625
0.5219816207885742,0.4784820556640625
0.5073400497436523,0.4566839218139648
0.5073400497436523,0.4566839218139648
0.5293607711791992,0.4773382186889648
0.5293607711791992,0.4773382186889648
0.5134317398071289,0.4723491668701172
0.5134317398071289,0.4723491668701172
0.5220479965209961,0.4632070541381836
0.5220479965209961,0.4632070541381836
0.5249519348144531,0.4855888366699219
0.5249519348144531,0.4855888366699219
0.5103418350219726,0.4627641677856445
0.5103418350219726,0.4627641677856445
0.5377201080322266,0.4842063903808593
0.5377201080322266,0.4842063903808593
0.5115446090698242,0.4754550933837891
0.5115446090698242,0.4754550933837891
0.5252254486083984,0.4713535308837891
0.5252254486083984,0.4713535308837891
0.5280166625976562,0.4918264389038086
0.5280166625976562,0.4918264389038086
0.5189804077148438,0.4695339202880859
0.5189804077148438,0.4695339202880859
0.5360223770141601,0.4871669769287109
0.5360223770141601,0.4871669769287109
0.5144096374511719,0.4825796127319336
0.5144096374511719,0.4825796127319336
0.5280006408691406,0.4765096664428711
0.5280006408691406,0.4765096664428711
0.5363754272460938,0.4983049392700195
0.5363754272460938,0.4983049392700195
0.5166418075561523,0.4715291976928710
0.5166418075561523,0.4715291976928710
0.5391649246215821,0.4943332672119141
0.5391649246215821,0.4943332672119141
0.5166017532348632,0.4876762390136719
0.5166017532348632,0.4876762390136719
0.5369802474975586,0.4826631546020508
0.5369802474975586,0.4826631546020508
0.5353277206420898,0.5020380020141602
0.5353277206420898,0.5020380020141602
0.5196613311767578,0.4782806396484375
0.5196613311767578,0.4782806396484375
0.5416305541992187,0.4971920013427734
0.5416305541992187,0.4971920013427734
0.5199399948120117,0.4836605072021484
0.5199399948120117,0.4836605072021484
0.5244815826416015,0.4632368087768555
0.5244815826416015,0.4632368087768555
0.5203531265258788,0.4763465881347656
0.5203531265258788,0.4763465881347656
0.4996490478515625,0.4431386947631836
0.4996490478515625,0.4431386947631836
0.5257261276245117,0.4617290496826172
0.5257261276245117,0.4617290496826172
0.4940494537353515,0.4470296859741211
0.4940494537353515,0.4470296859741211
0.5089187622070312,0.4402055740356445
0.5089187622070312,0.4402055740356445
0.5098451614379883,0.4611362457275390
0.5098451614379883,0.4611362457275390
0.4985658645629882,0.4346317291259765
0.4985658645629882,0.4346317291259765
0.5180871963500976,0.4546497344970703
0.5180871963500976,0.4546497344970703
0.4927488327026367,0.4474004745483398
0.4927488327026367,0.4474004745483398
0.5093095779418945,0.4413722991943359
0.5093095779418945,0.4413722991943359
0.5168397903442382,0.4652915954589844
0.5168397903442382,0.4652915954589844
0.4965339660644531,0.4365051269531250
0.4965339660644531,0.4365051269531250
0.5218276977539062,0.4626073837280273
0.5218276977539062,0.4626073837280273
0.4968212127685547,0.4550971984863281
0.4968212127685547,0.4550971984863281
0.5197202682495117,0.4512302398681640
0.5197202682495117,0.4512302398681640
0.5177461624145507,0.4723600387573242
0.5177461624145507,0.4723600387573242
0.5027687072753906,0.4490512847900390
0.5027687072753906,0.4490512847900390
0.5281642913818360,0.4738695144653320
0.5281642913818360,0.4738695144653320
0.5088363647460937,0.4671815872192382
0.5088363647460937,0.4671815872192382
0.5211610794067383,0.4588823318481445
0.5211610794067383,0.4588823318481445
0.5233852386474609,0.4832868576049805
0.5233852386474609,0.4832868576049805
0.5072948455810546,0.4568618774414062
0.5072948455810546,0.4568618774414062
0.5372360229492187,0.4805299758911132
0.5372360229492187,0.4805299758911132
0.5063924789428711,0.4680341720581054
0.5063924789428711,0.4680341720581054
0.5230899810791015,0.4629037857055664
0.5230899810791015,0.4629037857055664
0.5244569778442383,0.4846269607543945
0.5244569778442383,0.4846269607543945
0.5134077072143555,0.4581464767456054
0.5134077072143555,0.4581464767456054
0.5328941345214844,0.4781026840209961
0.5328941345214844,0.4781026840209961
0.5070510864257812,0.4704036712646484
0.5070510864257812,0.4704036712646484
0.5236261367797851,0.4643234252929687
0.5236261367797851,0.4643234252929687
0.5307512283325195,0.4873992919921875
0.5307512283325195,0.4873992919921875
0.5096992492675781,0.4580371856689453
0.5096992492675781,0.4580371856689453
0.5345706939697266,0.4834333419799804
0.5345706939697266,0.4834333419799804
0.5086074829101562,0.4744462966918945
0.5086074829101562,0.4744462966918945
0.5312965393066406,0.4696340560913086
0.5312965393066406,0.4696340560913086
0.5281957626342774,0.4894054412841797
0.5281957626342774,0.4894054412841797
0.5121665954589844,0.4647806167602539
0.5121665954589844,0.4647806167602539
0.5368961334228516,0.4884075164794922
0.5368961334228516,0.4884075164794922
0.5167161941528320,0.4802947998046875
0.5167161941528320,0.4802947998046875
0.5291158676147460,0.4717317581176758
0.5291158676147460,0.4717317581176758
0.5311431884765625,0.4959388732910156
0.5311431884765625,0.4959388732910156
0.5151042938232422,0.4696300506591797
0.5151042938232422,0.4696300506591797
0.5453561782836914,0.4940420150756836
0.5453561782836914,0.4940420150756836
0.5149663925170899,0.4826345443725586
0.5149663925170899,0.4826345443725586
0.5320438385009766,0.4787807464599609
0.5320438385009766,0.4787807464599609
0.5338274002075195,0.5014371871948242
0.5412849426269531,0.5014371871948242
0.5236072540283203,0.4762384414672851
0.5236072540283203,0.4762384414672851
0.5249542236328125,0.4760261535644531
0.5249542236328125,0.4760261535644531
0.5249542236328125,0.4770103454589844
0.5354970932006836,0.5026210784912110
0.5354970932006836,0.5026210784912110
0.5136188507080078,0.4735576629638671
0.5136188507080078,0.4735576629638671
0.5355915069580078,0.4764678955078125
0.5355915069580078,0.4764678955078125
0.5094652175903320,0.4730964660644531
0.5094652175903320,0.4730964660644531
0.5002733230590820,0.4439941406250000
0.5002733230590820,0.4439941406250000
0.5196876525878906,0.4634038925170898
0.5196876525878906,0.4634038925170898
0.4912599563598632,0.4356685638427734
0.4912599563598632,0.4356685638427734
0.5139839172363281,0.4452037811279297
0.5139839172363281,0.4452037811279297
0.4905006408691406,0.4531248092651367
0.4905006408691406,0.4531248092651367
0.4986579895019531,0.4316041946411133
0.4986579895019531,0.4316041946411133
0.5165296554565429,0.4560745239257812
0.5165296554565429,0.4560745239257812
0.4886209487915039,0.4324453353881836
0.4886209487915039,0.4324453353881836
0.5077039718627929,0.4451717376708984
0.5077039718627929,0.4451717376708984
0.4976926803588867,0.4539287567138672
0.4976926803588867,0.4539287567138672
0.5006160736083984,0.4339879989624023
0.5006160736083984,0.4339879989624023
0.5168724060058594,0.4587072372436523
0.5168724060058594,0.4587072372436523
0.4858016967773438,0.4371414184570312
0.4858016967773438,0.4371414184570312
0.5173358917236328,0.4504594802856445
0.5173358917236328,0.4504594802856445
0.5030147552490234,0.4603374481201172
0.5030147552490234,0.4603374481201172
0.5042667388916016,0.4414117813110351
0.5042667388916016,0.4414117813110351
0.5157091140747070,0.4680118560791016
0.5157091140747070,0.4680118560791016
0.4972589492797851,0.4462858200073242
0.4972589492797851,0.4462858200073242
0.5232255935668945,0.4601314544677734
0.5232255935668945,0.4601314544677734
0.5064674377441406,0.4689891815185547
0.5064674377441406,0.4689891815185547
0.5036962509155273,0.4504686355590820
0.5036962509155273,0.4504686355590820
0.5268156051635742,0.4753887176513671
0.5268156051635742,0.4753887176513671
0.5028081893920898,0.4525091171264648
0.5028081893920898,0.4525091171264648
0.5256357192993164,0.4646575927734375
0.5256357192993164,0.4646575927734375
0.5028207778930663,0.4728275299072265
0.5028207778930663,0.4728275299072265
0.5115863800048828,0.4523174285888671
0.5115863800048828,0.4523174285888671
0.5280572891235351,0.4766704559326171
0.5280572891235351,0.4766704559326171
0.5015384674072265,0.4526453018188477
0.5015384674072265,0.4526453018188477
0.5200361251831055,0.4657613754272460
0.5200361251831055,0.4657613754272460
0.5098880767822266,0.4741539001464843
0.5098880767822266,0.4741539001464843
0.5141475677490234,0.4544511795043945
0.5141475677490234,0.4544511795043945
0.5286832809448242,0.4792848587036133
0.5286832809448242,0.4792848587036133
0.4972978591918945,0.4569053649902344
0.4972978591918945,0.4569053649902344
0.5288097381591796,0.4696226119995117
0.5288097381591796,0.4696226119995117
0.5126197814941406,0.4785409927368164
0.5126197814941406,0.4785409927368164
0.5147998809814452,0.4582729339599609
0.5147998809814452,0.4582729339599609
0.5252906799316406,0.4840867996215820
0.5252906799316406,0.4840867996215820
0.5065750122070313,0.4614229202270508
0.5065750122070313,0.4614229202270508
0.5329347610473633,0.4744926452636719
0.5329347610473633,0.4744926452636719
0.5144056320190430,0.4831466674804688
0.5144056320190430,0.4831466674804688
0.5113420486450195,0.4638513565063476
0.5113420486450195,0.4638513565063476
0.5346519470214843,0.4890174865722656
0.5346519470214843,0.4890174865722656
0.5097404479980469,0.4667810440063476
0.5097404479980469,0.4667810440063476
0.5341506958007812,0.4790851593017578
0.5341506958007812,0.4790851593017578
0.5114347457885742,0.4889053344726562
0.5114347457885742,0.4889053344726562
0.5213481903076171,0.4698045730590820
0.5213481903076171,0.4698045730590820
0.5396038055419922,0.4952104568481445
0.5396038055419922,0.4952104568481445
0.5122266769409179,0.4716213226318359
0.5122266769409179,0.4716213226318359
0.5292549133300781,0.4807977676391602
0.5292549133300781,0.4807977676391602
0.5148645401000976,0.4804292678833008
0.5148645401000976,0.4804292678833008
0.5114679336547852,0.4495759963989258
0.5114679336547852,0.4495759963989258
0.5215078353881836,0.4651165008544922
0.5215078353881836,0.4651165008544922
0.4860523223876953,0.4370618820190429
0.4860523223876953,0.4370618820190429
0.5147912979125976,0.4453004837036132
0.5147912979125976,0.4453004837036132
0.4977796554565430,0.4509859085083008
0.4977796554565430,0.4509859085083008
0.4976400375366211,0.4292455673217773
0.4976400375366211,0.4292455673217773
0.5072742462158203,0.4529966354370117
0.5072742462158203,0.4529966354370117
0.4880281448364258,0.4294755935668945
0.4880281448364258,0.4294755935668945
0.5130477905273437,0.4416601181030274
0.5130477905273437,0.4416601181030274
0.4951721191406250,0.4491691589355469
0.4951721191406250,0.4491691589355469
0.4923110961914062,0.4303871154785156
0.4923110961914062,0.4303871154785156
0.5153732299804688,0.4553506851196289
0.5153732299804688,0.4553506851196289
0.4918653488159179,0.4331485748291016
0.4918653488159179,0.4331485748291016
0.5152690887451171,0.4464660644531250
0.5152690887451171,0.4464660644531250
0.4927253723144531,0.4558702468872070
0.4927253723144531,0.4558702468872070
0.5030044555664063,0.4374034881591797
0.5030044555664063,0.4374034881591797
0.5203851699829102,0.4634674072265625
0.5203851699829102,0.4634674072265625
0.4952384948730468,0.4411176681518554
0.4952384948730468,0.4411176681518554
0.5146820068359375,0.4559995651245117
0.5146820068359375,0.4559995651245117
0.5048418045043945,0.4652824401855469
0.5048418045043945,0.4652824401855469
0.5102165222167968,0.4468465805053711
0.5102165222167968,0.4468465805053711
0.5248208999633789,0.4719154357910156
0.5248208999633789,0.4719154357910156
0.4935728073120117,0.4496343612670898
0.4935728073120117,0.4496343612670898
0.5252906799316406,0.4622177124023437
0.5252906799316406,0.4622177124023437
0.5081153869628906,0.4700122833251953
0.5280956268310547,0.4700122833251953
0.5103790283203125,0.4492858886718750
0.5103790283203125,0.4492858886718750
0.5199708938598633,0.4741247177124023
0.5199708938598633,0.4741247177124023
0.5010704040527344,0.4508325576782226
0.5010704040527344,0.4508325576782226
0.5273145675659180,0.4629673004150390
0.5273145675659180,0.4629673004150390
0.5077943801879883,0.4706920623779297
0.5077943801879883,0.4706920623779297
0.5046295166015625,0.4513652801513672
0.5046295166015625,0.4513652801513672
0.5278518676757812,0.4760461807250976
0.5278518676757812,0.4760461807250976
0.5031085968017578,0.4535888671875000
0.5031085968017578,0.4535888671875000
0.5274221420288085,0.4657945632934570
0.5274221420288085,0.4657945632934570
0.5039182662963867,0.4752388000488281
0.5039182662963867,0.4752388000488281
0.5144027709960938,0.4562541961669921
0.5144027709960938,0.4562541961669921
0.5324386596679688,0.4815073013305664
0.5324386596679688,0.4815073013305664
0.5054729461669921,0.4591615676879883
0.5054729461669921,0.4591615676879883
0.5243608474731445,0.4724916458129882
0.5243608474731445,0.4724916458129882
0.5138883590698242,0.4808893203735352
0.5138883590698242,0.4808893203735352
0.5179544448852539,0.4620140075683594
0.5179544448852539,0.4620140075683594
0.5335687637329102,0.4861318588256835
0.5335687637329102,0.4861318588256835
0.5021095275878906,0.4646999359130859
0.5021095275878906,0.4646999359130859
0.5342502593994141,0.4777198791503906
0.5342502593994141,0.4777198791503906
0.5185523986816406,0.4862789154052734
0.5185523986816406,0.4862789154052734
0.5203016281127929,0.4673864364624023
0.5095075607299805,0.4673864364624023
0.5301721572875976,0.4928684234619141
0.5301721572875976,0.4928684234619141
0.5123863220214844,0.4705896377563477
0.5123863220214844,0.4705896377563477
0.5379747390747071,0.4836851119995117
0.5379747390747071,0.4836851119995117
0.5195886611938476,0.4909011840820312
0.5195886611938476,0.4909011840820312
0.5158573150634765,0.4701559066772460
0.5158573150634765,0.4701559066772460
0.5360109329223632,0.4882587432861328
0.5360109329223632,0.4882587432861328
0.5064891815185547,0.4545003890991210
0.5064891815185547,0.4545003890991210
0.5232267379760742,0.4572269439697265
0.5232267379760742,0.4572269439697265
0.4948734283447265,0.4587032318115234
0.4948734283447265,0.4587032318115234
0.5021627426147460,0.4344011306762695
0.5021627426147460,0.4344011306762695
0.5165851593017577,0.4560659408569336
0.5165851593017577,0.4560659408569336
0.4892915725708007,0.4306795120239258
0.4892915725708007,0.4306795120239258
0.5075489044189453,0.4431003570556640
0.5075489044189453,0.4431003570556640
0.4963096618652343,0.4505149841308593
0.4963096618652343,0.4505149841308593
0.5013576507568359,0.4311710357666015
0.5013576507568359,0.4311710357666015
0.5158081054687500,0.4559028625488281
0.5158081054687500,0.4559028625488281
0.4845148086547851,0.4337425231933594
0.4845148086547851,0.4337425231933594
0.5170686721801757,0.4469055175781250
0.5170686721801757,0.4469055175781250
0.4998573303222656,0.4558553695678711
0.4998573303222656,0.4558553695678711
0.5035182952880859,0.4368312835693359
0.5035182952880859,0.4368312835693359
0.5138860702514648,0.4637592315673828
0.5138860702514648,0.4637592315673828
0.4964761734008789,0.4423015594482422
0.4964761734008789,0.4423015594482422
0.5243202209472656,0.4568212509155273
0.5243202209472656,0.4568212509155273
0.5052303314208985,0.4663553237915039
0.5052303314208985,0.4663553237915039
0.5033643722534179,0.4487445831298828
0.5033643722534179,0.4487445831298828
0.5273386001586914,0.4747077941894531
0.5273386001586914,0.4747077941894531
0.5029912948608398,0.4527563095092773
0.5029912948608398,0.4527563095092773
0.5278289794921874,0.4652297973632812
0.5278289794921874,0.4652297973632812
0.5032928466796874,0.4740737915039062
0.5032928466796874,0.4740737915039062
0.5140789031982421,0.4544511795043945
0.5140789031982421,0.4544511795043945
0.5315820693969726,0.4788522720336914
0.5315820693969726,0.4788522720336914
0.5039056777954102,0.4553529739379882
0.5039056777954102,0.4553529739379882
0.5222179412841796,0.4674642562866211
0.5222179412841796,0.4674642562866211
0.5108768463134765,0.4748525619506836
0.5108768463134765,0.4748525619506836
0.5148479461669921,0.4551263809204101
0.5148479461669921,0.4551263809204101
0.5300376892089843,0.4788728713989258
0.5300376892089843,0.4788728713989258
0.4980485916137695,0.4567171096801758
0.4980485916137695,0.4567171096801758
0.5306018829345703,0.4695676803588867
0.5306018829345703,0.4695676803588867
0.5140365600585938,0.4775499343872070
0.5140365600585938,0.4775499343872070
0.5162538528442383,0.4585470199584961
0.5162538528442383,0.4585470199584961
0.5258039474487305,0.4839448928833008
0.5258039474487305,0.4839448928833008
0.5080381393432617,0.4615968704223632
0.5080381393432617,0.4615968704223632
0.5339515686035156,0.4748165130615234
0.5339515686035156,0.4748165130615234
0.5151128768920898,0.4822288513183594
0.5151128768920898,0.4822288513183594
0.5126335144042968,0.4642496109008789
0.5126335144042968,0.4642496109008789
0.5361379623413086,0.4893922805786133
0.5361379623413086,0.4893922805786133
0.5125642776489258,0.4667970657348632
0.5125642776489258,0.4667970657348632
0.5362861633300781,0.4797140121459961
0.5362861633300781,0.4797140121459961
0.5108945846557617,0.4877185821533203
0.5108945846557617,0.4877185821533203
0.5191274642944336,0.4767242431640625
0.5191274642944336,0.4808389663696289
0.5324844360351563,0.4730449676513672
0.5324844360351563,0.4730449676513672
0.5326532363891602,0.4962736129760742
0.5326532363891602,0.4962736129760742
0.5178079605102539,0.4702543258666992
0.5178079605102539,0.4702543258666992
0.5481170654296875,0.4950971603393555
0.5481170654296875,0.4950971603393555
0.5169010162353516,0.4834218978881836
0.5169010162353516,0.4834218978881836
0.5360664367675781,0.4809528350830078
0.5360664367675781,0.4809528350830078
0.5359668731689453,0.5028848648071289
0.5359668731689453,0.5028848648071289
0.5266016006469726,0.4760347366333008
0.5266016006469726,0.4760347366333008
0.5451805114746093,0.4946359634399414
0.5451805114746093,0.4946359634399414
0.5145343780517578,0.4796602249145507
0.5145343780517578,0.4796602249145507
0.5274364471435546,0.4627384185791015
0.5274364471435546,0.4627384185791015
0.5267778396606445,0.4749647140502929
0.5267778396606445,0.4749647140502929
0.5010189056396485,0.4368026733398437
0.5010189056396485,0.4368026733398437
0.5231758117675781,0.4581659317016601
0.5231758117675781,0.4581659317016601
0.4936712265014648,0.4461690902709961
0.4936712265014648,0.4461690902709961
0.5175024032592773,0.4395870208740234
0.5175024032592773,0.4395870208740234
0.5119302749633788,0.4577917098999023
0.5119302749633788,0.4577917098999023
0.4958061218261718,0.4309867858886718
0.4958061218261718,0.4309867858886718
0.5211215972900390,0.4552568435668945
0.5211215972900390,0.4552568435668945
0.4994304656982422,0.4476179122924804
0.4994304656982422,0.4476179122924804
0.5140554428100585,0.4394187927246094
0.5140554428100585,0.4394187927246094
0.5143558502197265,0.4637460708618164
0.5143558502197265,0.4637460708618164
0.4992422103881836,0.4371070861816406
0.4992422103881836,0.4371070861816406
0.5308044433593749,0.4634170532226562
0.5308044433593749,0.4634170532226562
0.4989641189575195,0.4524702072143554
0.4989641189575195,0.4524702072143554
0.5196350097656249,0.4507907867431640
0.5196350097656249,0.4507907867431640
0.5196533203125000,0.4736452102661133
0.5196533203125000,0.4736452102661133
0.5113443374633789,0.4487377166748047
0.5113443374633789,0.4487377166748047
0.5315895080566406,0.4713764190673828
0.5315895080566406,0.4713764190673828
0.5048503875732422,0.4644006729125976
0.5048503875732422,0.4644006729125976
0.5247940063476563,0.4604312896728515
0.5247940063476563,0.4604312896728515
0.5301074981689453,0.4826591491699219
0.5301074981689453,0.4826591491699219
0.5096649169921875,0.4516222000122070
0.5083642959594726,0.4516222000122070
0.5347246170043946,0.4776947021484375
0.5347246170043946,0.4776947021484375
0.5061326980590820,0.4670860290527343
0.5061326980590820,0.4670860290527343
0.5316896438598633,0.4624723434448242
0.5316896438598633,0.4624723434448242
0.5252317428588867,0.4802181243896484
0.5252317428588867,0.4802181243896484
0.5098337173461914,0.4535436630249023
0.5098337173461914,0.4535436630249023
0.5342222213745117,0.4777639389038086
0.5342222213745117,0.4777639389038086
0.5122747421264648,0.4683832168579101
0.5122747421264648,0.4683832168579101
0.5269815444946289,0.4608776092529296
0.5269815444946289,0.4608776092529296
0.5260597229003906,0.4835597991943359
0.5260597229003906,0.4835597991943359
0.5114925384521484,0.4567205429077148
0.5114925384521484,0.4567205429077148
0.5414760589599609,0.4819896697998047
0.5414760589599609,0.4819896697998047
0.5098468780517578,0.4696792602539062
0.5098468780517578,0.4696792602539062
0.5293796539306640,0.4676445007324219
0.5293796539306640,0.4676445007324219
0.5286134719848633,0.4886409759521484
0.5286134719848633,0.4886409759521484
0.5205322265625000,0.4638387680053710
0.5205322265625000,0.4638387680053710
0.5389492034912109,0.4842876434326172
0.5389492034912109,0.4842876434326172
0.5131416320800781,0.4773845672607422
0.5356842041015625,0.4773845672607422
0.5319036483764649,0.4731033325195312
0.5319036483764649,0.4731033325195312
0.5374174118041992,0.4948110580444336
0.5427635192871093,0.4948110580444336
0.5178520202636718,0.4657407760620117
0.5178520202636718,0.4657407760620117
0.5416608810424804,0.4909046173095703
0.5416608810424804,0.4909046173095703
0.5151809692382813,0.4820383071899414
0.5151809692382813,0.4820383071899414
0.5402755737304688,0.4787738800048828
0.5402755737304688,0.4787738800048828
0.5344173431396484,0.4963874816894531
0.5344173431396484,0.4963874816894531
0.5202392578125000,0.4723125457763672
0.5202392578125000,0.4723125457763672
0.5439966201782226,0.4959182739257812
0.5439966201782226,0.4959182739257812
0.5239711761474609,0.4881494522094726
0.5239711761474609,0.4881494522094726
0.5379650115966796,0.4810581207275391
0.5379650115966796,0.4810581207275391
0.5372903823852538,0.5033952713012695
0.5372903823852538,0.5033952713012695
0.5220010757446288,0.4748662948608398
0.5220010757446288,0.4748662948608398
0.5493278503417969,0.4930492401123047
0.5493278503417969,0.4930492401123047
0.5116298675537109,0.4698818206787109
0.5116298675537109,0.4698818206787109
0.5243877410888672,0.4561265945434570
0.5243877410888672,0.4561265945434570
0.5179944992065429,0.4687437057495117
0.5179944992065429,0.4687437057495117
0.5061092376708984,0.4378383636474609
0.5061092376708984,0.4378383636474609
0.5227684020996094,0.4549283981323242
0.5227684020996094,0.4549283981323242
0.4945770263671875,0.4449909210205078
0.4945770263671875,0.4449909210205078
0.5132286071777343,0.4395933151245117
0.5132286071777343,0.4395933151245117
0.5175161361694336,0.4604581832885742
0.5175161361694336,0.4604581832885742
0.4979530334472656,0.4304082870483398
0.4979530334472656,0.4304082870483398
0.5222557067871093,0.4561660766601562
0.5222557067871093,0.4561660766601562
0.4952316284179688,0.4468431472778320
0.4952316284179688,0.4468431472778320
0.5212978363037110,0.4442676544189453
0.5212978363037110,0.4442676544189453
0.5154550552368163,0.4625862121582031
0.5154550552368163,0.4625862121582031
0.5018629074096680,0.4388477325439453
0.5018629074096680,0.4388477325439453
0.5263910293579102,0.4639749526977539
0.5263910293579102,0.4639749526977539
0.5064096450805664,0.4568241119384766
0.5064096450805664,0.4568241119384766
0.5214757919311523,0.4514104843139648
0.5214757919311523,0.4514104843139648
0.5213979721069336,0.4751638412475586
0.5213979721069336,0.4751638412475586
0.5081800460815430,0.4504709243774414
0.5081800460815430,0.4504709243774414
0.5385658264160156,0.4759300231933594
0.5385658264160156,0.4759300231933594
0.5073989868164063,0.4644721984863281
0.5073989868164063,0.4644721984863281
0.5269186019897460,0.4627521514892578
0.5269186019897460,0.4627521514892578
0.5256477355957031,0.4833446502685547
0.5256477355957031,0.4833446502685547
0.5179561614990235,0.4580097198486328
0.5179561614990235,0.4580097198486328
0.5361190795898437,0.4777399063110351
0.5361190795898437,0.4777399063110351
0.5093994140625000,0.4698263168334961
0.5093994140625000,0.4698263168334961
0.5282192230224609,0.4652492523193359
0.5282192230224609,0.4652492523193359
0.5328002929687500,0.4858354568481445
0.5328002929687500,0.4858354568481445
0.5134243011474610,0.4562210083007812
0.5134243011474610,0.4562210083007812
0.5367650985717773,0.4808567047119141
0.5367650985717773,0.4808567047119141
0.5099864959716797,0.4711835861206055
0.5099864959716797,0.4711835861206055
0.5353002548217773,0.4679712295532226
0.5353002548217773,0.4679712295532226
0.5286123275756835,0.4849405288696289
0.5286123275756835,0.4849405288696289
0.5150413513183594,0.4607122421264648
0.5150413513183594,0.4607122421264648
0.5387683868408203,0.4842538833618164
0.5387683868408203,0.4842538833618164
0.5183486938476562,0.4761131286621094
0.5183486938476562,0.4761131286621094
0.5326829910278320,0.4695831298828125
0.5326829910278320,0.4695831298828125
0.5314052581787109,0.4919231414794922
0.5314052581787109,0.4919231414794922
0.5176631927490234,0.4664005279541015
0.5176631927490234,0.4664005279541015
0.5473915100097656,0.4908210754394531
0.5473915100097656,0.4908210754394531
0.5157966613769531,0.4785593032836914
0.5157966613769531,0.4785593032836914
0.5356344223022461,0.4769382476806641
0.5356344223022461,0.4769382476806641
0.5340906143188476,0.4972640991210937
0.5340906143188476,0.4972640991210937
0.5268693923950195,0.4724367141723633
0.5268693923950195,0.4724367141723633
0.5451507568359375,0.4929908752441406
0.5451507568359375,0.4929908752441406
0.5189506530761718,0.4855413436889648
0.5189506530761718,0.4855413436889648
0.5383335113525390,0.4822597503662109
0.5383335113525390,0.4822597503662109
0.5430215835571289,0.5033689498901367
0.5430215835571289,0.5033689498901367
0.5243757247924804,0.4744932174682617
0.5243757247924804,0.4744932174682617
0.5479362487792968,0.4999322891235352
0.5479362487792968,0.4999322891235352
0.5213773727416992,0.4909664154052734
0.5213773727416992,0.4909664154052734
0.5468090057373046,0.4882947921752929
0.5468090057373046,0.4882947921752929
0.5393754959106445,0.5050226211547851
0.5393754959106445,0.5050226211547851
0.5248958587646484,0.4791646957397461
0.5248958587646484,0.4791646957397461
0.5454368591308594,0.4971645355224609
0.5454368591308594,0.4971645355224609
0.5192419052124023,0.4778263092041015
0.5192419052124023,0.4778263092041015
0.5258834838867187,0.4580492019653320
0.5258834838867187,0.4580492019653320
0.5177387237548828,0.4700923919677734
0.5177387237548828,0.4700923919677734
0.5001886367797851,0.4376735687255859
0.5001886367797851,0.4376735687255859
0.5268957138061523,0.4578929901123047
0.5268957138061523,0.4578929901123047
0.4935527801513672,0.4428794860839844
0.4935527801513672,0.4428794860839844
0.5124807357788086,0.4398101806640625
0.5124807357788086,0.4398101806640625
0.5101490020751953,0.4591472625732422
0.5101490020751953,0.4591472625732422
0.5030490875244140,0.4334192276000977
0.5030490875244140,0.4334192276000977
0.5211633682250977,0.4538949966430664
0.5211633682250977,0.4538949966430664
0.4948574066162109,0.4465764999389648
0.4948574066162109,0.4465764999389648
0.5149435043334961,0.4436010360717773
0.5149435043334961,0.4436010360717773
0.5195589065551758,0.4653882980346680
0.5195589065551758,0.4653882980346680
0.5017084121704102,0.4371128082275391
0.5017084121704102,0.4371128082275391
0.5257862091064452,0.4637317657470703
0.5141538619995117,0.4637317657470703
0.4995769500732422,0.4554868698120117
0.4995769500732422,0.4554868698120117
0.5265787124633788,0.4542079925537109
0.5265787124633788,0.4542079925537109
0.5196115493774414,0.4722255706787109
0.5196115493774414,0.4722255706787109
0.5071002960205078,0.4488607406616211
0.5071002960205078,0.4488607406616211
0.5308725357055664,0.4728967666625976
0.5308725357055664,0.4728967666625976
0.5104928970336914,0.4645254135131835
0.5104928970336914,0.4645254135131835
0.5249227523803711,0.4577722549438477
0.5249227523803711,0.4577722549438477
0.5222991943359375,0.4791629791259766
0.5222991943359375,0.4791629791259766
0.5090972900390625,0.4523998260498047
0.5090972900390625,0.4523998260498047
0.5386899948120117,0.4763116836547852
0.5386899948120117,0.4763116836547852
0.5057641983032226,0.4627418518066406
0.5057641983032226,0.4627418518066406
0.5258176803588867,0.4609067916870117
0.5258176803588867,0.4609067916870117
0.5232496261596680,0.4807004928588867
0.5232496261596680,0.4807004928588867
0.5174417495727539,0.4555841445922851
0.5174417495727539,0.4555841445922851
0.5189025878906249,0.4585985183715820
0.5189025878906249,0.4585985183715820
0.5243963241577149,0.4841068267822266
0.5226253509521485,0.4841068267822266
0.5101655960083008,0.4614910125732422
0.5101655960083008,0.4614910125732422
0.5363594055175781,0.4748428344726562
0.5363594055175781,0.4748428344726562
0.5151832580566406,0.4809202194213867
0.5151832580566406,0.4809202194213867
0.5129110336303710,0.4649717330932617
0.5129110336303710,0.4649717330932617
0.5370351791381835,0.4901659011840820
0.5419481277465820,0.4901659011840820
0.5157428741455078,0.4679088592529297
0.5157428741455078,0.4679088592529297
0.5392078399658203,0.4811279296875000
0.5392078399658203,0.4811279296875000
0.5088157653808594,0.4881471633911132
0.5088157653808594,0.4881471633911132
0.5254217147827148,0.4703184127807617
0.5254217147827148,0.4703184127807617
0.5399648666381835,0.4954513549804687
0.5399648666381835,0.4954513549804687
0.5159614562988281,0.4716871261596680
0.5159614562988281,0.4716871261596680
0.5323665618896484,0.4862468719482422
0.5323665618896484,0.4862468719482422
0.5208538055419921,0.4925788879394531
0.5208538055419921,0.4925788879394531
0.5307386398315429,0.4754596710205078
0.5307386398315429,0.4754596710205078
0.5429609298706054,0.5006927490234375
0.5429609298706054,0.5006927490234375
0.5106262207031250,0.4781490325927734
0.5106262207031250,0.4781490325927734
0.5452405929565429,0.4912307739257812
0.5452405929565429,0.4912307739257812
0.5243940353393555,0.4977310180664062
0.5243940353393555,0.4977310180664062
0.5312393188476562,0.4794124603271484
0.5312393188476562,0.4794124603271484
0.5366878509521484,0.5059684753417969
0.5366878509521484,0.5059684753417969
0.5218683242797851,0.4825349807739258
0.5218683242797851,0.4825349807739258
0.5490766525268554,0.4947835922241210
0.5490766525268554,0.4947835922241210
0.5235477447509765,0.4962867736816406
0.5235477447509765,0.4962867736816406
0.5175493240356445,0.4686744689941406
0.5175493240356445,0.4686744689941406
0.5334709167480468,0.4809516906738281
0.5334709167480468,0.4809516906738281
0.5035354614257812,0.4471944808959961
0.5035354614257812,0.4471944808959961
0.5250062942504883,0.4533668518066406
0.5250062942504883,0.4533668518066406
0.4909463882446289,0.4558908462524414
0.4909463882446289,0.4558908462524414
0.5060874938964843,0.4348091125488281
0.5060874938964843,0.4348091125488281
0.5208869934082031,0.4595397949218750
0.5208869934082031,0.4595397949218750
0.4938320159912109,0.4340274810791016
0.4938320159912109,0.4340274810791016
0.5120756149291992,0.4482484817504883
0.5120756149291992,0.4482484817504883
0.4978494644165039,0.4538852691650390
0.4978494644165039,0.4538852691650390
0.5069469451904297,0.4360336303710937
0.5069469451904297,0.4360336303710937
0.5204687118530273,0.4615253448486328
0.5204687118530273,0.4615253448486328
0.4881797790527344,0.4394582748413086
0.4881797790527344,0.4394582748413086
0.5238813400268555,0.4539751052856445
0.5238813400268555,0.4539751052856445
0.5042547225952149,0.4610429763793945
0.5042547225952149,0.4610429763793945
0.5108848571777344,0.4446092605590820
0.5108848571777344,0.4446092605590820
0.5166275024414062,0.4722770690917968
0.5166275024414062,0.4722770690917968
0.5026611328125000,0.4501791000366211
0.5026611328125000,0.4501791000366211
0.5300216674804688,0.4650529861450195
0.5300216674804688,0.4650529861450195
0.5079196929931641,0.4716327667236328
0.5079196929931641,0.4716327667236328
0.5078104019165038,0.4555892944335938
0.5078104019165038,0.4555892944335938
0.5307609558105468,0.4817831039428710
0.5307609558105468,0.4817831039428710
0.5091190338134766,0.4585830688476562
0.5091190338134766,0.4585830688476562
0.5335321426391602,0.4719108581542968
0.5335321426391602,0.4719108581542968
0.5038318634033203,0.4778194427490234
0.5038318634033203,0.4778194427490234
0.5196390151977539,0.4593166351318359
0.5196390151977539,0.4593166351318359
0.5332580566406250,0.4846761703491211
0.5332580566406250,0.4846761703491211
0.5088220596313476,0.4595958709716796
0.5088220596313476,0.4595958709716796
0.5281940460205078,0.4734849929809570
0.5281940460205078,0.4734849929809570
0.5123205184936523,0.4790811538696289
0.5123205184936523,0.4790811538696289
0.5220674514770508,0.4612037658691406
0.5220674514770508,0.4612037658691406
0.5340099334716797,0.4869077682495117
0.5332426071166992,0.4869077682495117
0.5040092468261719,0.4635240554809570
0.5040092468261719,0.4635240554809570
0.5369579315185546,0.4775024414062500
0.5369579315185546,0.4775024414062500
0.5151226043701171,0.4837652206420898
0.5151226043701171,0.4837652206420898
0.5237926483154297,0.4660715103149414
0.5237926483154297,0.4660715103149414
0.5314247131347656,0.4932323455810547
0.5314247131347656,0.4932323455810547
0.5147100448608398,0.4700328826904296
0.5147100448608398,0.4700328826904296
0.5424631118774413,0.4844055175781250
0.5424631118774413,0.4844055175781250
0.5188888549804688,0.4902414321899414
0.5188888549804688,0.4902414321899414
0.5214460372924804,0.4731096267700195
0.5214460372924804,0.4731096267700195
0.5414005279541015,0.4989824295043945
0.5414005279541015,0.4989824295043945
0.5179361343383789,0.4753217697143555
0.5179361343383789,0.4753217697143555
0.5440097808837890,0.4884407043457031
0.5440097808837890,0.4884407043457031
0.5150648117065429,0.4952053070068359
0.5150648117065429,0.4952053070068359
0.5308387756347656,0.4777193069458008
0.5308387756347656,0.4777193069458008
0.5457910537719727,0.5035480499267578
0.5457910537719727,0.5035480499267578
0.5208658218383789,0.4802524566650390
0.5208658218383789,0.4802524566650390
0.5395792007446288,0.4940980911254882
0.5395792007446288,0.4940980911254882
0.5248477935791015,0.4998167037963867
0.5248477935791015,0.4998167037963867
0.5339155197143555,0.4822711944580078
0.5339155197143555,0.4822711944580078
0.5462957382202148,0.5062791824340820
0.5462957382202148,0.5062791824340820
0.5139827728271484,0.4807102203369140
0.5139827728271484,0.4807102203369140
0.5437025070190430,0.4854343414306641
0.5437025070190430,0.4854343414306641
0.5165096282958984,0.4787040710449219
0.5165096282958984,0.4787040710449219
0.5165067672729492,0.4499908447265625
0.5165067672729492,0.4499908447265625
0.5167579650878906,0.4683179855346680
0.5167579650878906,0.4683179855346680
0.4981933593750000,0.4397907257080078
0.4981933593750000,0.4397907257080078
0.5224897384643554,0.4501922607421875
0.5224897384643554,0.4501922607421875
0.4984159469604492,0.4530858993530273
0.4984159469604492,0.4530858993530273
0.4992536544799804,0.4354877471923828
0.4992536544799804,0.4354877471923828
0.5197093963623046,0.4606372833251953
0.5197093963623046,0.4606372833251953
0.4979284286499023,0.4370962142944336
0.4979284286499023,0.4370962142944336
0.5223747253417969,0.4506534576416015
0.5223747253417969,0.4506534576416015
0.4925176620483398,0.4569414138793945
0.4925176620483398,0.4569414138793945
0.5098085403442383,0.4401660919189453
0.5098085403442383,0.4401660919189453
0.5236793518066406,0.4666894912719726
0.5236793518066406,0.4666894912719726
0.5005777359008788,0.4437372207641602
0.5005777359008788,0.4437372207641602
0.5194816589355469,0.4599248886108398
0.5194816589355469,0.4599248886108398
0.5061487197875977,0.4668886184692382
0.5061487197875977,0.4668886184692382
0.5180580139160156,0.4511964797973633
0.5180580139160156,0.4511964797973633
0.5296051025390625,0.4784225463867187
0.5298557281494141,0.4784225463867187
0.4990533828735351,0.4562496185302734
0.4990533828735351,0.4562496185302734
0.5340288162231445,0.4706399917602539
0.5340288162231445,0.4706399917602539
0.5121219635009765,0.4763671875000000
0.5121219635009765,0.4763671875000000
0.5208909988403320,0.4580783843994141
0.5208909988403320,0.4580783843994141
0.5247407913208008,0.4841463088989257
0.5247407913208008,0.4841463088989257
0.5099773406982422,0.4597658157348632
0.5099773406982422,0.4597658157348632
0.5372102737426757,0.4728996276855468
0.5372102737426757,0.4728996276855468
0.5122953414916992,0.4772335052490234
0.5122953414916992,0.4772335052490234
0.5129144668579101,0.4592016220092773
0.5129144668579101,0.4592016220092773
0.5334411621093750,0.4842023849487305
0.5334411621093750,0.4842023849487305
0.5104665756225586,0.4600782394409180
0.5104665756225586,0.4600782394409180
0.5358129501342773,0.4730243682861328
0.5180339813232422,0.4730243682861328
0.5047531127929688,0.4792945861816406
0.5047531127929688,0.4792945861816406
0.5228902816772460,0.4618686676025390
0.5228902816772460,0.4618686676025390
0.5372646331787109,0.4881219863891602
0.5372646331787109,0.4881219863891602
0.5125139236450195,0.4644538879394531
0.5125139236450195,0.4644538879394531
0.5301263809204101,0.4792699813842773
0.5301263809204101,0.4792699813842773
0.5165462493896484,0.4849473953247070
0.5165462493896484,0.4849473953247070
0.5269060134887695,0.4679889678955078
0.5269060134887695,0.4679889678955078
0.5387615203857422,0.4934429168701172
0.5387615203857422,0.4934429168701172
0.5069595336914062,0.4708568572998046
0.5069595336914062,0.4708568572998046
0.5424556732177734,0.4852540969848633
0.5424556732177734,0.4852540969848633
0.5216457366943359,0.4908102035522461
0.5216457366943359,0.4908102035522461
0.5294900894165039,0.4734792709350586
0.5294900894165039,0.4734792709350586
0.5326623916625977,0.4999380111694336
0.5326623916625977,0.4999380111694336
0.5190376281738281,0.4757978439331054
0.5190376281738281,0.4757978439331054
0.5457304000854492,0.4904331207275390
0.5457304000854492,0.4904331207275390
0.5224611282348632,0.4949003219604492
0.5224611282348632,0.4949003219604492
0.5232095718383789,0.4788791656494140
0.5232095718383789,0.4788791656494140
0.5448612213134766,0.5051090240478515
0.5448612213134766,0.5051090240478515
0.5239248275756836,0.4812881469726562
0.5239248275756836,0.4812881469726562
0.5482852935791015,0.4959199905395508
0.5482852935791015,0.4959199905395508
0.5163557052612304,0.5012786865234374
0.5163557052612304,0.5012786865234374
0.5351823806762696,0.4829200744628906
0.5351823806762696,0.4829200744628906
0.5460720062255859,0.5053333282470703
0.5460720062255859,0.5053333282470703
0.5179138183593750,0.4704786300659179
0.5179138183593750,0.4704786300659179
0.5281522750854492,0.4727193832397460
0.5281522750854492,0.4727193832397460
0.5072158813476563,0.4667787551879883
0.5072158813476563,0.4667787551879883
0.5144353866577148,0.4422054290771484
0.5144353866577148,0.4422054290771484
0.5212875366210937,0.4636413574218750
0.5212875366210937,0.4636413574218750
0.4877981185913086,0.4368215560913086
0.4877981185913086,0.4368215560913086
0.5219341278076172,0.4495302200317383
0.5219341278076172,0.4495302200317383
0.4988050460815430,0.4537336349487304
0.4988050460815430,0.4537336349487304
0.5082664489746094,0.4351518630981445
0.5082664489746094,0.4351518630981445
0.5114484786987304,0.4623807907104492
0.5114484786987304,0.4623807907104492
0.4975902557373046,0.4385341644287109
0.4975902557373046,0.4385341644287109
0.5262611389160156,0.4538635253906250
0.5262611389160156,0.4538635253906250
0.5015619277954101,0.4593589782714844
0.5015619277954101,0.4593589782714844
0.5036361694335937,0.4434322357177734
0.5036361694335937,0.4434322357177734
0.5252340316772460,0.4710851669311523
0.5252340316772460,0.4710851669311523
0.5036996841430664,0.4484676361083984
0.5036996841430664,0.4484676361083984
0.5304645538330078,0.4641889572143554
0.5304645538330078,0.4641889572143554
0.4995443344116210,0.4715801239013672
0.4995443344116210,0.4715801239013672
0.5130031585693359,0.4639560699462890
0.5288583755493164,0.4639560699462890
0.5301744461059570,0.4618062973022461
0.5301744461059570,0.4618062973022461
0.5239379882812499,0.4835826873779296
0.5239379882812499,0.4835826873779296
0.5137321472167968,0.4552711486816406
0.5137321472167968,0.4552711486816406
0.5436103820800781,0.4810626983642578
0.5436103820800781,0.4810626983642578
0.5090578079223632,0.4645448684692383
0.5090578079223632,0.4645448684692383
0.5310527801513671,0.4650638580322266
0.5310527801513671,0.4650638580322266
0.5236318588256835,0.4833829879760742
0.5236318588256835,0.4833829879760742
0.5200584411621093,0.4543813705444336
0.5200584411621093,0.4543813705444336
0.5369510650634766,0.4772912979125976
0.5369510650634766,0.4772912979125976
0.5083889007568360,0.4651325225830078
0.5083889007568360,0.4651325225830078
0.5302848815917969,0.4647880554199219
0.5302848815917969,0.4647880554199219
0.5302076339721680,0.4841211318969726
0.5302076339721680,0.4841211318969726
0.5146144866943360,0.4533948898315430
0.5146144866943360,0.4533948898315430
0.5382940292358398,0.4818494796752930
0.5382940292358398,0.4818494796752930
0.5099121093750000,0.4686967849731445
0.5099121093750000,0.4686967849731445
0.5393234252929687,0.4694263458251953
0.5393234252929687,0.4694263458251953
0.5271961212158203,0.4868740081787109
0.5271961212158203,0.4868740081787109
0.5179389953613281,0.4611013412475586
0.5179389953613281,0.4611013412475586
0.5409210205078124,0.4880538940429687
0.5409210205078124,0.4880538940429687
0.5197174072265625,0.4750556945800781
0.5197174072265625,0.4750556945800781
0.5368114471435547,0.4731863021850586
0.5368114471435547,0.4731863021850586
0.5303581237792968,0.4947023391723633
0.5303581237792968,0.4947023391723633
0.5208898544311523,0.4670316696166992
0.5208898544311523,0.4670316696166992
0.5508670806884766,0.4941347122192383
0.5508670806884766,0.4941347122192383
0.5171121597290039,0.4780912399291992
0.5171121597290039,0.4780912399291992
0.5398075103759765,0.4807891845703125
0.5398075103759765,0.4807891845703125
0.5327030181884765,0.5004627227783203
0.5327030181884765,0.5004627227783203
0.5303638458251952,0.4729780197143554
0.5303638458251952,0.4729780197143554
0.5476678848266602,0.4971977233886719
0.5476678848266602,0.4971977233886719
0.5199708938598633,0.4852706909179687
0.5199708938598633,0.4852706909179687
0.5423738479614257,0.4858554840087890
0.5423738479614257,0.4858554840087890
0.5414606094360351,0.5039514541625977
0.5414606094360351,0.5039514541625977
0.5244243621826171,0.4683935165405273
0.5244243621826171,0.4683935165405273
0.5421031951904297,0.4865266799926757
0.5421031951904297,0.4865266799926757
0.5065698623657227,0.4598876953125000
0.5065698623657227,0.4598876953125000
0.5298013687133789,0.4516033172607422
0.5298013687133789,0.4516033172607422
0.5127925872802734,0.4621650695800781
0.5127925872802734,0.4621650695800781
0.5013856887817383,0.4319766998291015
0.5013856887817383,0.4319766998291015
0.5224119186401367,0.4562364578247070
0.5224119186401367,0.4562364578247070
0.4997978210449219,0.4405826568603515
0.4997978210449219,0.4405826568603515
0.5167448043823242,0.4384986877441406
0.5167448043823242,0.4384986877441406
0.5092443466186524,0.4591655731201172
0.5092443466186524,0.4591655731201172
0.5001543045043945,0.4311956405639648
0.5001543045043945,0.4311956405639648
0.5297046661376953,0.4586517333984375
0.5297046661376953,0.4586517333984375
0.4960664749145507,0.4416784286499023
0.4960664749145507,0.4416784286499023
0.5199399948120117,0.4457199096679688
0.5199399948120117,0.4457199096679688
0.5125751495361328,0.4657934188842773
0.5125751495361328,0.4657934188842773
0.5111709594726562,0.4392951965332031
0.5111709594726562,0.4392951965332031
0.5294088363647461,0.4656761169433594
0.5294088363647461,0.4656761169433594
0.5019338607788085,0.4536558151245117
0.5019338607788085,0.4536558151245117
0.5259384155273438,0.4572040557861328
0.5259384155273438,0.4572040557861328
0.5255533218383789,0.4779155731201172
0.5255533218383789,0.4779155731201172
0.5121786117553710,0.4488801956176758
0.5121786117553710,0.4488801956176758
0.5356040954589844,0.4783922195434570
0.5356040954589844,0.4783922195434570
0.5073566436767578,0.4633535385131836
0.5073566436767578,0.4633535385131836
0.5370157241821288,0.4655965805053711
0.5370157241821288,0.4655965805053711
0.5235248565673828,0.4815359115600586
0.5235248565673828,0.4815359115600586
0.5150012969970703,0.4555286407470703
0.5150012969970703,0.4555286407470703
0.5367748260498046,0.4812881469726562
0.5367748260498046,0.4812881469726562
0.5150310516357421,0.4652578353881835
0.5150310516357421,0.4652578353881835
0.5314979553222656,0.4639348983764648
0.5118507385253906,0.4639348983764648
0.5236009597778321,0.4835529327392578
0.5236009597778321,0.4835529327392578
0.5146631240844727,0.4557231903076172
0.5146631240844727,0.4557231903076172
0.5433883666992188,0.4821390151977539
0.5433883666992188,0.4821390151977539
0.5100156784057617,0.4641414642333984
0.5100156784057617,0.4641414642333984
0.5328466415405273,0.4680559158325195
0.5328466415405273,0.4680559158325195
0.5248626708984375,0.4867635726928711
0.5248626708984375,0.4867635726928711
0.5233509063720703,0.4600090026855468
0.5233509063720703,0.4600090026855468
0.5398281097412109,0.4842830657958984
0.5398281097412109,0.4842830657958984
0.5127462387084961,0.4708431243896484
0.5127462387084961,0.4708431243896484
0.5352275848388671,0.4732950210571289
0.5352275848388671,0.4732950210571289
0.5339103698730469,0.4920856475830078
0.5339103698730469,0.4920856475830078
0.5204080581665039,0.4629884719848633
0.5204080581665039,0.4629884719848633
0.5427864074707031,0.4913234710693359
0.5427864074707031,0.4913234710693359
0.5150882720947265,0.4758785247802734
0.5150882720947265,0.4758785247802734
0.5443634033203125,0.4785472869873046
0.5443634033203125,0.4785472869873046
0.5307889938354492,0.4946382522583008
0.5307889938354492,0.4946382522583008
0.5232553482055664,0.4699052810668945
0.5232553482055664,0.4699052810668945
0.5451684951782226,0.4964910507202148
0.5451684951782226,0.4964910507202148
0.5244701385498046,0.4812114715576172
0.5244701385498046,0.4812114715576172
0.5416860580444336,0.4818243026733398
0.5416860580444336,0.4818243026733398
0.5338279724121093,0.5022085189819335
0.5338279724121093,0.5022085189819335
0.5259298324584961,0.4757474899291992
0.5259298324584961,0.4757474899291992
0.5543426513671875,0.5019515991210938
0.5543426513671875,0.5019515991210938
0.5202558517456054,0.4807737350463867
0.5202558517456054,0.4807737350463867
0.5392210006713867,0.4773044586181641
0.5392210006713867,0.4773044586181641
0.5245719909667969,0.4835391998291015
0.5245719909667969,0.4835391998291015
0.5162836074829101,0.4457153320312500
0.5162836074829101,0.4457153320312500
0.5274375915527344,0.4620889663696289
0.5274375915527344,0.4620889663696289
0.4967182159423828,0.4426242828369141
0.4967182159423828,0.4426242828369141
0.5171573638916015,0.4423719406127929
0.5171573638916015,0.4423719406127929
0.5141029357910156,0.4587501525878906
0.5141029357910156,0.4587501525878906
0.5004283905029296,0.4289503097534180
0.5004283905029296,0.4289503097534180
0.5221641540527343,0.4566644668579101
0.5221641540527343,0.4566644668579101
0.4944316864013671,0.4398794174194336
0.4944316864013671,0.4398794174194336
0.5241073608398438,0.4435592651367187
0.5241073608398438,0.4435592651367187
0.5104654312133788,0.4603145599365234
0.5104654312133788,0.4603145599365234
0.5032630920410156,0.4352846145629883
0.5032630920410156,0.4352846145629883
0.5260162353515625,0.4638181686401367
0.5260162353515625,0.4638181686401367
0.5045557022094727,0.4478696823120117
0.5045557022094727,0.4478696823120117
0.5238882064819336,0.4503393173217773
0.5238882064819336,0.4503393173217773
0.5164443969726562,0.4727451324462890
0.5164443969726562,0.4727451324462890
0.5089599609375000,0.4458440780639648
0.5089599609375000,0.4458440780639648
0.5394418716430663,0.4761325836181640
0.5394418716430663,0.4761325836181640
0.5052371978759765,0.4570518493652344
0.5052371978759765,0.4570518493652344
0.5301343917846679,0.4628877639770508
0.5301343917846679,0.4628877639770508
0.5216754913330078,0.4826900482177734
0.5216754913330078,0.4826900482177734
0.5199022293090820,0.4539419174194336
0.5199022293090820,0.4539419174194336
0.5372652053833008,0.4796333312988281
0.5372652053833008,0.4796333312988281
0.5075992584228516,0.4627601623535156
0.5075992584228516,0.4627601623535156
0.5313903808593750,0.4653430938720703
0.5110908508300781,0.4653430938720703
0.5292142868041992,0.4842441558837891
0.5292142868041992,0.4842441558837891
0.5146808624267578,0.4522985458374023
0.5146808624267578,0.4522985458374023
0.5374631881713867,0.4820743560791015
0.5374631881713867,0.4820743560791015
0.5073635101318359,0.4632957458496094
0.5073635101318359,0.4632957458496094
0.5384307861328125,0.4666454315185546
0.5384307861328125,0.4666454315185546
0.5238395690917969,0.4831094741821289
0.5238395690917969,0.4831094741821289
0.5155729293823242,0.4562599182128906
0.5155729293823242,0.4562599182128906
0.5383638381958008,0.4848787307739257
0.5383638381958008,0.4848787307739257
0.5159339904785156,0.4669338226318359
0.5159339904785156,0.4669338226318359
0.5346158981323242,0.4684953689575195
0.5346158981323242,0.4684953689575195
0.5262582778930663,0.4895387649536133
0.5262582778930663,0.4895387649536133
0.5182868957519531,0.4616191864013672
0.5182868957519531,0.4616191864013672
0.5480381011962890,0.4903312683105469
0.5480381011962890,0.4903312683105469
0.5127714157104492,0.4693931579589843
0.5127714157104492,0.4693931579589843
0.5374660491943359,0.4755643844604492
0.5374660491943359,0.4755643844604492
0.5285734176635742,0.4947229385375976
0.5285734176635742,0.4947229385375976
0.5277671813964844,0.4670087814331054
0.5277671813964844,0.4670087814331054
0.5449224472045898,0.4934389114379882
0.5449224472045898,0.4934389114379882
0.5157760620117188,0.4768581390380859
0.5157760620117188,0.4768581390380859
0.5402091979980469,0.4819061279296875
0.5402091979980469,0.4819061279296875
0.5386167526245117,0.5012941360473633
0.5386167526245117,0.5012941360473633
0.5253187179565429,0.4715091705322265
0.5253187179565429,0.4715091705322265
0.5484317779541016,0.5023389816284179
0.5484317779541016,0.5023389816284179
0.5191417694091797,0.4834934234619140
0.5191417694091797,0.4834934234619140
0.5506399154663085,0.4887966156005859
0.5506399154663085,0.4887966156005859
0.5350948333740234,0.5029878616333008
0.5350948333740234,0.5029878616333008
0.5254337310791015,0.4716602325439453
0.5254337310791015,0.4716602325439453
0.5419984817504883,0.4893470764160156
0.5419984817504883,0.4893470764160156
0.5125625610351562,0.4579456329345703
0.5125625610351562,0.4579456329345703
0.5251047134399414,0.4513017654418945
0.5251047134399414,0.4513017654418945
0.5122804641723633,0.4655015945434570
0.5122804641723633,0.4655015945434570
0.5024431228637695,0.4344142913818359
0.5024431228637695,0.4344142913818359
0.5298162460327148,0.4608335494995117
0.5298162460327148,0.4608335494995117
0.4944499969482422,0.4379447937011718
0.4944499969482422,0.4379447937011718
0.5187297821044922,0.4443597793579102
0.5187297821044922,0.4443597793579102
0.5092861175537109,0.4625896453857422
0.5092861175537109,0.4625896453857422
0.5092191696166992,0.4359357833862305
0.5092191696166992,0.4359357833862305
0.5127107620239257,0.4412973403930664
0.5127107620239257,0.4412973403930664
0.5174663543701171,0.4702594757080078
0.5228582382202148,0.4702594757080078
0.5022005081176758,0.4443054199218750
0.5022005081176758,0.4443054199218750
0.5322109222412109,0.4666139602661132
0.5322109222412109,0.4666139602661132
0.5064817428588867,0.4688095092773437
0.5064817428588867,0.4688095092773437
0.5109621047973633,0.4557191848754882
0.5109621047973633,0.4557191848754882
0.5303541183471679,0.4841920852661132
0.5303541183471679,0.4841920852661132
0.5106782913208008,0.4582506179809570
0.5106782913208008,0.4582506179809570
0.5379987716674804,0.4788419723510742
0.5379987716674804,0.4788419723510742
0.5038959503173828,0.4807640075683594
0.5038959503173828,0.4807640075683594
0.5259481430053711,0.4647251129150390
0.5259481430053711,0.4647251129150390
0.5369018554687500,0.4914556503295898
0.5369018554687500,0.4914556503295898
0.5127737045288085,0.4627521514892578
0.5127737045288085,0.4627521514892578
0.5302877426147461,0.4823656082153320
0.5302877426147461,0.4823656082153320
0.5142322540283203,0.4816188812255859
0.5449659347534179,0.4816188812255859
0.5263137817382812,0.4645008087158203
0.5263137817382812,0.4645008087158203
0.5345912933349609,0.4899450302124023
0.5387351989746093,0.4899450302124023
0.5251956939697265,0.4892166137695312
0.5398115158081055,0.4821407318115234
0.5398115158081055,0.4821407318115234
0.5409856796264648,0.4874238967895508
0.5409856796264648,0.4874238967895508
0.5262880325317383,0.4933874130249023
0.5262880325317383,0.4933874130249023
0.5338634490966797,0.4656497955322265
0.5338634490966797,0.4894626617431641
0.5425277709960937,0.4866308212280273
0.5425277709960937,0.4866308212280273
0.5171939849853515,0.4862829208374023
0.5422599792480468,0.4862829208374023
0.5200773239135742,0.4717689514160156
0.5200773239135742,0.4717689514160156
0.5390945434570312,0.4992519378662109
0.5390945434570312,0.4992519378662109
0.5198530197143555,0.4714410781860351
0.5198530197143555,0.4714410781860351
0.5452434539794921,0.4924638748168945
0.5452434539794921,0.4924638748168945
0.5106433868408203,0.4926795959472656
0.5106433868408203,0.4926795959472656
0.5329427719116211,0.4770452499389648
0.5329427719116211,0.4770452499389648
0.5422594070434570,0.5042570114135742
0.5422594070434570,0.5042570114135742
0.5205934524536132,0.4753915786743164
0.5205934524536132,0.4753915786743164
0.5384702682495117,0.4975164413452148
0.5384702682495117,0.4975164413452148
0.5230464935302734,0.4970598220825195
0.5230464935302734,0.4970598220825195
0.5380868911743164,0.4828313827514648
0.5380868911743164,0.4828313827514648
0.5438896179199219,0.5085948944091797
0.5438896179199219,0.5085948944091797
0.5145784378051758,0.4818214416503906
0.5145784378051758,0.4818214416503906
0.5505683898925781,0.5026119232177734
0.5505683898925781,0.5026119232177734
0.5261306762695312,0.5011425018310547
0.5261306762695312,0.5011425018310547
0.5376977920532227,0.4836593627929687
0.5376977920532227,0.4836593627929687
0.5321268081665039,0.5022966384887695
0.5321268081665039,0.5022966384887695
0.5157062530517578,0.4630382537841797
0.5157062530517578,0.4630382537841797
0.5363559722900391,0.4720075607299805
0.5363559722900391,0.4720075607299805
0.5039291381835938,0.4620775222778320
0.5039291381835938,0.4620775222778320
0.5041666030883789,0.4430351257324219
0.4884040832519531,0.4430351257324219
0.5187498092651367,0.4653224945068359
0.5187498092651367,0.4653224945068359
0.4982648849487304,0.4361726760864258
0.4982648849487304,0.4361726760864258
0.5232885360717773,0.4557231903076172
0.5232885360717773,0.4557231903076172
0.4895387649536133,0.4549827575683594
0.4895387649536133,0.4549827575683594
0.5121906280517577,0.4415582656860351
0.5121906280517577,0.4415582656860351
0.5218317031860351,0.4677669525146484
0.5248649597167968,0.4677669525146484
0.5008472442626953,0.4413591384887695
0.5008472442626953,0.4413591384887695
0.5187543869018555,0.4642982482910156
0.5187543869018555,0.4642982482910156
0.5044601440429687,0.4644996643066406
0.5044601440429687,0.4644996643066406
0.5193546295166015,0.4532609939575195
0.5193546295166015,0.4532609939575195
0.5274833679199219,0.4803754806518554
0.5274833679199219,0.4803754806518554
0.4999380111694336,0.4563182830810547
0.4999380111694336,0.4563182830810547
0.5368829727172851,0.4798490524291992
0.5368829727172851,0.4798490524291992
0.5152490615844726,0.4795515060424804
0.5152490615844726,0.4795515060424804
0.5271492004394531,0.4672279357910156
0.5271492004394531,0.4672279357910156
0.5252368927001952,0.4931327819824218
0.5252368927001952,0.4931327819824218
0.5152215957641602,0.4653316497802734
0.5152215957641602,0.4653316497802734
0.5411521911621093,0.4860013961791992
0.5411521911621093,0.4860013961791992
0.5153600692749023,0.4817293167114258
0.5153600692749023,0.4817293167114258
0.5185758590698242,0.4677354812622070
0.5185758590698242,0.4677354812622070
0.5340414047241211,0.4915803909301757
0.5441980361938477,0.4915803909301757
0.5159093856811523,0.4628253936767578
0.5159093856811523,0.4628253936767578
0.5391906738281250,0.4832410812377930
0.5391906738281250,0.4832410812377930
0.5049047470092773,0.4807130813598632
0.5049047470092773,0.4807130813598632
0.5274524688720703,0.4671724319458008
0.5274524688720703,0.4671724319458008
0.5347400665283203,0.4923385620117187
0.5347400665283203,0.4923385620117187
0.5151168823242187,0.4642250061035156
0.5151168823242187,0.4642250061035156
0.5317623138427734,0.4869455337524414
0.5317623138427734,0.4869455337524414
0.5170761108398437,0.4849508285522461
0.5170761108398437,0.4849508285522461
0.5324306488037109,0.4726484298706055
0.5324306488037109,0.4726484298706055
0.5373132705688476,0.4980113983154297
0.5373132705688476,0.4980113983154297
0.5089427947998046,0.4710187911987305
0.5089427947998046,0.4710187911987305
0.5447084426879882,0.4928873062133789
0.5447084426879882,0.4928873062133789
0.5205053329467774,0.4906997680664062
0.5205053329467774,0.4906997680664062
0.5333587646484375,0.4771465301513672
0.5333587646484375,0.4771465301513672
0.5307838439941406,0.5031887054443359
0.5307838439941406,0.5031887054443359
0.5213127136230469,0.4755146026611328
0.5213127136230469,0.4755146026611328
0.5491476058959961,0.4974266052246094
0.5491476058959961,0.4974266052246094
0.5225172042846680,0.4947200775146484
0.5225172042846680,0.4947200775146484
0.5265918731689453,0.4823741912841797
0.5265918731689453,0.4823741912841797
0.5427383422851563,0.5074848175048828
0.5427383422851563,0.5074848175048828
0.5242784500122070,0.4801912307739258
0.5242784500122070,0.4801912307739258
0.5496534347534180,0.5011413574218749
0.5342960357666016,0.5011413574218749
0.5158126831054687,0.4997623443603516
0.5158126831054687,0.4997623443603516
0.5388685226440429,0.4871046066284179
0.5299203872680663,0.4871046066284179
0.5468765258789062,0.5110782623291016
0.5493535995483398,0.5110782623291016
0.5245817184448242,0.4802158355712891
0.5245817184448242,0.4802158355712891
0.5361585617065430,0.4925216674804687
0.5361585617065430,0.4925216674804687
0.5146322250366211,0.4766761779785156
0.5146322250366211,0.4766761779785156
0.5208114624023438,0.4531248092651367
0.5208114624023438,0.4531248092651367
0.5215175628662109,0.4691030502319335
0.5215175628662109,0.4691030502319335
0.4904806137084960,0.4381467819213867
0.4904806137084960,0.4381467819213867
0.5230545043945313,0.4561729431152344
0.5230545043945313,0.4561729431152344
0.4996994018554687,0.4515346527099609
0.4996994018554687,0.4515346527099609
0.5100231170654297,0.4383258819580078
0.5100231170654297,0.4383258819580078
0.5070144653320312,0.4624723434448242
0.5070144653320312,0.4624723434448242
0.4978431701660156,0.4355861663818359
0.4978431701660156,0.4355861663818359
0.5237371444702148,0.4573602676391602
0.5237371444702148,0.4573602676391602
0.4996747970581055,0.4541227340698242
0.4996747970581055,0.4541227340698242
0.5040058135986328,0.4439323425292969
0.4895565032958984,0.4439323425292969
0.5203222274780274,0.4693965911865234
0.5203222274780274,0.4693965911865234
0.5045774459838867,0.4439804077148438
0.5045774459838867,0.4439804077148438
0.5289350509643554,0.4670024871826172
0.5289350509643554,0.4670024871826172
0.4966283798217773,0.4659324645996094
0.4966283798217773,0.4659324645996094
0.5205785751342773,0.4557443618774414
0.5205785751342773,0.4557443618774414
0.5279577255249023,0.4823049545288086
0.5279577255249023,0.4823049545288086
0.5095613479614257,0.4547361373901367
0.5095613479614257,0.4547361373901367
0.5267526626586914,0.4786130905151367
0.5267526626586914,0.4786130905151367
0.5114250183105469,0.4750116348266601
0.5114250183105469,0.4750116348266601
0.5268836975097656,0.4624471664428711
0.5268836975097656,0.4624471664428711
0.5304874420166016,0.4867698669433593
0.5304874420166016,0.4867698669433593
0.5017301559448242,0.4577859878540039
0.5017301559448242,0.4577859878540039
0.5369356155395507,0.4792190551757812
0.5355119705200195,0.4743741989135742
0.5243940353393555,0.4611539840698242
0.5243940353393555,0.4611539840698242
0.5204870223999023,0.4861352920532226
0.5204870223999023,0.4861352920532226
0.5113660812377929,0.4580663681030273
0.5113660812377929,0.4580663681030273
0.5389921188354492,0.4801162719726562
0.5389921188354492,0.4801162719726562
0.5125139236450195,0.4762790679931641
0.5125139236450195,0.4762790679931641
0.5167350769042969,0.4654541015625000
0.5167350769042969,0.4654541015625000
0.5322183609008789,0.4899169921875000
0.5322183609008789,0.4899169921875000
0.5147729873657226,0.4633718490600586
0.5147729873657226,0.4633718490600586
0.5396507263183593,0.4845983505249023
0.5396507263183593,0.4845983505249023
0.5065280914306640,0.4822546005249023
0.5065280914306640,0.4822546005249023
0.5296571731567382,0.4712711334228515
0.5296571731567382,0.4712711334228515
0.5373561859130859,0.4954851150512695
0.5373561859130859,0.4954851150512695
0.5174039840698242,0.4686990737915039
0.5174039840698242,0.4686990737915039
0.5330829620361328,0.4905344009399414
0.5330829620361328,0.4905344009399414
0.5190456390380859,0.4869398117065429
0.5190456390380859,0.4869398117065429
0.5326360702514649,0.4761445999145508
0.5326360702514649,0.4761445999145508
0.5378173828125000,0.4993005752563476
0.5378173828125000,0.4993005752563476
0.5104087829589844,0.4739673614501953
0.5104087829589844,0.4739673614501953
0.5453487396240234,0.4954267501831054
0.5453487396240234,0.4954267501831054
0.5238138198852539,0.4921079635620117
0.5238138198852539,0.4921079635620117
0.5351491928100586,0.4816143035888671
0.5351491928100586,0.4816143035888671
0.5310882568359375,0.5055507659912110
0.5310882568359375,0.5055507659912110
0.5232004165649414,0.4787195205688476
0.5232004165649414,0.4787195205688476
0.5471059799194335,0.4971193313598632
0.5471059799194335,0.4971193313598632
0.5192779541015625,0.4844398498535156
0.5192779541015625,0.4844398498535156
0.5166309356689452,0.4631361007690429
0.5166309356689452,0.4631361007690429
0.5244289398193359,0.4750968933105468
0.5244289398193359,0.4750968933105468
0.5034513473510742,0.4411096572875977
0.5034513473510742,0.4411096572875977
0.5226064682006836,0.4569105148315429
0.5226064682006836,0.4569105148315429
0.4877277374267578,0.4495971679687500
0.4877277374267578,0.4495971679687500
0.5089124679565430,0.4373537063598633
0.4977624893188476,0.4340206146240234
0.5136440277099609,0.4594116210937500
0.5182456970214844,0.4594116210937500
0.4955160140991210,0.4317266464233399
0.4955160140991210,0.4317266464233399
0.5107955932617188,0.4535430908203125
0.5107955932617188,0.4535430908203125
0.4967456817626953,0.4493047714233399
0.4967456817626953,0.4493047714233399
0.5120647430419921,0.4396356582641601
0.5120647430419921,0.4396356582641601
0.5155019760131836,0.4633958816528320
0.5155019760131836,0.4633958816528320
0.4892961502075195,0.4381353378295899
0.4892961502075195,0.4381353378295899
0.5240758895874024,0.4606264114379883
0.5240758895874024,0.4606264114379883
0.5020156860351562,0.4574878692626953
0.5020156860351562,0.4574878692626953
0.5156318664550781,0.4485294342041016
0.5156318664550781,0.4485294342041016
0.5126192092895507,0.4742574691772461
0.5181953430175781,0.4742574691772461
0.5057413101196289,0.4496578216552734
0.5057413101196289,0.4496578216552734
0.5330228805541992,0.4724441528320312
0.5330228805541992,0.4724441528320312
0.5084060668945313,0.4688375473022461
0.5084060668945313,0.4688375473022461
0.5126621246337890,0.4598167419433594
0.5126621246337890,0.4598167419433594
0.5273477554321289,0.4829584121704101
0.5273477554321289,0.4829584121704101
0.5103149414062500,0.4563531875610352
0.5103149414062500,0.4563531875610352
0.5338148117065430,0.4763374328613281
0.5338148117065430,0.4763374328613281
0.5009176254272460,0.4716934204101562
0.5009176254272460,0.4716934204101562
0.5231019973754882,0.4608970642089844
0.5231019973754882,0.4608970642089844
0.5292549133300781,0.4831483840942383
0.5292549133300781,0.4831483840942383
0.5096569061279297,0.4560132980346679
0.5096569061279297,0.4560132980346679
0.5243339538574219,0.4769760131835937
0.5243339538574219,0.4769760131835937
0.5103950500488281,0.4719074249267578
0.5103950500488281,0.4719074249267578
0.5240867614746093,0.4622194290161132
0.5240867614746093,0.4622194290161132
0.5283227920532226,0.4844158172607422
0.5283227920532226,0.4844158172607422
0.5019933700561523,0.4592582702636718
0.5019933700561523,0.4592582702636718
0.5362701416015625,0.4808286666870117
0.5362701416015625,0.4808286666870117
0.5149412155151367,0.4764793395996094
0.5149412155151367,0.4764793395996094
0.5265043258666992,0.4672742843627929
0.5265043258666992,0.4672742843627929
0.5217967987060547,0.4906202316284179
0.5217967987060547,0.4906202316284179
0.5146877288818359,0.4645517349243164
0.5146877288818359,0.4645517349243164
0.5395963668823242,0.4863235473632812
0.5395963668823242,0.4863235473632812
0.5159151077270507,0.4808326721191406
0.5159151077270507,0.4808326721191406
0.5200641632080077,0.4726461410522461
0.5200641632080077,0.4726461410522461
0.5344270706176758,0.4956722259521484
0.5344270706176758,0.4956722259521484
0.5196166992187500,0.4700174331665039
0.5196166992187500,0.4700174331665039
0.5422130584716797,0.4917823791503906
0.5422130584716797,0.4917823791503906
0.5095338821411133,0.4872207641601562
0.5095338821411133,0.4872207641601562
0.5330245971679687,0.4784906387329101
0.5330245971679687,0.4784906387329101
0.5381040573120117,0.5018480300903320
0.5381040573120117,0.5018480300903320
0.5210655212402343,0.4753326416015625
0.5210655212402343,0.4753326416015625
0.5359611511230469,0.4978769302368164
0.5359611511230469,0.4978769302368164
0.5222597122192383,0.4920238494873047
0.5222597122192383,0.4920238494873047
0.5363805770874023,0.4796098709106445
0.5363805770874023,0.4796098709106445
0.5343395233154297,0.4936305999755859
0.5343395233154297,0.4936305999755859
0.5013908386230469,0.4552768707275390
0.5013908386230469,0.4552768707275390
0.5283988952636719,0.4663358688354492
0.5283988952636719,0.4663358688354492
0.5005187988281250,0.4539579391479492
0.5005187988281250,0.4539579391479492
0.5105209350585938,0.4394617080688477
0.5105209350585938,0.4394617080688477
0.5036046981811523,0.4601984024047852
0.5084112167358398,0.4601984024047852
0.4951698303222656,0.4321168899536132
0.4951698303222656,0.4321168899536132
0.5206420898437499,0.4527706146240234
0.5206420898437499,0.4527706146240234
0.4950342178344727,0.4467922210693359
0.4950342178344727,0.4467922210693359
0.4996187210083007,0.4378629684448242
0.4996187210083007,0.4378629684448242
0.5132406234741210,0.4606744766235351
0.5132406234741210,0.4606744766235351
0.4971216201782226,0.4348697662353516
0.4971216201782226,0.4348697662353516
0.5214328765869141,0.4564750671386719
0.5214328765869141,0.4564750671386719
0.4893442153930664,0.4525491714477539
0.4893442153930664,0.4525491714477539
0.5131536483764648,0.4449525833129883
0.5131536483764648,0.4449525833129883
0.5199777603149414,0.4690475463867188
0.5199777603149414,0.4690475463867188
0.5022766113281250,0.4444210052490234
0.5022766113281250,0.4444210052490234
0.5183057785034180,0.4679420471191406
0.5183057785034180,0.4679420471191406
0.5053504943847656,0.4638536453247070
0.5053504943847656,0.4638536453247070
0.5203863143920898,0.4564722061157226
0.5203863143920898,0.4564722061157226
0.5246458053588867,0.4793689727783203
0.5246458053588867,0.4793689727783203
0.4990779876708984,0.4545593261718750
0.4990779876708984,0.4545593261718750
0.5329216003417968,0.4762212753295898
0.5329216003417968,0.4762212753295898
0.5112218856811523,0.4701805114746094
0.5112218856811523,0.4701805114746094
0.5229509353637695,0.4610126495361328
0.5229509353637695,0.4610126495361328
0.5171167373657226,0.4829881668090820
0.5171167373657226,0.4829881668090820
0.5097301483154296,0.4561019897460937
0.5185283660888672,0.4561019897460937
0.5338691711425781,0.4770423889160156
0.5338691711425781,0.4770423889160156
0.5096540451049805,0.4696849822998047
0.5096540451049805,0.4696849822998047
0.5138151168823242,0.4616151809692383
0.5138151168823242,0.4616151809692383
0.5271966934204101,0.4838504791259766
0.5271966934204101,0.4838504791259766
0.5125185012817383,0.4577539443969726
0.5125185012817383,0.4577539443969726
0.5346845626831055,0.4793197631835937
0.5346845626831055,0.4793197631835937
0.5018583297729492,0.4737607955932617
0.5018583297729492,0.4737607955932617
0.5258131027221680,0.4656875610351562
0.5258131027221680,0.4656875610351562
0.5301475524902344,0.4885425567626953
0.5301475524902344,0.4885425567626953
0.5135301589965821,0.4620574951171875
0.5135301589965821,0.4620574951171875
0.5281871795654297,0.4851139068603516
0.5281871795654297,0.4851139068603516
0.5146957397460937,0.4792276382446289
0.5146957397460937,0.4792276382446289
0.5310310363769531,0.4713174819946289
0.5310310363769531,0.4713174819946289
0.5327396392822266,0.4939945220947266
0.5327396392822266,0.4939945220947266
0.5070173263549804,0.4683134078979492
0.5070173263549804,0.4683134078979492
0.5411069869995117,0.4905944824218750
0.5411069869995117,0.4905944824218750
0.5182205200195312,0.4847110748291015
0.5182205200195312,0.4847110748291015
0.5321880340576172,0.4762882232666015
0.5321880340576172,0.4762882232666015
0.5263423919677734,0.5000312805175781
0.5263423919677734,0.5000312805175781
0.5202707290649414,0.4744949340820312
0.5202707290649414,0.4744949340820312
0.5466218948364258,0.4969430923461914
0.5466218948364258,0.4969430923461914
0.5213933944702148,0.4908639907836914
0.5213933944702148,0.4908639907836914
0.5259773254394531,0.4832370758056641
0.5259773254394531,0.4832370758056641
0.5393154144287109,0.5048715591430664
0.5393154144287109,0.5048715591430664
0.5220932006835938,0.4754390716552734
0.5220932006835938,0.4754390716552734
0.5409971237182617,0.4872699737548828
0.5409971237182617,0.4872699737548828
0.5009559631347656,0.4690933227539062
0.5009559631347656,0.4690933227539062
0.5181238174438476,0.4506980895996093
0.5181238174438476,0.4506980895996093
0.5184162139892577,0.4659118652343750
0.5184162139892577,0.4659118652343750
0.4972629547119141,0.4352342605590820
0.4972629547119141,0.4352342605590820
0.5101478576660156,0.4543624877929687
0.5101478576660156,0.4543624877929687
0.4949094772338867,0.4460483551025390
0.4949094772338867,0.4460483551025390
0.5090629577636718,0.4371683120727539
0.5090629577636718,0.4371683120727539
0.5114696502685546,0.4580612182617188
0.5114696502685546,0.4580612182617188
0.4859556198120117,0.4326696395874023
0.4859556198120117,0.4326696395874023
0.5195732116699219,0.4547035217285156
0.5195732116699219,0.4547035217285156
0.4981962203979492,0.4483961105346679
0.4981962203979492,0.4483961105346679
0.5110387802124023,0.4411714553833008
0.5110387802124023,0.4411714553833008
0.5054037094116210,0.4643245697021484
0.5054037094116210,0.4643245697021484
0.4995706558227539,0.4395257949829102
0.4995706558227539,0.4395257949829102
0.5248523712158203,0.4630027770996094
0.5248523712158203,0.4630027770996094
0.5017765045166015,0.4572120666503906
0.5017765045166015,0.4572120666503906
0.5080701828002929,0.4520353317260742
0.5080701828002929,0.4520353317260742
0.5216938018798828,0.4758235931396484
0.5216938018798828,0.4758235931396484
0.5084072113037109,0.4513051986694336
0.5084072113037109,0.4513051986694336
0.5311775207519531,0.4741441726684570
0.5311775207519531,0.4741441726684570
0.4984228134155273,0.4680948257446289
0.4984228134155273,0.4680948257446289
0.5227952957153320,0.4606836318969726
0.5227952957153320,0.4606836318969726
0.5264167785644531,0.4825859069824219
0.5264167785644531,0.4825859069824219
0.5096380233764648,0.4552122116088867
0.5120046615600585,0.4552122116088867
0.5237600326538085,0.4772735595703125
0.5237600326538085,0.4772735595703125
0.5092340469360351,0.4698463439941406
0.5092340469360351,0.4698463439941406
0.5255041122436523,0.4614738464355468
0.5255041122436523,0.4614738464355468
0.5261775970458984,0.4828531265258789
0.5261775970458984,0.4828531265258789
0.5004718780517577,0.4564624786376953
0.5004718780517577,0.4564624786376953
0.5338674545288086,0.4781856536865234
0.5338674545288086,0.4781856536865234
0.5105295181274414,0.4713197708129883
0.5105295181274414,0.4713197708129883
0.5091413497924805,0.4630788803100586
0.5091413497924805,0.4630788803100586
0.5184871673583984,0.4861656188964844
