REDsignal,IRsignal
0.6516649246215820,0.7033166885375977
0.6516649246215820,0.7033166885375977
0.6504066467285156,0.7029287338256835
0.6504066467285156,0.7029287338256835
0.6537380218505859,0.7058652877807617
0.6537380218505859,0.7058652877807617
0.6526857376098633,0.7088636398315430
0.6553619384765624,0.7088636398315430
0.6549465179443359,0.7092453002929687
0.6549465179443359,0.7092453002929687
0.6583745956420898,0.7145038604736328
0.6583745956420898,0.7145038604736328
0.6574825286865235,0.7148614883422851
0.6574825286865235,0.7148614883422851
0.6602897644042969,0.7185607910156250
0.6602897644042969,0.7185607910156250
0.6616670608520507,0.7224563598632813
0.6616670608520507,0.7224563598632813
0.6633842468261718,0.7232185363769531
0.6633842468261718,0.7232185363769531
0.6667499542236328,0.7287729263305663
0.6667499542236328,0.7287729263305663
0.6651872634887696,0.7294933319091796
0.6651872634887696,0.7294933319091796
0.6702341079711914,0.7337265014648438
0.6702341079711914,0.7337265014648438
0.6707988739013672,0.7375682830810547
0.6707988739013672,0.7375682830810547
0.6724645614624023,0.7386291503906249
0.6724645614624023,0.7386291503906249
0.6749336242675781,0.7442173004150391
0.6749336242675781,0.7442173004150391
0.6754869461059571,0.7450252532958984
0.6754869461059571,0.7450252532958984
0.6794248580932617,0.7490810394287110
0.6794248580932617,0.7490810394287110
0.6797487258911132,0.7526372909545899
0.6797487258911132,0.7526372909545899
0.6802865982055664,0.7531751632690430
0.6802865982055664,0.7531751632690430
0.6846021652221680,0.7585624694824219
0.6846021652221680,0.7585624694824219
0.6839303970336914,0.7585968017578125
0.6863611221313476,0.7585968017578125
0.6867908477783203,0.7603649139404297
0.6867908477783203,0.7603649139404297
0.6824111938476562,0.7556751251220702
0.6824111938476562,0.7556751251220702
0.6749650955200195,0.7356908798217773
0.6749650955200195,0.7356908798217773
0.6614181518554687,0.7119901657104492
0.6614181518554687,0.7119901657104492
0.6453895568847656,0.6884313583374023
0.6453895568847656,0.6884313583374023
0.6364070892333984,0.6740558624267577
0.6364070892333984,0.6740558624267577
0.6291315078735351,0.6649475097656250
0.6291315078735351,0.6649475097656250
0.6248800277709960,0.6564273834228516
0.6248800277709960,0.6564273834228516
0.6235788345336913,0.6546621322631836
0.6235788345336913,0.6546621322631836
0.6181852340698242,0.6492227554321289
0.6181852340698242,0.6492227554321289
0.6200574874877930,0.6482351303100585
0.6200574874877930,0.6482351303100585
0.6177440643310547,0.6477533340454101
0.6177440643310547,0.6477533340454101
0.6169996261596680,0.6448173522949219
0.6169996261596680,0.6448173522949219
0.6176130294799804,0.6470088958740234
0.6176130294799804,0.6470088958740234
0.6162202835083007,0.6448734283447265
0.6162202835083007,0.6448734283447265
0.6165607452392577,0.6450645446777343
0.6165607452392577,0.6450645446777343
0.6165607452392577,0.6453237533569336
0.6197027206420899,0.6481716156005859
0.6179689407348633,0.6481716156005859
0.6176296234130859,0.6482637405395507
0.6176296234130859,0.6482637405395507
0.6205701828002930,0.6492988586425781
0.6205701828002930,0.6492988586425781
0.6214885711669922,0.6536590576171875
0.6214885711669922,0.6536590576171875
0.6214307785034180,0.6534690856933594
0.6214307785034180,0.6534690856933594
0.6257926940917968,0.6586589813232422
0.6257926940917968,0.6586589813232422
0.6257366180419922,0.6612527847290038
0.6257366180419922,0.6612527847290038
0.6290960311889648,0.6642763137817382
0.6290960311889648,0.6642763137817382
0.6315902709960938,0.6704195022583007
0.6315902709960938,0.6704195022583007
0.6321613311767578,0.6714237213134765
0.6321613311767578,0.6714237213134765
0.6374519348144531,0.6771949768066406
0.6374519348144531,0.6771949768066406
0.6363739013671875,0.6792331695556640
0.6363739013671875,0.6792331695556640
0.6395112991333007,0.6811883926391601
0.6395112991333007,0.6811883926391601
0.6410419464111328,0.6856618881225586
0.6410419464111328,0.6856618881225586
0.6413206100463867,0.6850828170776367
0.6423225402832031,0.6850828170776367
0.6443881988525391,0.6886756896972656
0.6443881988525391,0.6886756896972656
0.6426990509033202,0.6890682220458985
0.6426990509033202,0.6890682220458985
0.6448797225952149,0.6896879196166992
0.6448797225952149,0.6896879196166992
0.6465225219726562,0.6935703277587890
0.6465225219726562,0.6935703277587890
0.6454427719116210,0.6922004699707031
0.6454427719116210,0.6922004699707031
0.6490133285522460,0.6957796096801757
0.6490133285522460,0.6957796096801757
0.6473928451538086,0.6966499328613281
0.6473928451538086,0.6966499328613281
0.6503688812255859,0.6978326797485351
0.6503688812255859,0.6978326797485351
0.6512987136840820,0.7021762847900390
0.6512987136840820,0.7021762847900390
0.6509456634521484,0.7015560150146484
0.6509456634521484,0.7015560150146484
0.6546913146972656,0.7058738708496094
0.6546913146972656,0.7058738708496094
0.6542541503906250,0.7074520111083984
0.6542541503906250,0.7074520111083984
0.6567707061767578,0.7093488693237304
0.6567707061767578,0.7093488693237304
0.6584312438964843,0.7142972946166992
0.6584312438964843,0.7142972946166992
0.6585702896118164,0.7144603729248047
0.6585702896118164,0.7144603729248047
0.6633985519409179,0.7196050643920898
0.6633985519409179,0.7196050643920898
0.6621082305908202,0.7218280792236328
0.6621082305908202,0.7218280792236328
0.6654962539672852,0.7240276336669922
0.6654962539672852,0.7240276336669922
0.6672065734863281,0.7295042037963867
0.6672065734863281,0.7295042037963867
0.6682113647460938,0.7300975799560546
0.6682113647460938,0.7300975799560546
0.6722597122192383,0.7352863311767578
0.6722597122192383,0.7352863311767578
0.6714637756347656,0.7372993469238281
0.6714637756347656,0.7372993469238281
0.6746606826782227,0.7397048950195312
0.6746606826782227,0.7397048950195312
0.6771451950073242,0.7450223922729492
0.6771451950073242,0.7450223922729492
0.6768367767333984,0.7452352523803710
0.6768367767333984,0.7452352523803710
0.6810813903808594,0.7500749588012695
0.6810813903808594,0.7500749588012695
0.6799283981323242,0.7519168853759766
0.6799283981323242,0.7519168853759766
0.6836185455322266,0.7539201736450195
0.6836185455322266,0.7539201736450195
0.6848201751708984,0.7587896347045898
0.6848201751708984,0.7587896347045898
0.6845581054687500,0.7580257415771484
0.6845581054687500,0.7580257415771484
0.6875610351562500,0.7595884323120117
0.6875610351562500,0.7595884323120117
0.6817525863647461,0.7495565414428711
0.6817525863647461,0.7495565414428711
0.6715415954589844,0.7263444900512696
0.6715415954589844,0.7263444900512696
0.6563747406005859,0.7029436111450195
0.6563747406005859,0.7029436111450195
0.6421428680419922,0.6806888580322266
0.6421428680419922,0.6806888580322266
0.6361049652099610,0.6688356399536133
0.6361049652099610,0.6688356399536133
0.6270950317382812,0.6591945648193359
0.6270950317382812,0.6591945648193359
0.6247604370117187,0.6526445388793946
0.6247604370117187,0.6526445388793946
0.6223583221435547,0.6511127471923828
0.6223583221435547,0.6511127471923828
0.6196174621582031,0.6460687637329101
0.6196174621582031,0.6460687637329101
0.6205621719360351,0.6462564468383789
0.6205621719360351,0.6462564468383789
0.6173091888427734,0.6442319869995117
0.6173091888427734,0.6442319869995117
0.6181594848632812,0.6429862976074219
0.6181594848632812,0.6429862976074219
0.6187551498413085,0.6452133178710937
0.6187551498413085,0.6452133178710937
0.6170013427734374,0.6430498123168945
0.6170013427734374,0.6430498123168945
0.6199848175048828,0.6456012725830078
0.6199848175048828,0.6456012725830078
0.6179363250732421,0.6454736709594726
0.6179363250732421,0.6454736709594726
0.6206262588500976,0.6461654663085937
0.6206262588500976,0.6461654663085937
0.6213357925415038,0.6501583099365235
0.6213357925415038,0.6501583099365235
0.6210851669311523,0.6495414733886719
0.6210851669311523,0.6495414733886719
0.6250087738037109,0.6543479919433594
0.6250087738037109,0.6543479919433594
0.6249601364135742,0.6567707061767578
0.6249601364135742,0.6567707061767578
0.6281444549560546,0.6596551895141601
0.6274789810180664,0.6596551895141601
0.6307308197021484,0.6659866333007812
0.6307308197021484,0.6659866333007812
0.6315736770629883,0.6675006866455078
0.6315736770629883,0.6675006866455078
0.6370473861694336,0.6738046646118164
0.6370473861694336,0.6738046646118164
0.6364191055297851,0.6766485214233399
0.6364191055297851,0.6766485214233399
0.6399181365966796,0.6790998458862304
0.6399181365966796,0.6790998458862304
0.6417085647583007,0.6842720031738281
0.6417085647583007,0.6842720031738281
0.6422613143920898,0.6840293884277343
0.6422613143920898,0.6840293884277343
0.6455898284912109,0.6878671646118164
0.6455898284912109,0.6878671646118164
0.6439195632934570,0.6882642745971680
0.6439195632934570,0.6882642745971680
0.6460859298706054,0.6888381958007812
0.6460859298706054,0.6888381958007812
0.6474060058593750,0.6923114776611328
0.6474060058593750,0.6923114776611328
0.6460458755493164,0.6907356262207031
0.6460458755493164,0.6907356262207031
0.6495540618896484,0.6939313888549804
0.6495540618896484,0.6939313888549804
0.6475439071655273,0.6944086074829101
0.6475439071655273,0.6944086074829101
0.6503946304321289,0.6953802108764648
0.6503946304321289,0.6953802108764648
0.6512884140014649,0.6994932174682617
0.6512884140014649,0.6994932174682617
0.6508787155151367,0.6985816955566406
0.6508787155151367,0.6985816955566406
0.6547199249267578,0.7026489257812499
0.6547199249267578,0.7026489257812499
0.6537981033325195,0.7040794372558593
0.6537981033325195,0.7040794372558593
0.6562654495239257,0.7058641433715820
0.6562654495239257,0.7058641433715820
0.6577875137329101,0.7106935501098632
0.6577875137329101,0.7106935501098632
0.6576684951782227,0.7106649398803710
0.6576684951782227,0.7106649398803710
0.6625431060791015,0.7156127929687500
0.6625431060791015,0.7156127929687500
0.6610313415527344,0.7175794601440429
0.6610313415527344,0.7175794601440429
0.6642860412597656,0.7195278167724609
0.6642860412597656,0.7195278167724609
0.6660541534423828,0.7248086929321289
0.6660541534423828,0.7248086929321289
0.6666498184204102,0.7250009536743164
0.6666498184204102,0.7250009536743164
0.6705968856811523,0.7300352096557617
0.6705968856811523,0.7300352096557617
0.6695783615112304,0.7319183349609375
0.6695783615112304,0.7319183349609375
0.6725898742675781,0.7340761184692383
0.6725898742675781,0.7340761184692383
0.6751493453979492,0.7395893096923828
0.6761873245239257,0.7395893096923828
0.6749399185180663,0.7399360656738281
0.6749399185180663,0.7399360656738281
0.6793355941772461,0.7449239730834961
0.6793355941772461,0.7449239730834961
0.6783983230590820,0.7469764709472656
0.6783983230590820,0.7469764709472656
0.6820529937744141,0.7494060516357421
0.6820529937744141,0.7494060516357421
0.6835178375244141,0.7545181274414062
0.6848344802856445,0.7545181274414062
0.6834056854248046,0.7542886734008789
0.6834056854248046,0.7542886734008789
0.6871587753295898,0.7583919525146484
0.6871587753295898,0.7583919525146484
0.6853998184204101,0.7567657470703125
0.6866695404052734,0.7567657470703125
0.6827596664428711,0.7468070983886719
0.6762016296386718,0.7468070983886719
0.6719633102416992,0.7270854949951172
0.6648136138916015,0.7270854949951172
0.6559953689575195,0.7003406524658203
0.6507717132568359,0.7003406524658203
0.6479421615600586,0.6842290878295898
0.6406539916992188,0.6842290878295898
0.6358932495117188,0.6692682266235351
0.6358932495117188,0.6692682266235351
0.6312343597412109,0.6594194412231446
0.6312343597412109,0.6594194412231446
0.6274835586547851,0.6564222335815429
0.6274835586547851,0.6564222335815429
0.6242128372192383,0.6503768920898437
0.6242128372192383,0.6503768920898437
0.6250139236450195,0.6503768920898437
0.6250139236450195,0.6503768920898437
0.6215904235839843,0.6480497360229492
0.6215904235839843,0.6480497360229492
0.6226764678955078,0.6468727111816406
0.6226764678955078,0.6468727111816406
0.6230873107910156,0.6493852615356445
0.6230873107910156,0.6493852615356445
0.6214679718017578,0.6470272064208984
0.6214679718017578,0.6470272064208984
0.6246402740478515,0.6499059677124023
0.6246402740478515,0.6499059677124023
0.6223405838012696,0.6500410079956055
0.6223405838012696,0.6500410079956055
0.6253286361694336,0.6507631301879883
0.6253286361694336,0.6507631301879883
0.6261417388916015,0.6548887252807617
0.6261417388916015,0.6548887252807617
0.6257045745849609,0.6542043685913086
0.6257045745849609,0.6542043685913086
0.6298639297485351,0.6590297698974609
0.6298639297485351,0.6590297698974609
0.6295595169067383,0.6614770889282227
0.6295595169067383,0.6614770889282227
0.6329401016235351,0.6645355224609375
0.6329401016235351,0.6645355224609375
0.6354755401611328,0.6710123062133789
0.6354755401611328,0.6710123062133789
0.6363281250000000,0.6724239349365234
0.6363281250000000,0.6724239349365234
0.6419643402099610,0.6789911270141601
0.6419643402099610,0.6789911270141601
0.6413606643676758,0.6821508407592773
0.6413606643676758,0.6821508407592773
0.6451366424560546,0.6849506378173827
0.6451366424560546,0.6849506378173827
0.6472269058227539,0.6904626846313476
0.6472269058227539,0.6904626846313476
0.6476703643798828,0.6905393600463867
0.6476703643798828,0.6905393600463867
0.6513147354125977,0.6947376251220703
0.6513147354125977,0.6947376251220703
0.6498544692993163,0.6955759048461914
0.6498544692993163,0.6955759048461914
0.6520637512207031,0.6962682723999023
0.6520637512207031,0.6962682723999023
0.6536516189575196,0.7001810073852539
0.6536516189575196,0.7001810073852539
0.6525163650512695,0.6986795425415039
0.6525163650512695,0.6986795425415039
0.6560428619384765,0.7021596908569335
0.6560428619384765,0.7021596908569335
0.6540481567382812,0.7026729583740234
0.6540481567382812,0.7026729583740234
0.6571117401123047,0.7036457061767578
0.6571117401123047,0.7036457061767578
0.6578018188476562,0.7078496932983398
0.6578018188476562,0.7078496932983398
0.6572828292846680,0.7067922592163086
0.6572828292846680,0.7067922592163086
0.6609392166137695,0.7111335754394531
0.6609392166137695,0.7111335754394531
0.6601375579833985,0.7125068664550781
0.6601375579833985,0.7125068664550781
0.6626855850219726,0.7142240524291992
0.6626855850219726,0.7142240524291992
0.6642339706420898,0.7189905166625976
0.6642339706420898,0.7189905166625976
0.6655941009521484,0.7225616455078124
0.6689689636230468,0.7225616455078124
0.6672374725341796,0.7231063842773438
0.6672374725341796,0.7231063842773438
0.6706100463867187,0.7287317276000976
0.6706100463867187,0.7287317276000976
0.6687749862670899,0.7291179656982422
0.6687749862670899,0.7291179656982422
0.6738035202026367,0.7332029342651367
0.6738035202026367,0.7332029342651367
0.6739242553710937,0.7369731903076172
0.6739242553710937,0.7369731903076172
0.6755876541137695,0.7375888824462891
0.6755876541137695,0.7375888824462891
0.6780567169189453,0.7431112289428711
0.6780567169189453,0.7431112289428711
0.6780796051025391,0.7435564041137696
0.6780796051025391,0.7435564041137696
0.6821542739868164,0.7474451065063477
0.6821542739868164,0.7474451065063477
0.6820558547973633,0.7511621475219726
0.6820558547973633,0.7511621475219726
0.6826206207275390,0.7515552520751952
0.6826206207275390,0.7515552520751952
0.6868732452392577,0.7571393966674804
0.6868732452392577,0.7571393966674804
0.6860418319702148,0.7573648452758789
0.6860418319702148,0.7573648452758789
0.6898223876953125,0.7609188079833984
0.6898223876953125,0.7609188079833984
0.6886430740356445,0.7641145706176757
0.6886430740356445,0.7641145706176757
0.6909198760986328,0.7639297485351563
0.6909198760986328,0.7639297485351563
0.6931331634521484,0.7662986755371094
0.6931331634521484,0.7662986755371094
0.6875667572021484,0.7558427810668945
0.6875667572021484,0.7558427810668945
0.6790174484252930,0.7363065719604492
0.6790174484252930,0.7363065719604492
0.6639192581176757,0.7118482589721680
0.6462175369262695,0.6903396606445312
0.6444139480590820,0.6780881881713867
0.6444139480590820,0.6780881881713867
0.6343940734863281,0.6657691955566406
0.6343940734863281,0.6657691955566406
0.6334350585937499,0.6611137390136719
0.6334350585937499,0.6611137390136719
0.6295755386352538,0.6581205368041992
0.6295755386352538,0.6581205368041992
0.6278772354125977,0.6535852432250976
0.6278772354125977,0.6535852432250976
0.6277908325195313,0.6547153472900390
0.6277908325195313,0.6547153472900390
0.6257234573364258,0.6517198562622070
0.6257234573364258,0.6517198562622070
0.6279745101928711,0.6526857376098633
0.6279745101928711,0.6526857376098633
0.6264839172363281,0.6537260055541992
0.6264839172363281,0.6537260055541992
0.6259288787841797,0.6521129608154297
0.6259288787841797,0.6521129608154297
0.6291412353515625,0.6558231353759766
0.6291412353515625,0.6558231353759766
0.6276260375976562,0.6548606872558593
0.6276260375976562,0.6548606872558593
0.6306421279907226,0.6574728012084960
0.6306421279907226,0.6574728012084960
0.6296024322509766,0.6602073669433594
0.6296024322509766,0.6602073669433594
0.6317321777343750,0.6606153488159180
0.6317321777343750,0.6606153488159180
0.6352369308471679,0.6662761688232421
0.6352369308471679,0.6662761688232421
0.6348821640014648,0.6675693511962890
0.6348821640014648,0.6675693511962890
0.6385288238525391,0.6724124908447265
0.6385288238525391,0.6724124908447265
0.6405515670776367,0.6777122497558593
0.6405515670776367,0.6777122497558593
0.6431734085083007,0.6799215316772461
0.6431734085083007,0.6799215316772461
0.6472578048706055,0.6869356155395507
0.6472578048706055,0.6869356155395507
0.6464080810546875,0.6884817123413086
0.6464080810546875,0.6884817123413086
0.6517450332641601,0.6931875228881835
0.6517450332641601,0.6931875228881835
0.6522932052612305,0.6972604751586914
0.6522932052612305,0.6972604751586914
0.6537185668945312,0.6977457046508789
0.6537185668945312,0.6977457046508789
0.6559736251831054,0.7024497985839844
0.6559736251831054,0.7024497985839844
0.6556491851806641,0.7022157669067383
0.6556491851806641,0.7022157669067383
0.6590463638305664,0.7049921035766601
0.6590463638305664,0.7049921035766601
0.6584129333496094,0.7074480056762695
0.6584129333496094,0.7074480056762695
0.6583282470703125,0.7068122863769531
0.6583282470703125,0.7068122863769531
0.6620916366577149,0.7113023757934570
0.6620916366577149,0.7113023757934570
0.6607143402099609,0.7107393264770507
0.6607143402099609,0.7107393264770507
0.6640199661254883,0.7137445449829102
0.6640199661254883,0.7137445449829102
0.6628755569458008,0.7166690826416016
0.6628755569458008,0.7166690826416016
0.6650087356567382,0.7168848037719726
0.6650087356567382,0.7168848037719726
0.6683647155761718,0.7219945907592773
0.6683647155761718,0.7219945907592773
0.6672672271728516,0.7223402023315429
0.6672672271728516,0.7223402023315429
0.6702438354492187,0.7260721206665038
0.6702438354492187,0.7260721206665038
0.6713590621948242,0.7301313400268554
0.6713590621948242,0.7301313400268554
0.6730293273925781,0.7310565948486328
0.6730293273925781,0.7310565948486328
0.6766050338745117,0.7369434356689453
0.6766050338745117,0.7369434356689453
0.6751659393310546,0.7379196166992187
0.6751659393310546,0.7379196166992187
0.6803031921386719,0.7422838211059570
0.6803031921386719,0.7422838211059570
0.6807987213134765,0.7464929580688476
0.6807987213134765,0.7464929580688476
0.6823888778686523,0.7474021911621094
0.6823888778686523,0.7474021911621094
0.6849586486816406,0.7529394149780273
0.6849586486816406,0.7529394149780273
0.6852281570434570,0.7538343429565429
0.6852281570434570,0.7538343429565429
0.6891912460327149,0.7577138900756836
0.6891912460327149,0.7577138900756836
0.6892627716064453,0.7615236282348633
0.6892627716064453,0.7615236282348633
0.6899047851562500,0.7619693756103515
0.6899700164794922,0.7619693756103515
0.6942306518554687,0.7675632476806641
0.6942306518554687,0.7675632476806641
0.6935428619384766,0.7680988311767578
0.6935428619384766,0.7680988311767578
0.6970430374145508,0.7716402053833008
0.6970430374145508,0.7716402053833008
0.6963100433349609,0.7750837326049804
0.6963100433349609,0.7750837326049804
0.6985519409179687,0.7755254745483399
0.6985519409179687,0.7755254745483399
0.7016819000244140,0.7803194046020507
0.7016819000244140,0.7803194046020507
0.7000391006469726,0.7788133621215820
0.7000391006469726,0.7788133621215820
0.7001220703125000,0.7758842468261719
0.7001220703125000,0.7758842468261719
0.6932018280029296,0.7619138717651367
0.6932018280029296,0.7619138717651367
0.6796806335449218,0.7328584671020507
0.6796806335449218,0.7328584671020507
0.6641647338867187,0.7069198608398437
0.6641647338867187,0.7069198608398437
0.6484457015991211,0.6855966567993164
0.6484457015991211,0.6855966567993164
0.6433954238891602,0.6741405487060547
0.6433954238891602,0.6741405487060547
0.6369146347045899,0.6674337387084961
0.6369146347045899,0.6674337387084961
0.6336032867431640,0.6605512619018554
0.6336032867431640,0.6605512619018554
0.6325218200683593,0.6600311279296874
0.6325218200683593,0.6600311279296874
0.6297821044921875,0.6562196731567382
0.6297821044921875,0.6562196731567382
0.6314872741699219,0.6562974929809570
0.6314872741699219,0.6562974929809570
0.6298250198364258,0.6569417953491211
0.6298250198364258,0.6569417953491211
0.6289129257202148,0.6550729751586913
0.6289129257202148,0.6550729751586913
0.6319839477539062,0.6585393905639648
0.6319839477539062,0.6585393905639648
0.6303010940551758,0.6574436187744140
0.6303010940551758,0.6574436187744140
0.6331729888916016,0.6596723556518554
0.6331729888916016,0.6596723556518554
0.6320611953735351,0.6623571395874023
0.6320611953735351,0.6623571395874023
0.6340873718261718,0.6627182006835938
0.6340873718261718,0.6627182006835938
0.6376716613769531,0.6681432723999023
0.6376716613769531,0.6681432723999023
0.6370719909667969,0.6694250106811523
0.6370719909667969,0.6694250106811523
0.6406808853149414,0.6742567062377930
0.6406808853149414,0.6742567062377930
0.6427825927734375,0.6798048019409180
0.6427825927734375,0.6798048019409180
0.6454072952270508,0.6824907302856446
0.6454072952270508,0.6824907302856446
0.6499053955078125,0.6898258209228515
0.6499053955078125,0.6898258209228515
0.6493251800537109,0.6920665740966797
0.6493251800537109,0.6920665740966797
0.6547245025634766,0.6972576141357422
0.6547245025634766,0.6972576141357422
0.6556932449340820,0.7015806198120117
0.6556932449340820,0.7015806198120117
0.6571146011352539,0.7025299072265625
0.6571146011352539,0.7025299072265625
0.6592180252075195,0.7072076797485352
0.6592180252075195,0.7072076797485352
0.6590097427368163,0.7070331573486328
0.6590097427368163,0.7070331573486328
0.6620950698852539,0.7095153808593749
0.6620950698852539,0.7095153808593749
0.6614387512207031,0.7117149353027343
0.6614387512207031,0.7117149353027343
0.6610101699829102,0.7107547760009766
0.6610101699829102,0.7107547760009766
0.6644050598144531,0.7145055770874024
0.6644050598144531,0.7145055770874024
0.6629602432250976,0.7136873245239258
0.6629602432250976,0.7136873245239258
0.6656644821166992,0.7158021926879883
0.6656644821166992,0.7158021926879883
0.6643306732177734,0.7181917190551758
0.6643306732177734,0.7181917190551758
0.6659597396850586,0.7179485321044922
0.6659597396850586,0.7179485321044922
0.6686388015747070,0.7222280502319336
0.6686388015747070,0.7222280502319336
0.6672197341918945,0.7217365264892578
0.6672197341918945,0.7217365264892578
0.6692813873291016,0.7243955612182617
0.6692813873291016,0.7243955612182617
0.6701059341430664,0.7273910522460937
0.6701059341430664,0.7273910522460937
0.6710929870605469,0.7273052215576171
0.6710929870605469,0.7273052215576171
0.6737405776977539,0.7320041656494141
0.6737405776977539,0.7320041656494141
0.6717670440673827,0.7321134567260742
0.6717670440673827,0.7321134567260742
0.6762714385986328,0.7355026245117188
0.6751075744628906,0.7355026245117188
0.6764785766601562,0.7392602920532226
0.6764785766601562,0.7392602920532226
0.6779102325439453,0.7401844024658203
0.6779102325439453,0.7401844024658203
0.6806837081909179,0.7455757141113281
0.6806837081909179,0.7455757141113281
0.6812387466430664,0.7468906402587890
0.6812387466430664,0.7468906402587890
0.6854982376098633,0.7511987686157227
0.6854982376098633,0.7511987686157227
0.6862707138061523,0.7558238983154296
0.6862707138061523,0.7558238983154296
0.6874465942382812,0.7574403762817382
0.6874465942382812,0.7574403762817382
0.6925460815429687,0.7640184402465821
0.6925460815429687,0.7640184402465821
0.6927022933959961,0.7656686782836913
0.6927022933959961,0.7656686782836913
0.6970493316650390,0.7700122833251953
0.6958082199096679,0.7700122833251953
0.6969480514526367,0.7743650436401367
0.6969480514526367,0.7743650436401367
0.6997404098510742,0.7755741119384766
0.6997404098510742,0.7755741119384766
0.7033452987670898,0.7806976318359374
0.7033452987670898,0.7806976318359374
0.7017900466918945,0.7794639587402343
0.7017900466918945,0.7794639587402343
0.7017259597778320,0.7762681961059570
0.7017259597778320,0.7762681961059570
0.6947227478027344,0.7616025924682617
0.6947227478027344,0.7616025924682617
0.6806367874145508,0.7323720932006835
0.6806367874145508,0.7323720932006835
0.6669301986694336,0.7093591690063477
0.6669301986694336,0.7093591690063477
0.6522834777832031,0.6887895584106445
0.6522834777832031,0.6887895584106445
0.6465717315673828,0.6765872955322265
0.6465717315673828,0.6765872955322265
0.6398838043212890,0.6694713592529297
0.6398838043212890,0.6694713592529297
0.6361186981201171,0.6621545791625977
0.6361186981201171,0.6621545791625977
0.6347002029418946,0.6610164642333984
0.6347002029418946,0.6610164642333984
0.6314804077148437,0.6566207885742187
0.6314804077148437,0.6566207885742187
0.6300321578979492,0.6541711807250976
0.6307697296142578,0.6541711807250976
0.6321716308593750,0.6552480697631836
0.6299034118652344,0.6552480697631836
0.6293312072753906,0.6541551589965821
0.6293312072753906,0.6541551589965821
0.6309688568115234,0.6534198760986328
0.6309688568115234,0.6534198760986328
0.6309980392456055,0.6560594558715820
0.6309980392456055,0.6560594558715820
0.6297472000122070,0.6538845062255859
0.6297472000122070,0.6538845062255859
0.6325813293457031,0.6566665649414062
0.6325813293457031,0.6566665649414062
0.6313962936401367,0.6573051452636719
0.6313962936401367,0.6573051452636719
0.6331878662109375,0.6582321166992188
0.6331878662109375,0.6582321166992188
0.6347482681274413,0.6627056121826171
0.6347482681274413,0.6627056121826171
0.6348615646362304,0.6628629684448242
0.6348615646362304,0.6628629684448242
0.6396348953247070,0.6683286666870117
0.6396348953247070,0.6683286666870117
0.6389848709106445,0.6712760925292969
0.6389848709106445,0.6712760925292969
0.6426109313964844,0.6741376876831054
0.6426109313964844,0.6741376876831054
0.6448568344116211,0.6804891586303711
0.6448568344116211,0.6804891586303711
0.6460876464843750,0.6816627502441406
0.6460876464843750,0.6816627502441406
0.6503316879272460,0.6871410369873047
0.6503316879272460,0.6871410369873047
0.6495763778686523,0.6891563415527343
0.6495763778686523,0.6891563415527343
0.6524539947509765,0.6907613754272460
0.6524539947509765,0.6907613754272460
0.6544481277465820,0.6953447341918945
0.6544481277465820,0.6953447341918945
0.6534662246704102,0.6944641113281250
0.6534662246704102,0.6944641113281250
0.6570648193359375,0.6978097915649414
0.6570648193359375,0.6978097915649414
0.6551565170288086,0.6983390808105469
0.6551565170288086,0.6983390808105469
0.6579231262207031,0.6989719390869140
0.6579231262207031,0.6989719390869140
0.6585227966308593,0.7028017044067383
0.6585227966308593,0.7028017044067383
0.6578670501708984,0.7015577316284179
0.6578670501708984,0.7015577316284179
0.6614816665649413,0.7052759170532227
0.6614816665649413,0.7052759170532227
0.6605237960815430,0.7067516326904296
0.6605237960815430,0.7067516326904296
0.6628086090087890,0.7083583831787109
0.6628086090087890,0.7083583831787109
0.6646024703979492,0.7132072448730469
0.6646024703979492,0.7132072448730469
0.6643306732177734,0.7132713317871093
0.6643306732177734,0.7132713317871093
0.6692527770996094,0.7183988571166992
0.6692527770996094,0.7183988571166992
0.6681341171264649,0.7208913803100586
0.6681341171264649,0.7208913803100586
0.6712675094604492,0.7231561660766601
0.6712675094604492,0.7231561660766601
0.6733846664428711,0.7288896560668945
0.6733846664428711,0.7288896560668945
0.6740707397460938,0.7296157836914062
0.6740707397460938,0.7296157836914062
0.6782981872558593,0.7350460052490234
0.6782981872558593,0.7350460052490234
0.6776258468627929,0.7376163482666015
0.6776258468627929,0.7376163482666015
0.6806911468505860,0.7400270462036133
0.6806911468505860,0.7400270462036133
0.6835338592529296,0.7459064483642578
0.6835338592529296,0.7459064483642578
0.6832626342773437,0.7465822219848632
0.6832626342773437,0.7465822219848632
0.6877544403076171,0.7514768600463867
0.6877544403076171,0.7514768600463867
0.6869138717651367,0.7536672592163086
0.6869138717651367,0.7536672592163086
0.6902784347534180,0.7557809829711913
0.6902784347534180,0.7557809829711913
0.6917444229125976,0.7609897613525390
0.6928739547729492,0.7609897613525390
0.6915670394897461,0.7607482910156250
0.6915670394897461,0.7607482910156250
0.6954288482666016,0.7648166656494141
0.6954288482666016,0.7648166656494141
0.6939462661743164,0.7644630432128906
0.6939462661743164,0.7644630432128906
0.6923229217529296,0.7565145492553711
0.6923229217529296,0.7565145492553711
0.6831693649291992,0.7384145736694335
0.6831693649291992,0.7384145736694335
0.6654636383056640,0.7071590423583984
0.6654636383056640,0.7071590423583984
0.6543720245361327,0.6871782302856445
0.6543720245361327,0.6871782302856445
0.6415798187255859,0.6714323043823242
0.6415798187255859,0.6714323043823242
0.6362577438354492,0.6604288101196288
0.6362577438354492,0.6604288101196288
0.6321350097656250,0.6564239501953125
0.6321350097656250,0.6564239501953125
0.6280345916748047,0.6492885589599610
0.6280345916748047,0.6492885589599610
0.6282228469848633,0.6482769012451172
0.6282228469848633,0.6482769012451172
0.6240297317504883,0.6449518203735352
0.6240297317504883,0.6449518203735352
0.6244497299194336,0.6425479888916016
0.6244497299194336,0.6425479888916016
0.6242763519287109,0.6440546035766601
0.6242763519287109,0.6440546035766601
0.6218599319458008,0.6408182144165039
0.6218599319458008,0.6408182144165039
0.6243581771850586,0.6425519943237304
0.6243581771850586,0.6425519943237304
0.6217918395996094,0.6421073913574219
0.6217918395996094,0.6421073913574219
0.6237991333007812,0.6415506362915039
0.6237991333007812,0.6415506362915039
0.6241035461425781,0.6448505401611327
0.6241035461425781,0.6448505401611327
0.6229373931884765,0.6429725646972656
0.6229373931884765,0.6429725646972656
0.6263580322265625,0.6464241027832031
0.6263580322265625,0.6464241027832031
0.6252771377563476,0.6478099822998047
0.6252771377563476,0.6478099822998047
0.6278697967529296,0.6495248794555664
0.6278697967529296,0.6495248794555664
0.6299823760986328,0.6550403594970703
0.6299823760986328,0.6550403594970703
0.6303291320800781,0.6561092376708985
0.6303291320800781,0.6561092376708985
0.6359338760375977,0.6623920440673828
0.6359338760375977,0.6623920440673828
0.6355258941650390,0.6662429809570313
0.6355258941650390,0.6662429809570313
0.6395135879516601,0.6695640563964843
0.6395135879516601,0.6695640563964843
0.6422224044799805,0.6761409759521484
0.6422224044799805,0.6761409759521484
0.6432987213134765,0.6773162841796875
0.6432987213134765,0.6773162841796875
0.6477195739746093,0.6828655242919922
0.6477195739746093,0.6828655242919922
0.6469282150268555,0.6849637985229492
0.6505731582641602,0.6849637985229492
0.6497400283813476,0.6865350723266601
0.6497400283813476,0.6865350723266601
0.6519195556640625,0.6914285659790039
0.6519195556640625,0.6914285659790039
0.6511127471923828,0.6906726837158202
0.6511127471923828,0.6906726837158202
0.6548057556152344,0.6944606781005859
0.6548057556152344,0.6944606781005859
0.6533243179321289,0.6956909179687499
0.6533243179321289,0.6956909179687499
0.6562065124511719,0.6966751098632812
0.6562065124511719,0.6966751098632812
0.6573440551757812,0.7012355804443359
0.6573440551757812,0.7012355804443359
0.6567432403564453,0.7004899978637695
0.6567432403564453,0.7004899978637695
0.6607234954833984,0.7047901153564453
0.6607234954833984,0.7047901153564453
0.6600563049316406,0.7069421768188476
0.6600563049316406,0.7069421768188476
0.6626518249511718,0.7089488983154296
0.6626518249511718,0.7089488983154296
0.6646087646484374,0.7142166137695313
0.6646087646484374,0.7142166137695313
0.6648439407348633,0.7147367477416992
0.6648439407348633,0.7147367477416992
0.6699399948120117,0.7204021453857422
0.6699399948120117,0.7204021453857422
0.6691223144531250,0.7235527038574219
0.6691223144531250,0.7235527038574219
0.6727054595947265,0.7262500762939453
0.6727054595947265,0.7262500762939453
0.6748638153076172,0.7326192855834961
0.6748638153076172,0.7326192855834961
0.6759830474853515,0.7337413787841797
0.6759830474853515,0.7337413787841797
0.6803501129150390,0.7396671295166015
0.6803501129150390,0.7396671295166015
0.6798231124877929,0.7423410415649414
0.6798231124877929,0.7423410415649414
0.6830743789672852,0.7448129653930664
0.6830743789672852,0.7448129653930664
0.6856189727783203,0.7505481719970702
0.6856189727783203,0.7505481719970702
0.6851852416992187,0.7506608963012695
0.6851852416992187,0.7506608963012695
0.6894435882568359,0.7553827285766601
0.6894435882568359,0.7553827285766601
0.6881389617919922,0.7571811676025391
0.6881389617919922,0.7571811676025391
0.6915006637573242,0.7588073730468750
0.6915006637573242,0.7588073730468750
0.6927532196044922,0.7638284683227539
0.6927532196044922,0.7638284683227539
0.6922571182250976,0.7629604339599609
0.6922571182250976,0.7629604339599609
0.6961927413940430,0.7671054840087891
0.6961927413940430,0.7671054840087891
0.6946735382080078,0.7682069778442383
0.6946735382080078,0.7682069778442383
0.6961521148681641,0.7672485351562500
0.6961521148681641,0.7672485351562500
0.6938426971435546,0.7629467010498047
0.6938426971435546,0.7629467010498047
0.6831253051757812,0.7414472579956054
0.6831253051757812,0.7414472579956054
0.6711267471313477,0.7164722442626953
0.6711267471313477,0.7164722442626953
0.6549636840820312,0.6952457427978516
0.6549636840820312,0.6952457427978516
0.6472063064575195,0.6794340133666992
0.6472063064575195,0.6794340133666992
0.6408136367797851,0.6715381622314452
0.6408136367797851,0.6715381622314452
0.6347888946533203,0.6621276855468750
0.6347888946533203,0.6621276855468750
0.6343734741210937,0.6600860595703125
0.6343734741210937,0.6600860595703125
0.6298582077026367,0.6565361022949219
0.6298582077026367,0.6565361022949219
0.6300069808959960,0.6540212631225586
0.6300069808959960,0.6540212631225586
0.6300447463989257,0.6559106826782226
0.6300447463989257,0.6559106826782226
0.6276935577392578,0.6527046203613281
0.6276935577392578,0.6527046203613281
0.6306386947631836,0.6550924301147460
0.6306386947631836,0.6550924301147460
0.6281192779541015,0.6549505233764649
0.6281192779541015,0.6549505233764649
0.6303955078125000,0.6551073074340820
0.6303955078125000,0.6551073074340820
0.6313127517700196,0.6592563629150391
0.6313127517700196,0.6592563629150391
0.6303359985351562,0.6581434249877930
0.6303359985351562,0.6581434249877930
0.6345863342285156,0.6625391006469726
0.6345863342285156,0.6625391006469726
0.6333337783813476,0.6645292282104492
0.6372259140014648,0.6645292282104492
0.6365455627441406,0.6664793014526367
0.6365455627441406,0.6664793014526367
0.6387216567993164,0.6725177764892578
0.6387216567993164,0.6725177764892578
0.6391124725341797,0.6730487823486327
0.6391124725341797,0.6730487823486327
0.6444408416748046,0.6791421890258789
0.6444408416748046,0.6791421890258789
0.6434972763061523,0.6822446823120117
0.6434972763061523,0.6822446823120117
0.6474071502685547,0.6846628189086914
0.6474071502685547,0.6846628189086914
0.6495374679565430,0.6906904220581055
0.6495374679565430,0.6906904220581055
0.6498378753662110,0.6906452178955078
0.6514926910400390,0.6906452178955078
0.6541563034057617,0.6953144073486328
0.6541563034057617,0.6953144073486328
0.6524065017700195,0.6961772918701171
0.6524065017700195,0.6961772918701171
0.6549510955810547,0.6965354919433594
0.6549510955810547,0.6965354919433594
0.6561367034912109,0.7002428054809570
0.6561367034912109,0.7002428054809570
0.6545310974121094,0.6980009078979492
0.6545310974121094,0.6980009078979492
0.6579116821289063,0.7009174346923828
0.6579116821289063,0.7009174346923828
0.6554700851440429,0.7008733749389648
0.6554700851440429,0.7008733749389648
0.6578996658325195,0.7008110046386719
0.6578996658325195,0.7008110046386719
0.6585765838623047,0.7047145843505859
0.6585765838623047,0.7047145843505859
0.6575523376464844,0.7027359008789062
0.6575523376464844,0.7027359008789062
0.6613191604614258,0.7065616607666015
0.6613191604614258,0.7065616607666015
0.6595962524414062,0.7075704574584961
0.6595962524414062,0.7075704574584961
0.6623485565185546,0.7088447570800781
0.6623485565185546,0.7088447570800781
0.6639066696166992,0.7137897491455077
0.6639066696166992,0.7137897491455077
0.6684854507446288,0.7172710418701171
0.6683240890502929,0.7172710418701171
0.6666475296020508,0.7176813125610352
0.6666475296020508,0.7176813125610352
0.6704790115356445,0.7235921859741211
0.6704790115356445,0.7235921859741211
0.6689695358276367,0.7243154525756835
0.6689695358276367,0.7243154525756835
0.6738435745239257,0.7285234451293945
0.6738435745239257,0.7285234451293945
0.6742475509643554,0.7329534530639649
0.6742475509643554,0.7329534530639649
0.6758508682250977,0.7337465286254883
0.6758508682250977,0.7337465286254883
0.6792377471923828,0.7396757125854492
0.6792377471923828,0.7396757125854492
0.6788251876831054,0.7402427673339843
0.6788251876831054,0.7402427673339843
0.6830789566040039,0.7443632125854492
0.6830789566040039,0.7443632125854492
0.6832168579101562,0.7484167098999023
0.6832168579101562,0.7484167098999023
0.6841878890991211,0.7488864898681641
0.6841878890991211,0.7488864898681641
0.6883369445800781,0.7547109603881835
0.6883369445800781,0.7547109603881835
0.6874677658081054,0.7551321029663086
0.6874677658081054,0.7551321029663086
0.6913702011108398,0.7590333938598632
0.6913702011108398,0.7590333938598632
0.6909730911254882,0.7628368377685547
0.6909730911254882,0.7628368377685547
0.6929729461669921,0.7631086349487305
0.6929729461669921,0.7631086349487305
0.6964942932128906,0.7687025070190430
0.6964942932128906,0.7687025070190430
0.6950815200805663,0.7683683395385742
0.6950815200805663,0.7683683395385742
0.6976930618286132,0.7698514938354492
0.6976930618286132,0.7698514938354492
0.6948022842407227,0.7657894134521485
0.6948022842407227,0.7657894134521485
0.6870626449584961,0.7464374542236328
0.6870626449584961,0.7464374542236328
0.6743946075439453,0.7213743209838867
0.6743946075439453,0.7213743209838867
0.6556531906127929,0.6940807342529297
0.6556531906127929,0.6940807342529297
0.6476074218750000,0.6784446716308593
0.6476074218750000,0.6784446716308593
0.6388360977172851,0.6688762664794922
0.6388360977172851,0.6688762664794922
0.6341073989868163,0.6597524642944336
0.6341073989868163,0.6597524642944336
0.6330127716064453,0.6585622787475586
0.6330127716064453,0.6585622787475586
0.6291246414184570,0.6537431716918946
0.6291246414184570,0.6537431716918946
0.6305746078491211,0.6533271789550781
0.6305746078491211,0.6533271789550781
0.6286113739013671,0.6539062500000000
0.6307147979736328,0.6539062500000000
0.6278280258178711,0.6513782501220703
0.6278280258178711,0.6513782501220703
0.6307216644287109,0.6550031661987304
0.6307216644287109,0.6550031661987304
0.6284809112548828,0.6535835266113281
0.6284809112548828,0.6535835266113281
0.6317052841186523,0.6557853698730468
0.6317052841186523,0.6557853698730468
0.6308956146240234,0.6588798522949219
0.6308956146240234,0.6588798522949219
0.6324159622192382,0.6587837219238281
0.6324159622192382,0.6587837219238281
0.6362937927246094,0.6647140502929687
0.6362937927246094,0.6647140502929687
0.6355579376220702,0.6658035278320312
0.6355579376220702,0.6658035278320312
0.6398769378662109,0.6706707000732421
0.6398769378662109,0.6706707000732421
0.6412324905395508,0.6763240814208984
0.6412324905395508,0.6763240814208984
0.6437868118286133,0.6784933090209960
0.6437868118286133,0.6784933090209960
0.6484439849853515,0.6858106613159179
0.6484439849853515,0.6858106613159179
0.6476766586303710,0.6873659133911133
0.6476766586303710,0.6873659133911133
0.6526233673095703,0.6917169570922851
0.6526233673095703,0.6917169570922851
0.6530096054077148,0.6957057952880860
0.6530096054077148,0.6957057952880860
0.6540109634399414,0.6954294204711914
0.6540109634399414,0.6954294204711914
0.6566453933715820,0.6996482849121094
0.6566453933715820,0.6996482849121094
0.6548469543457031,0.6980346679687500
0.6548469543457031,0.6980346679687500
0.6577577590942383,0.6996202468872070
0.6577577590942383,0.6996202468872070
0.6564422607421875,0.7011703491210938
0.6564422607421875,0.7011703491210938
0.6560909271240234,0.6989982604980468
0.6560909271240234,0.6989982604980468
0.6588924407958984,0.7025241851806641
0.6588924407958984,0.7025241851806641
0.6566259384155273,0.7008115768432617
0.6566259384155273,0.7008115768432617
0.6594841003417968,0.7027582168579102
0.6594841003417968,0.7027582168579102
0.6583110809326171,0.7052003860473632
0.6583110809326171,0.7052003860473632
0.6595870971679687,0.7044290542602539
0.6595870971679687,0.7044290542602539
0.6626277923583984,0.7090925216674805
0.6626277923583984,0.7090925216674805
0.6610462188720703,0.7087308883666992
0.6610462188720703,0.7087308883666992
0.6643678665161132,0.7120370864868164
0.6643678665161132,0.7120370864868164
0.6646476745605469,0.7158353805541992
0.6646476745605469,0.7158353805541992
0.6661113739013672,0.7160814285278320
0.6661113739013672,0.7160814285278320
0.6697992324829102,0.7218687057495117
0.6697992324829102,0.7218687057495117
0.6683275222778320,0.7223533630371094
0.6683275222778320,0.7223533630371094
0.6731752395629883,0.7266397476196289
0.6731752395629883,0.7266397476196289
0.6733812332153321,0.7311212539672851
0.6733812332153321,0.7311212539672851
0.6751401901245117,0.7318788528442383
0.6751401901245117,0.7318788528442383
0.6786512374877930,0.7380352020263672
0.6786512374877930,0.7380352020263672
0.6782369613647461,0.7389255523681640
0.6782369613647461,0.7389255523681640
0.6825960159301757,0.7430809020996093
0.6825960159301757,0.7430809020996093
0.6828220367431640,0.7475446701049805
0.6828220367431640,0.7475446701049805
0.6840127944946289,0.7481185913085937
0.6840127944946289,0.7481185913085937
0.6883209228515624,0.7542125701904296
0.6883209228515624,0.7542125701904296
0.6872983932495117,0.7547372817993164
0.6872983932495117,0.7547372817993164
0.6914560317993164,0.7587312698364258
0.6914560317993164,0.7587312698364258
0.6911424636840821,0.7628402709960938
0.6911424636840821,0.7628402709960938
0.6930341720581055,0.7631172180175781
0.6930341720581055,0.7631172180175781
0.6966430664062500,0.7684930801391602
0.6966430664062500,0.7684930801391602
0.6947210311889648,0.7670734405517577
0.6947210311889648,0.7670734405517577
0.6955043792724609,0.7639795303344726
0.6955043792724609,0.7639795303344726
0.6877309799194335,0.7503524780273437
0.6877309799194335,0.7503524780273437
0.6738012313842773,0.7210247039794921
0.6738012313842773,0.7210247039794921
0.6601198196411132,0.6985445022583008
0.6601198196411132,0.6985445022583008
0.6454565048217773,0.6784440994262695
0.6454565048217773,0.6784440994262695
0.6406408309936523,0.6680728912353515
0.6406408309936523,0.6680728912353515
0.6342206954956054,0.6621402740478516
0.6342206954956054,0.6621402740478516
0.6310667037963867,0.6553979873657226
0.6310667037963867,0.6553979873657226
0.6308412551879883,0.6555095672607422
0.6308412551879883,0.6555095672607422
0.6274377822875976,0.6513931274414062
0.6274377822875976,0.6513931274414062
0.6293552398681640,0.6516191482543945
0.6293552398681640,0.6516191482543945
0.6274709701538086,0.6525449752807617
0.6274709701538086,0.6525449752807617
0.6270257949829101,0.6503711700439453
0.6270257949829101,0.6503711700439453
0.6300075531005859,0.6541299819946289
0.6300075531005859,0.6541299819946289
0.6279069900512695,0.6529266357421875
0.6279069900512695,0.6529266357421875
0.6312709808349609,0.6553997039794922
0.6312709808349609,0.6553997039794922
0.6303943634033203,0.6585468292236328
0.6303943634033203,0.6585468292236328
0.6320491790771484,0.6585599899291992
0.6320491790771484,0.6585599899291992
0.6359813690185546,0.6646688461303710
0.6359813690185546,0.6646688461303710
0.6352077484130859,0.6658424377441406
0.6352077484130859,0.6658424377441406
0.6396612167358399,0.6708263397216797
0.6396612167358399,0.6708263397216797
0.6411197662353515,0.6765930175781250
0.6411197662353515,0.6765930175781250
0.6436792373657226,0.6787010192871094
0.6436792373657226,0.6787010192871094
0.6482780456542968,0.6861711502075195
0.6482780456542968,0.6861711502075195
0.6476617813110351,0.6880571365356445
0.6476617813110351,0.6880571365356445
0.6530559539794921,0.6928035736083984
0.6530559539794921,0.6928035736083984
0.6534656524658203,0.6973943710327148
0.6534656524658203,0.6973943710327148
0.6550031661987304,0.6975603103637695
0.6550031661987304,0.6975603103637695
0.6579042434692383,0.7024955749511719
0.6579042434692383,0.7024955749511719
0.6565887451171875,0.7017333984374999
0.6565887451171875,0.7017333984374999
0.6598022460937499,0.7036239624023437
0.6598022460937499,0.7036239624023437
0.6587871551513672,0.7060747146606445
0.6587871551513672,0.7060747146606445
0.6586704254150391,0.7043174743652344
0.6586704254150391,0.7043174743652344
0.6616481781005860,0.7082914352416992
0.6616481781005860,0.7082914352416992
0.6594972610473633,0.7068386077880859
0.6594972610473633,0.7068386077880859
0.6626192092895508,0.7088516235351562
0.6626192092895508,0.7088516235351562
0.6613603591918945,0.7115409851074218
0.6613603591918945,0.7115409851074218
0.6625602722167968,0.7107009887695312
0.6625602722167968,0.7107009887695312
0.6656421661376953,0.7155870437622071
0.6656421661376953,0.7155870437622071
0.6639484405517578,0.7151075363159179
0.6639484405517578,0.7151075363159179
0.6672409057617187,0.7182243347167968
0.6672409057617187,0.7182243347167968
0.6674703598022461,0.7218664169311523
0.6674703598022461,0.7218664169311523
0.6687435150146485,0.7218761444091797
0.6687435150146485,0.7218761444091797
0.6722116470336914,0.7273309707641601
0.6722116470336914,0.7273309707641601
0.6706003189086914,0.7275844573974609
0.6706003189086914,0.7275844573974609
0.6750349044799805,0.7312500000000000
0.6750349044799805,0.7312500000000000
0.6750932693481445,0.7354763031005859
0.6750932693481445,0.7354763031005859
0.6765987396240234,0.7359872817993164
0.6765987396240234,0.7359872817993164
0.6799901962280274,0.7419021606445312
0.6799901962280274,0.7419021606445312
0.6794694900512696,0.7426803588867187
0.6794694900512696,0.7426803588867187
0.6837873458862305,0.7467773437499999
0.6837873458862305,0.7467773437499999
0.6840385437011719,0.7513944625854492
0.6840385437011719,0.7513944625854492
0.6853254318237304,0.7522293090820312
0.6853254318237304,0.7522293090820312
0.6894950866699219,0.7582695007324218
0.6894550323486328,0.7582695007324218
0.6886865615844726,0.7588428497314453
0.6886865615844726,0.7588428497314453
0.6926771163940429,0.7626520156860351
0.6926771163940429,0.7626520156860351
0.6921277999877929,0.7663278579711914
0.6921277999877929,0.7663278579711914
0.6930564880371094,0.7646221160888672
0.6930564880371094,0.7646221160888672
0.6932933807373046,0.7621627807617187
0.6932933807373046,0.7621627807617187
0.6829914093017578,0.7435838699340820
0.6829914093017578,0.7435838699340820
0.6713104248046875,0.7195375442504882
0.6713104248046875,0.7195375442504882
0.6574275970458984,0.7005901336669922
0.6574275970458984,0.7005901336669922
0.6477905273437500,0.6826652526855469
0.6477905273437500,0.6826652526855469
0.6425004959106445,0.6746915817260742
0.6425004959106445,0.6746915817260742
0.6346487045288086,0.6655500411987304
0.6346487045288086,0.6655500411987304
0.6347448348999023,0.6626409530639649
0.6347448348999023,0.6626409530639649
0.6316486358642578,0.6619909286499023
0.6316486358642578,0.6619909286499023
0.6308166503906250,0.6587636947631835
0.6308166503906250,0.6587636947631835
0.6323587417602539,0.6616888046264648
0.6323587417602539,0.6616888046264648
0.6304086685180664,0.6602909088134765
0.6304086685180664,0.6602909088134765
0.6336090087890625,0.6623325347900391
0.6316904067993164,0.6623325347900391
0.6336633682250976,0.6666601181030273
0.6336633682250976,0.6666601181030273
0.6338527679443359,0.6681255340576172
0.6338527679443359,0.6681255340576172
0.6372505187988281,0.6694942474365234
0.6372505187988281,0.6694942474365234
0.6389923095703125,0.6750240325927734
0.6389923095703125,0.6750240325927734
0.6388006210327148,0.6745582580566406
0.6388006210327148,0.6745582580566406
0.6434846878051758,0.6802333831787110
0.6434846878051758,0.6802333831787110
0.6425548553466797,0.6830692291259766
0.6425548553466797,0.6830692291259766
0.6462850570678711,0.6854953765869141
0.6462850570678711,0.6854953765869141
0.6488056182861328,0.6913970947265625
0.6488056182861328,0.6913970947265625
0.6487621307373047,0.6913364410400390
0.6487621307373047,0.6913364410400390
0.6537855148315429,0.6967123031616210
0.6537855148315429,0.6967123031616210
0.6521392822265625,0.6988998413085937
0.6521392822265625,0.6988998413085937
0.6539834976196289,0.6995012283325195
0.6539834976196289,0.6995012283325195
0.6570722579956054,0.7038837432861328
0.6577543258666992,0.7038837432861328
0.6561412811279297,0.7018306732177734
0.6574630737304688,0.7018306732177734
0.6594200134277344,0.7053348541259765
0.6594200134277344,0.7053348541259765
0.6568782806396484,0.7052289962768554
0.6568782806396484,0.7052289962768554
0.6593313217163086,0.7048044204711914
0.6593313217163086,0.7048044204711914
0.6604757308959961,0.7082181930541992
0.6604757308959961,0.7082181930541992
0.6590023040771484,0.7059127807617187
0.6590023040771484,0.7059127807617187
0.6626140594482421,0.7094278335571289
0.6626140594482421,0.7094278335571289
0.6602313995361327,0.7100835800170898
0.6602313995361327,0.7100835800170898
0.6631381988525390,0.7104400634765625
0.6616367340087891,0.7104400634765625
0.6644496917724609,0.7148769378662109
0.6644496917724609,0.7148769378662109
0.6636308670043946,0.7132198333740234
0.6636308670043946,0.7132198333740234
0.6675395965576172,0.7174850463867187
0.6675395965576172,0.7174850463867187
0.6658412933349609,0.7189418792724609
0.6658412933349609,0.7189418792724609
0.6686943054199218,0.7199798583984375
0.6686943054199218,0.7199798583984375
0.6704017639160156,0.7248670578002929
0.6704017639160156,0.7248670578002929
0.6697380065917968,0.7237031936645507
0.6697380065917968,0.7237031936645507
0.6741600036621094,0.7283929824829102
0.6741600036621094,0.7283929824829102
0.6723209381103515,0.7304712295532226
0.6723209381103515,0.7304712295532226
0.6756500244140625,0.7318805694580078
0.6744260787963867,0.7318805694580078
0.6777671813964844,0.7375768661499024
0.6777671813964844,0.7375768661499024
0.6779308319091797,0.7372472763061523
0.6779308319091797,0.7372472763061523
0.6822086334228515,0.7426197052001953
0.6822086334228515,0.7426197052001953
0.6808691024780273,0.7450778961181640
0.6808691024780273,0.7450778961181640
0.6843801498413086,0.7469455718994140
0.6843801498413086,0.7469455718994140
0.6869155883789062,0.7529949188232422
0.6869155883789062,0.7529949188232422
0.6867816925048827,0.7529285430908202
0.6867816925048827,0.7529285430908202
0.6914045333862304,0.7582357406616210
0.6914045333862304,0.7582357406616210
0.6899179458618164,0.7608558654785156
0.6899179458618164,0.7608558654785156
0.6934867858886719,0.7620592117309570
0.6934867858886719,0.7620592117309570
0.6940887451171874,0.7640190124511719
0.6940887451171874,0.7640190124511719
0.6884325027465820,0.7511615753173828
0.6884325027465820,0.7511615753173828
0.6812324523925781,0.7344612121582031
0.6812324523925781,0.7344612121582031
0.6667642593383789,0.7151693344116211
0.6667642593383789,0.7151693344116211
0.6594406127929687,0.6993289947509765
0.6594406127929687,0.6993289947509765
0.6527915954589844,0.6903476715087891
0.6527915954589844,0.6903476715087891
0.6456630706787109,0.6788887023925781
0.6456630706787109,0.6788887023925781
0.6452190399169921,0.6764516830444336
0.6452190399169921,0.6764516830444336
0.6398923873901367,0.6732822418212890
0.6398923873901367,0.6732822418212890
0.6407724380493164,0.6708114624023437
0.6407724380493164,0.6708114624023437
0.6410379409790039,0.6732810974121094
0.6410379409790039,0.6732810974121094
0.6393367767333984,0.6703914642333985
0.6393367767333984,0.6703914642333985
0.6425674438476562,0.6736106872558594
0.6425674438476562,0.6736106872558594
0.6400783538818359,0.6741651535034180
0.6400783538818359,0.6741651535034180
0.6425737380981446,0.6744895935058594
0.6425737380981446,0.6744895935058594
0.6444803237915039,0.6791547775268555
0.6444803237915039,0.6791547775268555
0.6438543319702148,0.6783010482788085
0.6438543319702148,0.6783010482788085
0.6480651855468750,0.6834102630615234
0.6480651855468750,0.6834102630615234
0.6468841552734375,0.6861900329589844
0.6468841552734375,0.6861900329589844
0.6509599685668945,0.6887701034545898
0.6509599685668945,0.6887701034545898
0.6537700653076172,0.6958259582519531
0.6537700653076172,0.6958259582519531
0.6543262481689452,0.6967952728271484
0.6543262481689452,0.6967952728271484
0.6596071243286132,0.7036479949951172
0.6596071243286132,0.7036479949951172
0.6592002868652344,0.7076986312866210
0.6592002868652344,0.7076986312866210
0.6635015487670898,0.7107576370239258
0.6635015487670898,0.7107576370239258
0.6663442611694336,0.7170925140380859
0.6663442611694336,0.7170925140380859
0.6663568496704101,0.7171205520629883
0.6663568496704101,0.7171205520629883
0.6709785461425781,0.7221427917480469
0.6709785461425781,0.7221427917480469
0.6690216064453125,0.7240013122558594
0.6690216064453125,0.7240013122558594
0.6720451354980469,0.7243062973022460
0.6720451354980469,0.7243062973022460
0.6733520507812499,0.7284038543701171
0.6733520507812499,0.7284038543701171
0.6724765777587890,0.7263164520263672
0.6737171173095703,0.7263164520263672
0.6758411407470702,0.7298875808715820
0.6758411407470702,0.7298875808715820
0.6733760833740234,0.7306211471557617
0.6733760833740234,0.7306211471557617
0.6759967803955078,0.7307184219360351
0.6759967803955078,0.7307184219360351
0.6775005340576171,0.7350557327270507
0.6775005340576171,0.7350557327270507
0.6765094757080078,0.7335542678833008
0.6765094757080078,0.7335542678833008
0.6803461074829101,0.7376220703124999
0.6803461074829101,0.7376220703124999
0.6783473968505859,0.7393152236938476
0.6783473968505859,0.7393152236938476
0.6817033767700195,0.7403743743896484
0.6817033767700195,0.7403743743896484
0.6835229873657226,0.7458131790161132
0.6835229873657226,0.7458131790161132
0.6831602096557617,0.7449457168579101
0.6831602096557617,0.7449457168579101
0.6862415313720703,0.7495084762573242
0.6862415313720703,0.7498729705810546
0.6903190612792969,0.7555383682250977
0.6903190612792969,0.7555383682250977
0.6893606185913086,0.7563337326049805
0.6893606185913086,0.7563337326049805
0.6932126998901367,0.7604507446289063
0.6932126998901367,0.7604507446289063
0.6938678741455078,0.7652389526367187
0.6938678741455078,0.7652389526367187
0.6955535888671874,0.7661396026611328
0.6955535888671874,0.7661396026611328
0.6996408462524414,0.7719783782958984
0.6996408462524414,0.7719783782958984
0.6985187530517578,0.7726484298706054
0.6985187530517578,0.7726484298706054
0.7027135848999023,0.7765033721923827
0.7027135848999023,0.7765033721923827
0.7030008316040038,0.7810976028442382
0.7030008316040038,0.7810976028442382
0.7043037414550781,0.7813385009765624
0.7043037414550781,0.7813385009765624
0.7078863143920898,0.7866067886352539
0.7078863143920898,0.7866067886352539
0.7066846847534179,0.7861347198486328
0.7066846847534179,0.7861347198486328
0.7093694686889648,0.7867795944213867
0.7093694686889648,0.7867795944213867
0.7048233032226562,0.7810146331787109
0.7048233032226562,0.7810146331787109
0.6953401565551758,0.7590030670166016
0.6953401565551758,0.7470651626586914
0.6874614715576172,0.7352108001708985
0.6828174591064453,0.7352108001708985
0.6599470138549804,0.6977920532226562
0.6599470138549804,0.6977920532226562
0.6463279724121094,0.6839006423950195
0.6463279724121094,0.6784440994262695
0.6432895660400391,0.6735958099365235
0.6432895660400391,0.6735958099365235
0.6420141220092773,0.6716629028320312
0.6420141220092773,0.6716629028320312
0.6420141220092773,0.6715610504150390
0.6386827468872071,0.6699050903320313
0.6388870239257812,0.6699050903320313
0.6422407150268554,0.6728221893310546
0.6422407150268554,0.6728221893310546
0.6394832611083984,0.6710002899169921
0.6394832611083984,0.6710002899169921
0.6426252365112305,0.6727661132812500
0.6426252365112305,0.6727661132812500
0.6417606353759765,0.6756540298461914
0.6417606353759765,0.6756540298461914
0.6423883438110352,0.6747385025024414
0.6423883438110352,0.6747385025024414
0.6456699371337891,0.6793527603149414
0.6456699371337891,0.6793527603149414
0.6444471359252929,0.6794855117797851
0.6444471359252929,0.6794855117797851
0.6484966278076172,0.6832466125488281
0.6484966278076172,0.6832466125488281
0.6488548278808594,0.6883529663085938
0.6488548278808594,0.6883529663085938
0.6506423950195312,0.6898321151733399
0.6506423950195312,0.6898321151733399
0.6556955337524414,0.6966407775878906
0.6556955337524414,0.6966407775878906
0.6553688049316406,0.6985502243041992
0.6553688049316406,0.6985502243041992
0.6601381301879883,0.7035249710083008
0.6601381301879883,0.7035249710083008
0.6607126235961914,0.7089815139770508
0.6607126235961914,0.7089815139770508
0.6628166198730469,0.7101104736328124
0.6628166198730469,0.7101104736328124
0.6670915603637695,0.7157667160034179
0.6670915603637695,0.7157667160034179
0.6658372879028320,0.7159149169921875
0.6658372879028320,0.7159149169921875
0.6691955566406250,0.7187129974365234
0.6691955566406250,0.7187129974365234
0.6690839767456055,0.7220752716064452
0.6690839767456055,0.7220752716064452
0.6697751998901367,0.7212152481079102
0.6697751998901367,0.7212152481079102
0.6728742599487304,0.7250947952270508
0.6728742599487304,0.7250947952270508
0.6706501007080078,0.7240797042846679
0.6706501007080078,0.7240797042846679
0.6739465713500976,0.7262672424316406
0.6739465713500976,0.7262672424316406
0.6733709335327148,0.7296089172363281
0.6733709335327148,0.7296089172363281
0.6742441177368164,0.7290046691894531
0.6742441177368164,0.7290046691894531
0.6773340225219726,0.7333007812500000
0.6773340225219726,0.7333007812500000
0.6759395599365234,0.7330375671386719
0.6759395599365234,0.7330375671386719
0.6795478820800781,0.7359409332275391
0.6776229858398437,0.7359409332275391
0.6792503356933594,0.7398330688476562
0.6792503356933594,0.7398330688476562
0.6802190780639649,0.7397197723388672
0.6802190780639649,0.7397197723388672
0.6842994689941406,0.7449914932250976
0.6842994689941406,0.7449914932250976
0.6830680847167968,0.7451236724853515
0.6830680847167968,0.7451236724853515
0.6868806838989258,0.7487119674682617
0.6868806838989258,0.7487119674682617
0.6866695404052734,0.7530750274658203
0.6866695404052734,0.7530750274658203
0.6883935928344727,0.7535047531127930
0.6883935928344727,0.7535047531127930
0.6925283432006836,0.7592519760131836
0.6925283432006836,0.7592519760131836
0.6915390014648437,0.7598882675170898
0.6915390014648437,0.7598882675170898
0.6954196929931641,0.7637466430664063
0.6943439483642578,0.7640693664550781
0.6943439483642578,0.7695116043090821
0.6991247177124024,0.7697118759155274
0.6978326797485351,0.7697118759155274
0.6977245330810546,0.7726793289184570
0.6977245330810546,0.7726793289184570
0.7013545989990234,0.7743101119995117
0.7013545989990234,0.7743101119995117
0.7034391403198242,0.7798725128173828
0.7034391403198242,0.7798725128173828
0.7029945373535156,0.7784299850463867
0.7029945373535156,0.7784299850463867
0.7058366775512696,0.7795949935913086
0.7058366775512696,0.7795949935913086
0.6982521057128906,0.7688426971435547
0.6982521057128906,0.7688426971435547
0.6888015747070312,0.7454092025756835
0.6888015747070312,0.7454092025756835
0.6757598876953125,0.7254735946655273
0.6757598876953125,0.7254735946655273
0.6630140304565429,0.7049068450927735
0.6630140304565429,0.7049068450927735
0.6576845169067382,0.6938890457153321
0.6576845169067382,0.6938890457153321
0.6481670379638672,0.6842256546020508
0.6481670379638672,0.6842256546020508
0.6460298538208008,0.6769197463989257
0.6460298538208008,0.6769197463989257
0.6439830780029296,0.6762250900268555
0.6432025909423827,0.6762250900268555
0.6404680252075196,0.6704624176025390
0.6404680252075196,0.6704624176025390
0.6424650192260742,0.6715650558471680
0.6424650192260742,0.6715650558471680
0.6388252258300781,0.6708360671997070
0.6388252258300781,0.6708360671997070
0.6405521392822265,0.6696041107177734
0.6405521392822265,0.6696041107177734
0.6415901184082031,0.6731483459472656
0.6415901184082031,0.6731483459472656
0.6399272918701172,0.6706203460693360
0.6399272918701172,0.6706203460693360
0.6437421798706054,0.6743350982666015
0.6419237136840820,0.6743350982666015
0.6413623809814453,0.6757799148559570
0.6413623809814453,0.6757799148559570
0.6443796157836914,0.6764139175415039
0.6443796157836914,0.6764139175415039
0.6464887619018554,0.6821199417114258
0.6464887619018554,0.6821199417114258
0.6465133666992188,0.6820060729980468
0.6465133666992188,0.6820060729980468
0.6515596389770507,0.6883134841918945
0.6515596389770507,0.6883134841918945
0.6507310867309570,0.6923046112060547
0.6507310867309570,0.6923046112060547
0.6551204681396484,0.6954734802246093
0.6551204681396484,0.6954734802246093
0.6585874557495117,0.7030900955200196
0.6585874557495117,0.7030900955200196
0.6591224670410156,0.7042127609252929
0.6591224670410156,0.7042127609252929
0.6646293640136719,0.7108835220336914
0.6646293640136719,0.7108835220336914
0.6637315750122070,0.7145982742309570
0.6637315750122070,0.7145982742309570
0.6678211212158203,0.7166141510009766
0.6678211212158203,0.7166141510009766
0.6701848983764648,0.7224557876586913
0.6701848983764648,0.7224557876586913
0.6695503234863281,0.7212432861328125
0.6695503234863281,0.7212432861328125
0.6737234115600585,0.7255971908569335
0.6737234115600585,0.7255971908569335
0.6716348648071289,0.7268531799316406
0.6716348648071289,0.7268531799316406
0.6744071960449218,0.7269487380981445
0.6744071960449218,0.7269487380981445
0.6756551742553710,0.7312379837036133
0.6756551742553710,0.7312379837036133
0.6744672775268554,0.7289886474609375
0.6744672775268554,0.7289886474609375
0.6782220840454102,0.7327995300292969
0.6782220840454102,0.7327995300292969
0.6757026672363281,0.7339565277099609
0.6798276901245117,0.7339565277099609
0.6786935806274413,0.7343473434448242
0.6786935806274413,0.7343473434448242
0.6802293777465820,0.7393449783325196
0.6802293777465820,0.7393449783325196
0.6796749114990234,0.7377960205078125
0.6812587738037109,0.7377960205078125
0.6838634490966796,0.7429567337036133
0.6838634490966796,0.7429567337036133
0.6818555831909180,0.7458595275878906
0.6818555831909180,0.7458595275878906
0.6864389419555664,0.7465839385986328
0.6864389419555664,0.7465839385986328
0.6877635955810547,0.7529977798461914
0.6877635955810547,0.7529977798461914
0.6868206024169922,0.7505956649780273
0.6868206024169922,0.7505956649780273
0.6926301956176758,0.7575170516967773
0.6926301956176758,0.7575170516967773
0.6894132614135742,0.7591386795043945
0.6894132614135742,0.7591386795043945
0.6946426391601562,0.7614686965942382
0.6946426391601562,0.7614686965942382
0.6963306427001953,0.7684158325195313
0.6963306427001953,0.7684158325195313
0.6961675643920898,0.7668651580810547
0.6961675643920898,0.7668651580810547
0.7022111892700195,0.7743330001831055
0.7022111892700195,0.7743330001831055
0.6994537353515625,0.7764690399169921
0.6994537353515625,0.7764690399169921
0.7044954299926758,0.7786651611328125
0.7044954299926758,0.7786651611328125
0.7062126159667969,0.7854675292968750
0.7062126159667969,0.7854675292968750
0.7057977676391601,0.7835231781005859
0.7057977676391601,0.7835231781005859
0.7111421585083008,0.7899353027343750
0.7111421585083008,0.7899353027343750
0.7085729598999023,0.7916816711425781
0.7085729598999023,0.7916816711425781
0.7123420715332031,0.7913675308227539
0.7123420715332031,0.7913675308227539
0.7109024047851562,0.7904777526855469
0.7109024047851562,0.7904777526855469
0.7016510009765625,0.7691986083984375
0.7016510009765625,0.7691986083984375
0.6914955139160156,0.7469650268554687
0.6914955139160156,0.7469650268554687
0.6715759277343750,0.7216438293457031
0.6715759277343750,0.7216438293457031
0.6640777587890625,0.7035747528076172
0.6640777587890625,0.7035747528076172
0.6561246871948242,0.6941671371459961
0.6561246871948242,0.6941671371459961
0.6483673095703125,0.6820449829101562
0.6483673095703125,0.6820449829101562
0.6475816726684570,0.6790987014770508
0.6475816726684570,0.6790987014770508
0.6419185638427735,0.6755355834960938
0.6419185638427735,0.6755355834960938
0.6425531387329101,0.6721584320068359
0.6425531387329101,0.6721584320068359
0.6421566009521484,0.6740427017211914
0.6421566009521484,0.6740427017211914
0.6395599365234375,0.6696573257446289
0.6395599365234375,0.6696573257446289
0.6422138214111328,0.6719003677368164
0.6422138214111328,0.6719003677368164
0.6390289306640625,0.6717424392700195
0.6390289306640625,0.6717424392700195
0.6411941528320312,0.6709676742553711
0.6411941528320312,0.6709676742553711
0.6422613143920898,0.6747316360473633
0.6427248001098632,0.6747316360473633
0.6408021926879882,0.6724731445312500
0.6408021926879882,0.6724731445312500
0.6448562622070312,0.6766828536987305
0.6448562622070312,0.6766828536987305
0.6426532745361327,0.6787605285644531
0.6426532745361327,0.6787605285644531
0.6461929321289063,0.6797533035278320
0.6461929321289063,0.6797533035278320
0.6484085083007812,0.6858329772949219
0.6484085083007812,0.6858329772949219
0.6486059188842773,0.6856739044189453
0.6486059188842773,0.6856739044189453
0.6534845352172851,0.6916334152221679
0.6534845352172851,0.6916334152221679
0.6523178100585937,0.6951713562011719
0.6523178100585937,0.6951713562011719
0.6564439773559571,0.6972764968872071
0.6564439773559571,0.6972764968872071
0.6591287612915039,0.7038419723510742
0.6591287612915039,0.7038419723510742
0.6588066101074218,0.7032737731933594
0.6588066101074218,0.7032737731933594
0.6634363174438477,0.7080631256103516
0.6634363174438477,0.7080631256103516
0.6612585067749023,0.7098672866821288
0.6656118392944336,0.7098672866821288
0.6644153594970703,0.7098958969116210
0.6644153594970703,0.7098958969116210
0.6657045364379882,0.7140798568725586
0.6657045364379882,0.7140798568725586
0.6640022277832031,0.7109264373779297
0.6640022277832031,0.7109264373779297
0.6673324584960937,0.7137456893920898
0.6673324584960937,0.7137456893920898
0.6641241073608398,0.7139167785644531
0.6641241073608398,0.7139167785644531
0.6662704467773437,0.7127958297729492
0.6662704467773437,0.7127958297729492
0.6670143127441406,0.7161643981933593
0.6670143127441406,0.7161643981933593
0.6651134490966797,0.7131311416625976
0.6651134490966797,0.7131311416625976
0.6688894271850586,0.7162891387939453
0.6688894271850586,0.7162891387939453
0.6657749176025390,0.7169242858886719
0.6657749176025390,0.7169242858886719
0.6683143615722656,0.7161924362182617
0.6683143615722656,0.7161924362182617
0.6696098327636718,0.7203426361083984
0.6696098327636718,0.7203426361083984
0.6681049346923827,0.7176870346069336
0.6681049346923827,0.7176870346069336
0.6717390060424805,0.7212078094482421
0.6717390060424805,0.7212078094482421
0.6690324783325196,0.7221885681152344
0.6690324783325196,0.7221885681152344
0.6717298507690429,0.7219688415527343
0.6717298507690429,0.7219688415527343
0.6734888076782226,0.7267461776733398
0.6734888076782226,0.7267461776733398
0.6721887588500977,0.7248115539550781
0.6721887588500977,0.7248115539550781
0.6763240814208984,0.7290441513061523
0.6763240814208984,0.7290441513061523
0.6740037918090820,0.7310382843017578
0.6740037918090820,0.7310382843017578
0.6773740768432617,0.7317014694213867
0.6773740768432617,0.7317014694213867
0.6793733596801758,0.7374624252319336
0.6793733596801758,0.7374624252319336
0.6787027359008789,0.7363454818725585
0.6787027359008789,0.7363454818725585
0.6834966659545898,0.7415702819824218
0.6834966659545898,0.7415702819824218
0.6816816329956055,0.7441297531127929
0.6816816329956055,0.7441297531127929
0.6851343154907227,0.7448278427124023
0.6851343154907227,0.7448278427124023
0.6868274688720702,0.7490060806274413
0.6868274688720702,0.7490060806274413
0.6834903717041015,0.7414993286132813
0.6834903717041015,0.7414993286132813
0.6803129196166992,0.7309118270874023
0.6803129196166992,0.7309118270874023
0.6666698455810547,0.7134252548217773
0.6666698455810547,0.7134252548217773
0.6585182189941406,0.6943342208862304
0.6585182189941406,0.6943342208862304
0.6499265670776367,0.6826097488403320
0.6499265670776367,0.6826097488403320
0.6406047821044921,0.6686107635498046
0.6406047821044921,0.6686107635498046
0.6390764236450195,0.6642316818237305
0.6390764236450195,0.6642316818237305
0.6324462890625000,0.6591688156127929
0.6324462890625000,0.6591688156127929
0.6321001052856445,0.6542976379394531
0.6321001052856445,0.6542976379394531
0.6311828613281250,0.6551473617553710
0.6311828613281250,0.6551473617553710
0.6278474807739257,0.6500158309936523
0.6278474807739257,0.6500158309936523
0.6303514480590821,0.6515922546386719
0.6303514480590821,0.6515922546386719
0.6265794754028320,0.6513290405273438
0.6265794754028320,0.6513290405273438
0.6286800384521484,0.6498996734619140
0.6286800384521484,0.6498996734619140
0.6297878265380860,0.6537826538085937
0.6297878265380860,0.6537826538085937
0.6279973983764648,0.6510412216186523
0.6279973983764648,0.6510412216186523
0.6316566467285156,0.6544647216796875
0.6316566467285156,0.6544647216796875
0.6292047500610352,0.6557716369628906
0.6292047500610352,0.6557716369628906
0.6321578979492187,0.6561704635620117
0.6321578979492187,0.6561704635620117
0.6343151092529297,0.6616876602172851
0.6343151092529297,0.6616876602172851
0.6338184356689452,0.6612899780273437
0.6338184356689452,0.6612899780273437
0.6390855789184570,0.6675241470336913
0.6390855789184570,0.6675241470336913
0.6381906509399414,0.6716571807861328
0.6381906509399414,0.6716571807861328
0.6426807403564453,0.6744140625000000
0.6426807403564453,0.6744140625000000
0.6458919525146484,0.6817440032958985
0.6458919525146484,0.6817440032958985
0.6458925247192383,0.6820758819580078
0.6483484268188476,0.6820758819580078
0.6511213302612304,0.6877658843994140
0.6511213302612304,0.6877658843994140
0.6495311737060546,0.6906417846679688
0.6495311737060546,0.6906417846679688
0.6527618408203125,0.6912769317626953
0.6527618408203125,0.6912769317626953
0.6547960281372071,0.6963397979736328
0.6547960281372071,0.6963397979736328
0.6550804138183594,0.6991281509399414
0.6550804138183594,0.6991281509399414
0.6550804138183594,0.6984386444091797
0.6557069778442383,0.6970653533935547
0.6557069778442383,0.6970653533935547
0.6593250274658203,0.7010421752929688
0.6593250274658203,0.7010421752929688
0.6569337844848633,0.7000768661499023
0.6569337844848633,0.7000768661499023
0.6603223800659179,0.7018392562866210
0.6603223800659179,0.7018392562866210
0.6596054077148438,0.7052455902099609
0.6596054077148438,0.7052455902099609
0.6601215362548828,0.7042585372924804
0.6601215362548828,0.7042585372924804
0.6640537261962890,0.7088464736938477
0.6640537261962890,0.7088464736938477
0.6621540069580077,0.7088275909423828
0.6621540069580077,0.7088275909423828
0.6660633087158203,0.7115140914916992
0.6660633087158203,0.7115140914916992
0.6660999298095703,0.7158863067626953
0.6660999298095703,0.7158863067626953
0.6671550750732421,0.7155538558959961
0.6671550750732421,0.7155538558959961
0.6713350296020507,0.7206882476806641
0.6713350296020507,0.7206882476806641
0.6697763442993164,0.7210653305053710
0.6697763442993164,0.7210653305053710
0.6739110946655273,0.7239921569824218
0.6739110946655273,0.7239921569824218
0.6740301132202148,0.7285749435424804
0.6740301132202148,0.7285749435424804
0.6752901077270508,0.7287231445312500
0.6752901077270508,0.7287231445312500
0.6797613143920899,0.7343639373779297
0.6797613143920899,0.7343639373779297
0.6783948898315429,0.7351930618286132
0.6783948898315429,0.7351930618286132
0.6827482223510742,0.7386846542358398
0.6827482223510742,0.7386846542358398
0.6831527709960937,0.7439443588256835
0.6831527709960937,0.7439443588256835
0.6846393585205078,0.7445022583007812
0.6846393585205078,0.7445022583007812
0.6892044067382812,0.7503072738647460
0.6892044067382812,0.7503072738647460
0.6881160736083984,0.7516302108764649
0.6881160736083984,0.7516302108764649
0.6926708221435547,0.7552700042724609
0.6926708221435547,0.7552700042724609
0.6928539276123047,0.7602916717529297
0.6928539276123047,0.7602916717529297
0.6940607070922852,0.7599592208862305
0.6940607070922852,0.7599592208862305
0.6971855163574219,0.7621381759643554
0.6971855163574219,0.7621381759643554
0.6905164718627930,0.7511260986328124
0.6905164718627930,0.7511260986328124
0.6819705963134766,0.7298028945922851
0.6819705963134766,0.7298028945922851
0.6660947799682617,0.7080774307250977
0.6660947799682617,0.7080774307250977
0.6541666030883789,0.6869842529296875
0.6541666030883789,0.6869842529296875
0.6477796554565429,0.6764081954956055
0.6477796554565429,0.6764081954956055
0.6388996124267577,0.6658218383789062
0.6388996124267577,0.6658218383789062
0.6378038406372070,0.6608488082885742
0.6378038406372070,0.6608488082885742
0.6339357376098632,0.6592758178710937
0.6339357376098632,0.6592758178710937
0.6318569183349609,0.6541345596313476
0.6318569183349609,0.6541345596313476
0.6334207534790038,0.6549619674682617
0.6334207534790038,0.6549619674682617
0.6294725418090820,0.6518606185913086
0.6294725418090820,0.6518606185913086
0.6314992904663086,0.6515722274780273
0.6314992904663086,0.6515722274780273
0.6298627853393555,0.6534044265747070
0.6298627853393555,0.6534044265747070
0.6293655395507812,0.6507768630981445
0.6293655395507812,0.6507768630981445
0.6322763442993163,0.6537340164184570
0.6322763442993163,0.6537340164184570
0.6296150207519531,0.6525730133056641
0.6296150207519531,0.6525730133056641
0.6325807571411133,0.6540206909179688
0.6303256988525391,0.6540206909179688
0.6319622039794922,0.6576147079467773
0.6319622039794922,0.6576147079467773
0.6328491210937500,0.6572822570800781
0.6328491210937500,0.6572822570800781
0.6370542526245117,0.6625499725341797
0.6370542526245117,0.6625499725341797
0.6357067108154296,0.6637121200561523
0.6357067108154296,0.6637121200561523
0.6400148391723632,0.6672758102416992
0.6400148391723632,0.6672758102416992
0.6408777236938477,0.6727403640747071
0.6408777236938477,0.6727403640747071
0.6423505783081055,0.6732616424560547
0.6423505783081055,0.6732616424560547
0.6468143463134766,0.6787359237670898
0.6468143463134766,0.6787359237670898
0.6451389312744140,0.6794031143188476
0.6451389312744140,0.6794031143188476
0.6491226196289063,0.6819110870361328
0.6491226196289063,0.6819110870361328
0.6488788604736327,0.6857454299926757
0.6488788604736327,0.6857454299926757
0.6492073059082031,0.6844791412353516
0.6492073059082031,0.6844791412353516
0.6522325515747071,0.6879735946655273
0.6522325515747071,0.6879735946655273
0.6496622085571289,0.6865139007568359
0.6496622085571289,0.6865139007568359
0.6511116027832031,0.6842422485351562
0.6511116027832031,0.6842422485351562
0.6471834182739258,0.6819311141967773
0.6471834182739258,0.6819311141967773
0.6442068099975585,0.6775251388549804
0.6442068099975585,0.6775251388549804
0.6471302032470703,0.6791467666625977
0.6471302032470703,0.6791467666625977
0.6424232482910156,0.6753839492797852
0.6424232482910156,0.6753839492797852
0.6440820693969727,0.6753931045532227
0.6440820693969727,0.6753931045532227
0.6418579101562499,0.6782632827758789
0.6418579101562499,0.6782632827758789
0.6424324035644531,0.6771451950073242
0.6424324035644531,0.6771451950073242
0.6460865020751952,0.6816822052001953
0.6460865020751952,0.6816822052001953
0.6441873550415039,0.6823940277099609
0.6441873550415039,0.6823940277099609
0.6477996826171875,0.6855537414550781
0.6477996826171875,0.6855537414550781
0.6487998962402344,0.6904935836791992
0.6487998962402344,0.6904935836791992
0.6496335983276367,0.6899259567260742
0.6496335983276367,0.6899259567260742
0.6529443740844726,0.6938501358032226
0.6529443740844726,0.6938501358032226
0.6489904403686523,0.6923023223876953
0.6489904403686523,0.6923023223876953
0.6520059585571288,0.6926118850708007
0.6520059585571288,0.6926118850708007
0.6512878417968749,0.6961750030517578
0.6512878417968749,0.6961750030517578
0.6524471282958985,0.6974229812622070
0.6524471282958985,0.6974229812622070
0.6572416305541992,0.7046928405761719
0.6572416305541992,0.7046928405761719
0.6578361511230468,0.7079721450805664
0.6578361511230468,0.7079721450805664
0.6634305953979492,0.7132232666015624
0.6634305953979492,0.7132232666015624
0.6651065826416015,0.7202550888061523
0.6651065826416015,0.7202550888061523
0.6665124893188477,0.7223934173583985
0.6665124893188477,0.7223934173583985
0.6728307723999023,0.7295597076416015
0.6728307723999023,0.7295597076416015
0.6722030639648438,0.7313770294189453
0.6722030639648438,0.7313770294189453
0.6765918731689453,0.7347370147705078
0.6765918731689453,0.7347370147705078
0.6753776550292968,0.7379631042480469
0.6753776550292968,0.7379631042480469
0.6745336532592773,0.7306926727294921
0.6745336532592773,0.7306926727294921
0.6688121795654297,0.7153667449951172
0.6688121795654297,0.7153667449951172
0.6513278961181640,0.6891454696655274
0.6513278961181640,0.6891454696655274
0.6405498504638671,0.6700103759765624
0.6405498504638671,0.6700103759765624
0.6311691284179687,0.6582836151123047
0.6311691284179687,0.6582836151123047
0.6242763519287109,0.6460412979125977
0.6242763519287109,0.6460412979125977
0.6225677490234375,0.6424581527709960
0.6225677490234375,0.6424581527709960
0.6152172088623047,0.6357341766357422
0.6152172088623047,0.6357341766357422
0.6163490295410156,0.6325469970703125
0.6163490295410156,0.6325469970703125
0.6133827209472656,0.6319896697998046
0.6143909454345703,0.6319896697998046
0.6112758636474609,0.6275001525878906
0.6112758636474609,0.6275001525878906
0.6123424530029297,0.6291847229003906
0.6103940963745117,0.6291847229003906
0.6095661163330078,0.6270217895507812
0.6095661163330078,0.6270217895507812
0.6121845245361328,0.6272644042968750
0.6121845245361328,0.6272644042968750
0.6108947753906250,0.6296522140502929
0.6108947753906250,0.6296522140502929
0.6095438003540039,0.6272472381591797
0.6095438003540039,0.6272472381591797
0.6136299133300781,0.6309127807617188
0.6136299133300781,0.6309127807617188
0.6111104965209960,0.6302026748657227
0.6111104965209960,0.6302026748657227
0.6143617630004883,0.6317705154418946
0.6143617630004883,0.6317705154418946
0.6133489608764648,0.6354497909545899
0.6133489608764648,0.6354497909545899
0.6148624420166016,0.6353422164916992
0.6148624420166016,0.6353422164916992
0.6194326400756835,0.6409830093383789
0.6194326400756835,0.6409830093383789
0.6180633544921875,0.6424530029296874
0.6180633544921875,0.6424530029296874
0.6216585159301757,0.6458324432373047
0.6200563430786132,0.6458324432373047
0.6232583999633788,0.6511013031005859
0.6232583999633788,0.6511013031005859
0.6243942260742187,0.6515069961547851
0.6243942260742187,0.6515069961547851
0.6287841796875000,0.6568840026855468
0.6287841796875000,0.6568840026855468
0.6261468887329101,0.6571071624755859
0.6261468887329101,0.6571071624755859
0.6307085037231445,0.6591567993164062
0.6307085037231445,0.6591567993164062
0.6305419921875000,0.6625568389892578
0.6305419921875000,0.6625568389892578
0.6303005218505859,0.6608837127685546
0.6303005218505859,0.6608837127685546
0.6325286865234375,0.6641344070434571
0.6325286865234375,0.6641344070434571
0.6307903289794922,0.6632440567016601
0.6307903289794922,0.6632440567016601
0.6338184356689452,0.6642465591430664
0.6338184356689452,0.6642465591430664
0.6330591201782226,0.6669656753540039
0.6330591201782226,0.6669656753540039
0.6320159912109374,0.6652307510375977
0.6320159912109374,0.6652307510375977
0.6362823486328125,0.6691125869750977
0.6362823486328125,0.6691125869750977
0.6339254379272461,0.6686159133911133
0.6339254379272461,0.6686159133911133
0.6370765686035156,0.6701528549194335
0.6370765686035156,0.6701528549194335
0.6359069824218749,0.6734767913818359
0.6359069824218749,0.6734767913818359
0.6370691299438477,0.6727512359619140
0.6370691299438477,0.6727512359619140
0.6408325195312500,0.6772253036499023
0.6408325195312500,0.6772253036499023
0.6388103485107421,0.6774616241455078
0.6388103485107421,0.6774616241455078
0.6416318893432617,0.6794071197509766
0.6416318893432617,0.6794071197509766
0.6426172256469727,0.6837238311767578
0.6426172256469727,0.6837238311767578
0.6432151794433594,0.6832706451416015
0.6432151794433594,0.6832706451416015
0.6471273422241210,0.6880565643310547
0.6471273422241210,0.6880565643310547
0.6444185256958007,0.6883752822875976
0.6444185256958007,0.6883752822875976
0.6490499496459960,0.6909410476684570
0.6490499496459960,0.6909410476684570
0.6493658065795899,0.6951152801513671
0.6493658065795899,0.6951152801513671
0.6499099731445312,0.6948858261108398
0.6499099731445312,0.6948858261108398
0.6530513763427734,0.6995412826538085
0.6530513763427734,0.6995412826538085
0.6523080825805664,0.7004184722900391
0.6523080825805664,0.7004184722900391
0.6561933517456054,0.7028068542480469
0.6561933517456054,0.7028068542480469
0.6563758850097656,0.7070852279663086
0.6563758850097656,0.7070852279663086
0.6562013626098633,0.7071384429931641
0.6562013626098633,0.7071384429931641
0.6611349105834960,0.7119672775268554
0.6611349105834960,0.7119672775268554
0.6593198776245117,0.7122545242309570
0.6593198776245117,0.7122545242309570
0.6618169784545899,0.7117206573486328
0.6618169784545899,0.7117206573486328
0.6563055038452148,0.7048604965209960
0.6563055038452148,0.7048604965209960
0.6469139099121094,0.6845088958740234
0.6469139099121094,0.6845088958740234
0.6381660461425781,0.6679658889770508
0.6381660461425781,0.6679658889770508
0.6249252319335937,0.6506956100463867
0.6249252319335937,0.6506956100463867
0.6190933227539063,0.6398986816406250
0.6190933227539063,0.6398986816406250
0.6144990921020508,0.6314002990722656
0.6101291656494140,0.6314002990722656
0.6087947845458984,0.6280672073364257
0.6087947845458984,0.6280672073364257
0.6081636428833007,0.6231548309326171
0.6081636428833007,0.6231548309326171
0.6076681137084960,0.6240148544311523
0.6076681137084960,0.6240148544311523
0.6048906326293945,0.6198995590209960
0.6048906326293945,0.6198995590209960
0.6067188262939452,0.6211715698242187
0.6067188262939452,0.6211715698242187
0.6037519454956054,0.6203321456909180
0.6037519454956054,0.6203321456909180
0.6046182632446289,0.6185754776000977
0.6046182632446289,0.6185754776000977
0.6062135696411133,0.6219806671142578
0.6062135696411133,0.6219806671142578
0.6040620803833008,0.6201879501342773
0.6040620803833008,0.6201879501342773
0.6073625564575195,0.6222272872924804
0.6073625564575195,0.6222272872924804
0.6053993225097656,0.6236063003540039
0.6053993225097656,0.6236063003540039
0.6080263137817382,0.6235931396484374
0.6080263137817382,0.6235931396484374
0.6097400665283202,0.6292018890380859
0.6097400665283202,0.6292018890380859
0.6091632843017578,0.6285472869873047
0.6091632843017578,0.6285472869873047
0.6136682510375976,0.6335083007812500
0.6136682510375976,0.6335083007812500
0.6137638092041016,0.6373352050781250
0.6137638092041016,0.6373352050781250
0.6167495727539062,0.6396251678466797
0.6167495727539062,0.6396251678466797
0.6198566436767577,0.6454856872558593
0.6206108093261719,0.6454856872558593
0.6194852828979492,0.6456956863403320
0.6194852828979492,0.6456956863403320
0.6243146896362305,0.6501296997070313
0.6243146896362305,0.6501296997070313
0.6226638793945313,0.6527080535888672
0.6226638793945313,0.6527080535888672
0.6248033523559570,0.6517181396484375
0.6248033523559570,0.6517181396484375
0.6260444641113281,0.6555364608764648
0.6260444641113281,0.6555364608764648
0.6247798919677734,0.6534662246704102
0.6247798919677734,0.6534662246704102
0.6276678085327149,0.6561281204223632
0.6276678085327149,0.6561281204223632
0.6253818511962891,0.6563186645507812
0.6253818511962891,0.6563186645507812
0.6269227981567382,0.6552921295166015
0.6269227981567382,0.6552921295166015
0.6286548614501953,0.6591367721557617
0.6286548614501953,0.6591367721557617
0.6268129348754883,0.6577102661132812
0.6268129348754883,0.6577102661132812
0.6303268432617187,0.6601861953735352
0.6303268432617187,0.6601861953735352
0.6283109664916992,0.6619571685791016
0.6283109664916992,0.6619571685791016
0.6310409545898438,0.6620944976806641
0.6310409545898438,0.6620944976806641
0.6327169418334960,0.6673061370849609
0.6327169418334960,0.6673061370849609
0.6316795349121094,0.6658756256103515
0.6316795349121094,0.6658756256103515
0.6357049942016602,0.6695983886718749
0.6357049942016602,0.6695983886718749
0.6349393844604492,0.6721796035766602
0.6349393844604492,0.6721796035766602
0.6370285034179687,0.6732896804809571
0.6370285034179687,0.6732896804809571
0.6394094467163086,0.6780435562133789
0.6394094467163086,0.6780435562133789
0.6383474349975585,0.6775165557861328
0.6383474349975585,0.6775165557861328
0.6432174682617188,0.6817731857299805
0.6432174682617188,0.6817731857299805
0.6417394638061523,0.6849500656127929
0.6417394638061523,0.6849500656127929
0.6444156646728515,0.6853763580322265
0.6444156646728515,0.6853763580322265
0.6470855712890625,0.6910623550415039
0.6470855712890625,0.6910623550415039
0.6468566894531250,0.6912322998046875
0.6468566894531250,0.6912322998046875
0.6511568069458008,0.6964199066162109
0.6511568069458008,0.6964199066162109
0.6502784729003906,0.6991653442382812
0.6502784729003906,0.6991653442382812
0.6531326293945312,0.7004928588867188
0.6531326293945312,0.7004928588867188
0.6565732955932617,0.7068122863769531
0.6565732955932617,0.7068122863769531
0.6556789398193359,0.7073724746704101
0.6581102371215820,0.7073724746704101
0.6603303909301758,0.7114070892333985
0.6603303909301758,0.7114070892333985
0.6592609405517578,0.7143682479858399
0.6592609405517578,0.7143682479858399
0.6620035171508789,0.7142160415649413
0.6620035171508789,0.7142160415649413
0.6615188598632812,0.7138944625854492
0.6615188598632812,0.7138944625854492
0.6519447326660156,0.6947753906249999
0.6519447326660156,0.6947753906249999
0.6424118041992187,0.6755567550659179
0.6424118041992187,0.6755567550659179
0.6286966323852539,0.6575763702392577
0.6286966323852539,0.6575763702392577
0.6205541610717773,0.6428443908691406
0.6205541610717773,0.6428443908691406
0.6156291961669922,0.6367738723754882
0.6156291961669922,0.6367738723754882
0.6092348098754883,0.6278589248657226
0.6092348098754883,0.6278589248657226
0.6101446151733398,0.6261114120483399
0.6101446151733398,0.6261114120483399
0.6053993225097656,0.6243106842041015
0.6053993225097656,0.6243106842041015
0.6054267883300781,0.6202371597290038
0.6054267883300781,0.6202371597290038
0.6053129196166992,0.6220298767089844
0.6053129196166992,0.6220298767089844
0.6024839401245117,0.6176210403442383
0.6024839401245117,0.6176210403442383
0.6047029495239258,0.6192140579223633
0.6047029495239258,0.6192140579223633
0.6017927169799805,0.6190670013427734
0.6042280197143555,0.6190670013427734
0.6033205032348633,0.6177932739257812
0.6033205032348633,0.6177932739257812
0.6054588317871094,0.6223588943481445
0.6054588317871094,0.6223588943481445
0.6035419464111328,0.6210622787475586
0.6035419464111328,0.6210622787475586
0.6078174591064452,0.6242294311523438
0.6056144714355468,0.6242294311523438
0.6059766769409179,0.6265565872192382
0.6059766769409179,0.6265565872192382
0.6093847274780273,0.6272695541381835
0.6093847274780273,0.6272695541381835
0.6124448776245117,0.6338121414184570
0.6124448776245117,0.6338121414184570
0.6111797332763672,0.6333377838134765
0.6111797332763672,0.6333377838134765
0.6164011001586914,0.6387308120727538
0.6164011001586914,0.6387308120727538
0.6160715103149413,0.6426212310791015
0.6160715103149413,0.6426212310791015
0.6190109252929688,0.6446531295776367
0.6190109252929688,0.6446531295776367
0.6221752166748047,0.6505325317382812
0.6221752166748047,0.6505325317382812
0.6210514068603515,0.6498825073242187
0.6210514068603515,0.6498825073242187
0.6261011123657226,0.6540081024169921
0.6261011123657226,0.6540081024169921
0.6239364624023437,0.6560794830322265
0.6239364624023437,0.6560794830322265
0.6257371902465820,0.6547187805175781
0.6257371902465820,0.6547187805175781
0.6273902893066406,0.6587556838989258
0.6273902893066406,0.6587556838989258
0.6257205963134765,0.6562946319580077
0.6257205963134765,0.6562946319580077
0.6288728713989258,0.6592941284179688
0.6288728713989258,0.6592941284179688
0.6265268325805664,0.6597610473632812
0.6265268325805664,0.6597610473632812
0.6280094146728515,0.6587144851684570
0.6280094146728515,0.6587144851684570
0.6303583145141601,0.6631570816040039
0.6303583145141601,0.6631570816040039
0.6281290054321289,0.6616985321044921
0.6281290054321289,0.6616985321044921
0.6321063995361328,0.6644742965698242
0.6321063995361328,0.6644742965698242
0.6303668975830078,0.6663757324218750
0.6303668975830078,0.6663757324218750
0.6329143524169921,0.6663871765136719
0.6329143524169921,0.6663871765136719
0.6349439620971680,0.6719879150390625
0.6349439620971680,0.6719879150390625
0.6336536407470703,0.6703004837036133
0.6336536407470703,0.6703004837036133
0.6377626419067383,0.6744855880737305
0.6377626419067383,0.6744855880737305
0.6369415283203125,0.6771108627319335
0.6369415283203125,0.6771108627319335
0.6392143249511718,0.6779794692993164
0.6392143249511718,0.6779794692993164
0.6417829513549804,0.6831258773803711
0.6417829513549804,0.6831258773803711
0.6405607223510742,0.6822401046752929
0.6431545257568360,0.6822401046752929
0.6456499099731445,0.6868114471435547
0.6456499099731445,0.6868114471435547
0.6440059661865234,0.6903367996215820
0.6440059661865234,0.6903367996215820
0.6467702865600585,0.6905113220214844
0.6467702865600585,0.6905113220214844
0.6494173049926758,0.6965675354003906
0.6494173049926758,0.6965675354003906
0.6490499496459960,0.6963335037231445
0.6490499496459960,0.6963335037231445
0.6536682128906249,0.7017454147338867
0.6536682128906249,0.7017454147338867
0.6525444030761719,0.7043952941894531
0.6525444030761719,0.7043952941894531
0.6554374694824219,0.7054269790649413
0.6554374694824219,0.7054269790649413
0.6586109161376953,0.7116004943847656
0.6586109161376953,0.7116004943847656
0.6572959899902343,0.7113859176635742
0.6572959899902343,0.7113859176635742
0.6616607666015625,0.7145055770874024
0.6616607666015625,0.7145055770874024
0.6586893081665038,0.7137651443481445
0.6586893081665038,0.7137651443481445
0.6562356948852539,0.7018615722656250
0.6562356948852539,0.7018615722656250
0.6463668823242187,0.6855857849121093
0.6463668823242187,0.6855857849121093
0.6316389083862305,0.6617614746093750
0.6316389083862305,0.6617614746093750
0.6243450164794921,0.6479387283325195
0.6243450164794921,0.6479387283325195
0.6147233963012695,0.6377918243408203
0.6147233963012695,0.6377918243408203
0.6111242294311523,0.6297197341918945
0.6111242294311523,0.6297197341918945
0.6093555450439453,0.6281112670898438
0.6093555450439453,0.6281112670898438
0.6046337127685547,0.6218942642211914
0.6046337127685547,0.6218942642211914
0.6070301055908203,0.6219583511352539
0.6070301055908203,0.6219583511352539
0.6030738830566406,0.6215005874633789
0.6030738830566406,0.6215005874633789
0.6037570953369140,0.6184324264526367
0.6037570953369140,0.6184324264526367
0.6047607421875000,0.6215234756469726
0.6047607421875000,0.6215234756469726
0.6026132583618163,0.6187030792236328
0.6026132583618163,0.6187030792236328
0.6058261871337890,0.6215978622436523
0.6058261871337890,0.6215978622436523
0.6034383773803711,0.6221454620361327
0.6034383773803711,0.6221454620361327
0.6050994873046874,0.6212888717651367
0.6050994873046874,0.6212888717651367
0.6075336456298828,0.6259729385375976
0.6075336456298828,0.6259729385375976
0.6058416366577148,0.6250408172607421
0.6058416366577148,0.6250408172607421
0.6102870941162110,0.6288911819458007
0.6102870941162110,0.6288911819458007
0.6092061996459961,0.6321493148803711
0.6092061996459961,0.6321493148803711
0.6127790451049805,0.6337921142578125
0.6127790451049805,0.6337921142578125
0.6160062789916992,0.6412416458129883
0.6160062789916992,0.6412416458129883
0.6158288955688477,0.6414676666259765
0.6158288955688477,0.6414676666259765
0.6209449768066406,0.6471153259277344
0.6209449768066406,0.6471153259277344
0.6210136413574219,0.6509136199951172
0.6210136413574219,0.6509136199951172
0.6235559463500976,0.6523155212402344
0.6235559463500976,0.6523155212402344
0.6262384414672851,0.6573143005371094
0.6262384414672851,0.6573143005371094
0.6247747421264648,0.6556726455688476
0.6247747421264648,0.6556726455688476
0.6290405273437499,0.6587310791015625
0.6290405273437499,0.6587310791015625
0.6264890670776367,0.6603269577026367
0.6264890670776367,0.6603269577026367
0.6279264450073242,0.6583780288696289
0.6279264450073242,0.6583780288696289
0.6293243408203125,0.6623725891113281
0.6293243408203125,0.6623725891113281
0.6277679443359375,0.6599029541015625
0.6277679443359375,0.6599029541015625
0.6311187744140625,0.6632978439331054
0.6311187744140625,0.6632978439331054
0.6290782928466797,0.6641738891601562
0.6290782928466797,0.6641738891601562
0.6308670043945312,0.6636783599853515
0.6308670043945312,0.6636783599853515
0.6334287643432617,0.6684396743774413
0.6334287643432617,0.6684396743774413
0.6334356307983399,0.6708183288574219
0.6334356307983399,0.6708183288574219
0.6332765579223633,0.6696739196777344
0.6332765579223633,0.6696739196777344
0.6376768112182617,0.6744850158691406
0.6376768112182617,0.6744850158691406
0.6355321884155273,0.6750572204589843
0.6394363403320312,0.6772476196289062
0.6394363403320312,0.6772476196289062
0.6391399383544921,0.6817491531372070
0.6391399383544921,0.6817491531372070
0.6403272628784179,0.6814985275268555
0.6403272628784179,0.6814985275268555
0.6449283599853516,0.6867919921875000
0.6449283599853516,0.6867919921875000
0.6428907394409179,0.6876720428466797
0.6428907394409179,0.6876720428466797
0.6461431503295898,0.6900438308715821
0.6461431503295898,0.6900438308715821
0.6477235794067383,0.6950174331665039
0.6477235794067383,0.6950174331665039
0.6482763290405273,0.6949487686157226
0.6482763290405273,0.6949487686157226
0.6527183532714843,0.7002319335937500
0.6527183532714843,0.7002319335937500
0.6500707626342773,0.7010890960693359
0.6500707626342773,0.7010890960693359
0.6550741195678711,0.7038631439208984
0.6550741195678711,0.7038631439208984
0.6560096740722656,0.7089031219482421
0.6560096740722656,0.7089031219482421
0.6563014984130859,0.7087429046630859
0.6563014984130859,0.7087429046630859
0.6599487304687500,0.7137725830078124
0.6599487304687500,0.7137725830078124
0.6588043212890625,0.7146291732788086
0.6588043212890625,0.7146291732788086
0.6625597000122070,0.7162696838378906
0.6625597000122070,0.7162696838378906
0.6616115570068359,0.7167600631713867
0.6616115570068359,0.7167600631713867
0.6544269561767578,0.7019828796386719
0.6544269561767578,0.7019828796386719
0.6463926315307617,0.6832557678222656
0.6463926315307617,0.6832557678222656
0.6307434082031250,0.6614828109741211
0.6307434082031250,0.6614828109741211
0.6230455398559570,0.6463457107543945
0.6230455398559570,0.6463457107543945
0.6146020889282227,0.6384075164794921
0.6146020889282227,0.6384075164794921
0.6099740982055664,0.6294170379638672
0.6099740982055664,0.6294170379638672
0.6101772308349609,0.6281032562255859
0.6101772308349609,0.6281032562255859
0.6050388336181640,0.6238632202148438
0.6050388336181640,0.6238632202148438
0.6055400848388671,0.6219268798828125
0.6055400848388671,0.6219268798828125
0.6049879074096679,0.6233676910400391
0.6049879074096679,0.6233676910400391
0.6035705566406250,0.6199905395507812
0.6035705566406250,0.6199905395507812
0.6063697814941406,0.6228292465209960
0.6063697814941406,0.6228292465209960
0.6023237228393554,0.6212814331054687
0.6023237228393554,0.6212814331054687
0.6060745239257812,0.6220241546630859
0.6060745239257812,0.6220241546630859
0.6059251785278320,0.6252405166625976
0.6059251785278320,0.6252405166625976
0.6054044723510742,0.6235742568969727
0.6054044723510742,0.6235742568969727
0.6085681915283203,0.6276964187622071
0.6085681915283203,0.6276964187622071
0.6071039199829101,0.6282348632812500
0.6071039199829101,0.6282348632812500
0.6112913131713867,0.6307680130004882
0.6112913131713867,0.6307680130004882
0.6122406005859374,0.6360877990722656
0.6122406005859374,0.6360877990722656
0.6123676300048828,0.6364746093750000
0.6123676300048828,0.6364746093750000
0.6183071136474609,0.6430206298828125
0.6183071136474609,0.6430206298828125
0.6170957565307617,0.6448602676391602
0.6170957565307617,0.6448602676391602
0.6216424942016602,0.6481355667114258
0.6216424942016602,0.6481355667114258
0.6218044281005859,0.6531108856201172
0.6218044281005859,0.6531108856201172
0.6229997634887695,0.6525798797607422
0.6229997634887695,0.6525798797607422
0.6271894454956054,0.6569412231445312
0.6271894454956054,0.6569412231445312
0.6243741989135742,0.6563180923461914
0.6243741989135742,0.6563180923461914
0.6265794754028320,0.6567832946777343
0.6265794754028320,0.6567832946777343
0.6269554138183594,0.6597072601318359
0.6269554138183594,0.6597072601318359
0.6261983871459961,0.6572874069213867
0.6261983871459961,0.6572874069213867
0.6294622421264648,0.6605066299438477
0.6294622421264648,0.6605066299438477
0.6256216049194335,0.6593713760375977
0.6293592453002930,0.6593713760375977
0.6295955657958984,0.6604402542114257
0.6295955657958984,0.6604402542114257
0.6296625137329102,0.6638500213623046
0.6296625137329102,0.6638500213623046
0.6291389465332031,0.6622364044189453
0.6291389465332031,0.6622364044189453
0.6321836471557617,0.6663150787353516
0.6321836471557617,0.6663150787353516
0.6305374145507813,0.6665353775024414
0.6305374145507813,0.6665353775024414
0.6342973709106445,0.6683927536010742
0.6342973709106445,0.6683927536010742
0.6347579956054688,0.6728101730346679
0.6347579956054688,0.6728101730346679
0.6342264175415039,0.6721452713012696
0.6342264175415039,0.6721452713012696
0.6394660949707031,0.6774175643920898
0.6394660949707031,0.6774175643920898
0.6377008438110351,0.6780887603759765
0.6377008438110351,0.6780887603759765
0.6414150238037110,0.6804811477661132
0.6414150238037110,0.6804811477661132
0.6415220260620117,0.6848207473754883
0.6415220260620117,0.6848207473754883
0.6423660278320312,0.6842588424682617
0.6423660278320312,0.6842588424682617
0.6467176437377929,0.6893136978149413
0.6467176437377929,0.6893136978149413
0.6448551177978515,0.6900707244873047
0.6448551177978515,0.6900707244873047
0.6484399795532226,0.6924762725830078
0.6484399795532226,0.6924762725830078
0.6495803833007813,0.6973382949829101
0.6495803833007813,0.6973382949829101
0.6502195358276367,0.6972009658813476
0.6502195358276367,0.6972009658813476
0.6548480987548828,0.7026735305786133
0.6548480987548828,0.7026735305786133
0.6526473999023438,0.7038213729858398
0.6526473999023438,0.7038213729858398
0.6573017120361327,0.7063276290893554
0.6573017120361327,0.7063276290893554
0.6580593109130859,0.7110534667968750
0.6580593109130859,0.7110534667968750
0.6580066680908203,0.7096567153930664
0.6580066680908203,0.7096567153930664
0.6601266860961914,0.7096870422363281
0.6601266860961914,0.7096870422363281
0.6511264801025390,0.6946254730224609
0.6511264801025390,0.6946254730224609
0.6418899536132813,0.6742395401000977
0.6418899536132813,0.6742395401000977
0.6298376083374023,0.6587882995605469
0.6298376083374023,0.6587882995605469
0.6192695617675781,0.6421405792236328
0.6192695617675781,0.6421405792236328
0.6161378860473633,0.6353799819946289
0.6161378860473633,0.6353799819946289
0.6082174301147460,0.6270486831665039
0.6082174301147460,0.6270486831665039
0.6076114654541015,0.6220424652099609
0.6076114654541015,0.6220424652099609
0.6040477752685547,0.6207395553588867
0.6040477752685547,0.6207395553588867
0.6014339447021484,0.6149379730224609
0.6014339447021484,0.6149379730224609
0.6028232574462891,0.6153007507324219
0.6028232574462891,0.6153007507324219
0.5981763839721680,0.6119693756103516
0.5981763839721680,0.6119693756103516
0.5995159149169922,0.6106395721435547
0.5995159149169922,0.6106395721435547
0.5985357284545898,0.6121049880981445
0.5985357284545898,0.6121049880981445
0.5970245361328125,0.6085996627807617
0.5970245361328125,0.6085996627807617
0.5996189117431641,0.6107877731323242
0.5996189117431641,0.6107877731323242
0.5955963134765625,0.6087804794311523
0.5955963134765625,0.6087804794311523
0.5982524871826171,0.6087696075439453
0.5982524871826171,0.6087696075439453
0.5978118896484375,0.6114080429077148
0.5978118896484375,0.6114080429077148
0.5970188140869140,0.6092611312866211
0.5970188140869140,0.6092611312866211
0.6004537582397461,0.6132699966430664
0.6004537582397461,0.6132699966430664
0.5984086990356445,0.6136573791503906
0.5984086990356445,0.6136573791503906
0.6024850845336914,0.6161550521850586
0.6024850845336914,0.6161550521850586
0.6034269332885742,0.6213930130004882
0.6034269332885742,0.6213930130004882
0.6038309097290039,0.6214702606201171
0.6038309097290039,0.6214702606201171
0.6089389801025390,0.6270853042602539
0.6089389801025390,0.6270853042602539
0.6071868896484375,0.6280534744262695
0.6071868896484375,0.6280534744262695
0.6109972000122070,0.6302965164184570
0.6109972000122070,0.6302965164184570
0.6110321044921875,0.6341377258300781
0.6110321044921875,0.6341377258300781
0.6110664367675781,0.6324388504028320
0.6114686965942383,0.6324388504028320
0.6146518707275390,0.6358303070068360
0.6146518707275390,0.6358303070068360
0.6113153457641601,0.6346338272094726
0.6113153457641601,0.6346338272094726
0.6136505126953125,0.6348861694335938
0.6136505126953125,0.6348861694335938
0.6135595321655273,0.6376630783081054
0.6135595321655273,0.6376630783081054
0.6126646041870117,0.6352066040039063
0.6126646041870117,0.6352066040039063
0.6159948348999024,0.6386959075927734
0.6159948348999024,0.6386959075927734
0.6125999450683594,0.6378507614135742
0.6125999450683594,0.6378507614135742
0.6161888122558593,0.6389883041381835
0.6161888122558593,0.6389883041381835
0.6163192749023437,0.6427036285400390
0.6163192749023437,0.6427036285400390
0.6159931182861328,0.6413463592529297
0.6159931182861328,0.6413463592529297
0.6195356369018554,0.6454679489135742
0.6195356369018554,0.6454679489135742
0.6174173355102539,0.6456378936767578
0.6174173355102539,0.6456378936767578
0.6208814620971680,0.6473711013793945
0.6208814620971680,0.6473711013793945
0.6213495254516601,0.6516443252563476
0.6213495254516601,0.6516443252563476
0.6210199356079101,0.6506532669067383
0.6210199356079101,0.6506532669067383
0.6256822586059571,0.6555107116699218
0.6256822586059571,0.6555107116699218
0.6234060287475586,0.6560428619384765
0.6234060287475586,0.6560428619384765
0.6272964477539062,0.6581691741943360
0.6272964477539062,0.6581691741943360
0.6276620864868164,0.6628520965576171
0.6276620864868164,0.6628520965576171
0.6282886505126953,0.6622838973999023
0.6282886505126953,0.6622838973999023
0.6325922012329102,0.6671390533447266
0.6325922012329102,0.6671390533447266
0.6305437088012695,0.6677478790283203
0.6305437088012695,0.6677478790283203
0.6339054107666016,0.6698770523071289
0.6339054107666016,0.6698770523071289
0.6348758697509765,0.6742881774902344
0.6348758697509765,0.6742881774902344
0.6349742889404296,0.6734453201293945
0.6349742889404296,0.6734453201293945
0.6389722824096680,0.6778398513793945
0.6389722824096680,0.6778398513793945
0.6358114242553711,0.6767698287963867
0.6358114242553711,0.6767698287963867
0.6371749877929688,0.6723306655883788
0.6371749877929688,0.6723306655883788
0.6290943145751953,0.6603132247924804
0.6290943145751953,0.6603132247924804
0.6176490783691406,0.6406597137451172
0.6176490783691406,0.6406597137451172
0.6104719161987304,0.6281747817993164
0.6104719161987304,0.6281747817993164
0.5999284744262695,0.6156509399414062
0.5999284744262695,0.6156509399414062
0.5971807479858399,0.6080926895141602
0.5971807479858399,0.6080926895141602
0.5929212570190430,0.6052122116088867
0.5929212570190430,0.6052122116088867
0.5888608932495117,0.5984149932861328
0.5888608932495117,0.5984149932861328
0.5900596618652344,0.5981294631958007
0.5900596618652344,0.5981294631958007
0.5853189468383789,0.5944284439086914
0.5853189468383789,0.5944284439086914
0.5865875244140625,0.5928485870361327
0.5865875244140625,0.5928485870361327
0.5848709106445312,0.5939981460571289
0.5848709106445312,0.5939981460571289
0.5835382461547851,0.5906999588012695
0.5835382461547851,0.5906999588012695
0.5863037109375000,0.5930946350097656
0.5863037109375000,0.5930946350097656
0.5830146789550781,0.5914764404296875
0.5830146789550781,0.5914764404296875
0.5850717544555664,0.5915548324584960
0.5850717544555664,0.5915548324584960
0.5850242614746094,0.5942293167114258
0.5866058349609374,0.5932565689086914
0.5843467712402344,0.5921613693237304
0.5845962524414062,0.5921613693237304
0.5876420974731446,0.5956987380981446
0.5876420974731446,0.5956987380981446
0.5850179672241210,0.5956598281860351
0.5850179672241210,0.5956598281860351
0.5889707565307617,0.5977981567382812
0.5889707565307617,0.5977981567382812
0.5901597976684571,0.6028942108154297
0.5901597976684571,0.6028942108154297
0.5911153793334961,0.6035785675048828
0.5911153793334961,0.6035785675048828
0.5957370758056640,0.6097309112548828
0.5957370758056640,0.6097309112548828
0.5952358245849609,0.6119922637939453
0.5952358245849609,0.6119922637939453
0.5999427795410156,0.6152824401855469
0.5999427795410156,0.6152824401855469
0.6013315200805663,0.6206880569458008
0.6013315200805663,0.6206880569458008
0.6015918731689452,0.6205020904541015
0.6015918731689452,0.6205020904541015
0.6061380386352538,0.6251117706298828
0.6061380386352538,0.6251117706298828
0.6040082931518554,0.6251312255859375
0.6040082931518554,0.6251312255859375
0.6071834564208984,0.6263191223144531
0.6071834564208984,0.6263191223144531
0.6069414138793945,0.6294233322143554
0.6069414138793945,0.6294233322143554
0.6067417144775390,0.6276346206665039
0.6067417144775390,0.6276346206665039
0.6101486206054687,0.6310581207275391
0.6101486206054687,0.6310581207275391
0.6075736999511718,0.6306095123291016
0.6075736999511718,0.6306095123291016
0.6103631973266601,0.6318288803100586
0.6085687637329101,0.6318288803100586
0.6110813140869140,0.6355779647827148
0.6110813140869140,0.6355779647827148
0.6109600067138672,0.6345943450927735
0.6109600067138672,0.6345943450927735
0.6148029327392578,0.6387559890747070
0.6148029327392578,0.6387559890747070
0.6124334335327148,0.6392217636108398
0.6124334335327148,0.6392217636108398
0.6164228439331054,0.6411420822143554
0.6164228439331054,0.6411420822143554
0.6171289443969726,0.6454559326171875
0.6171289443969726,0.6454559326171875
0.6171970367431641,0.6450536727905273
0.6171970367431641,0.6450536727905273
0.6213060379028320,0.6499036788940430
0.6213060379028320,0.6499036788940430
0.6198308944702148,0.6508747100830078
0.6198308944702148,0.6508747100830078
0.6237556457519531,0.6531984329223632
0.6237556457519531,0.6531984329223632
0.6246723175048828,0.6579139709472656
0.6246723175048828,0.6579139709472656
0.6244989395141601,0.6573234558105469
0.6244989395141601,0.6573234558105469
0.6294130325317383,0.6623634338378906
0.6294130325317383,0.6623634338378906
0.6271900177001953,0.6629281997680664
0.6271900177001953,0.6629281997680664
0.6311845779418945,0.6650041580200196
0.6311845779418945,0.6650041580200196
0.6313894271850585,0.6695131301879883
0.6313894271850585,0.6695131301879883
0.6319152832031250,0.6687801361083984
0.6319152832031250,0.6687801361083984
0.6363103866577148,0.6737377166748046
0.6363103866577148,0.6737377166748046
0.6340284347534180,0.6739408493041992
0.6340284347534180,0.6739408493041992
0.6370948791503906,0.6749393463134765
0.6370948791503906,0.6749393463134765
0.6375406265258788,0.6784881591796875
0.6375406265258788,0.6784881591796875
0.6365861892700195,0.6753232955932617
0.6365861892700195,0.6753232955932617
0.6367704391479492,0.6713304519653320
0.6367704391479492,0.6713304519653320
0.6252765655517578,0.6551811218261718
0.6252765655517578,0.6551811218261718
0.6176296234130859,0.6381168365478516
0.6176296234130859,0.6381168365478516
0.6079748153686523,0.6273410797119140
0.6058170318603515,0.6273410797119140
0.6005304336547851,0.6152395248413086
0.6005304336547851,0.6152395248413086
0.5989631652832031,0.6115247726440429
0.5989631652832031,0.6115247726440429
0.5924222946166992,0.6048677444458007
0.5924222946166992,0.6048677444458007
0.5926992416381835,0.6014116287231445
0.5926992416381835,0.6014116287231445
0.5900968551635742,0.6011758804321289
0.5900968551635742,0.6011758804321289
0.5873188018798828,0.5961816787719726
0.5873188018798828,0.5961816787719726
0.5898324966430664,0.5978628158569336
0.5898324966430664,0.5978628158569336
0.5856508255004883,0.5952495574951172
0.5856508255004883,0.5952495574951172
0.5880306243896484,0.5949411392211914
0.5880306243896484,0.5949411392211914
0.5867580413818360,0.5971384048461914
0.5867580413818360,0.5971384048461914
0.5860153198242187,0.5942659378051758
0.5860153198242187,0.5942659378051758
0.5893547058105468,0.5974027633666992
0.5893547058105468,0.5974027633666992
0.5859718322753906,0.5960546493530273
0.5897769927978516,0.5960546493530273
0.5887235641479492,0.5966016769409179
0.5887235641479492,0.5966016769409179
0.5888351440429688,0.6001253128051758
0.5888351440429688,0.6001253128051758
0.5885496139526367,0.5985500335693359
0.5885496139526367,0.5985500335693359
0.5928365707397460,0.6036157608032227
0.5928365707397460,0.6036157608032227
0.5905609130859375,0.6042520523071289
0.5905609130859375,0.6042520523071289
0.5953067779541016,0.6073774337768555
0.5953067779541016,0.6073774337768555
0.5965879440307617,0.6128665924072265
0.5965879440307617,0.6128665924072265
0.5974050521850586,0.6130485534667969
0.5974050521850586,0.6130485534667969
0.6019809722900390,0.6187557220458985
0.6019809722900390,0.6187557220458985
0.6004514694213867,0.6194749832153320
0.6004514694213867,0.6194749832153320
0.6045061111450195,0.6215526580810546
0.6045061111450195,0.6215526580810546
0.6048213958740234,0.6256021499633789
0.6048213958740234,0.6256021499633789
0.6042297363281249,0.6238042831420898
0.6042297363281249,0.6238042831420898
0.6081785202026367,0.6275533676147461
0.6081785202026367,0.6275533676147461
0.6053535461425781,0.6266899108886719
0.6053535461425781,0.6266899108886719
0.6085790634155274,0.6277919769287109
0.6085790634155274,0.6277919769287109
0.6079381942749024,0.6310260772705077
0.6079381942749024,0.6310260772705077
0.6079170227050781,0.6292184829711914
0.6079170227050781,0.6292184829711914
0.6117925643920898,0.6333806991577148
0.6117925643920898,0.6333806991577148
0.6092250823974609,0.6330745697021484
0.6092250823974609,0.6330745697021484
0.6125215530395508,0.6347488403320313
0.6105091094970703,0.6347488403320313
0.6131853103637696,0.6390644073486328
0.6131853103637696,0.6390644073486328
0.6132911682128906,0.6379291534423828
0.6132911682128906,0.6379291534423828
0.6175752639770508,0.6427202224731445
0.6175752639770508,0.6427202224731445
0.6149150848388671,0.6428930282592773
0.6149150848388671,0.6428930282592773
0.6192283630371094,0.6450365066528320
0.6192283630371094,0.6450365066528320
0.6197135925292968,0.6494527816772461
0.6197135925292968,0.6494527816772461
0.6198938369750976,0.6485704421997071
0.6198938369750976,0.6485704421997071
0.6238431930541992,0.6534507751464843
0.6238431930541992,0.6534507751464843
0.6220132827758789,0.6538553237915039
0.6220132827758789,0.6538553237915039
0.6259820938110351,0.6559770584106445
0.6259820938110351,0.6559770584106445
0.6263151168823242,0.6604505538940429
0.6263151168823242,0.6604505538940429
0.6263134002685546,0.6597072601318359
0.6263134002685546,0.6597072601318359
0.6311639785766602,0.6648233413696288
0.6311639785766602,0.6648233413696288
0.6289878845214844,0.6652404785156250
0.6289878845214844,0.6652404785156250
0.6330190658569336,0.6675247192382813
0.6330190658569336,0.6675247192382813
0.6333171844482421,0.6721263885498047
0.6333171844482421,0.6721263885498047
0.6338144302368164,0.6713396072387695
0.6338144302368164,0.6713396072387695
0.6381385803222656,0.6761037826538085
0.6381385803222656,0.6761037826538085
0.6356403350830078,0.6757839202880859
0.6356403350830078,0.6757839202880859
0.6381826400756836,0.6754022598266601
0.6381826400756836,0.6754022598266601
0.6346647262573242,0.6706272125244140
0.6346647262573242,0.6706272125244140
0.6254911422729492,0.6528625488281250
0.6254911422729492,0.6528625488281250
0.6179574966430664,0.6387187957763671
0.6179574966430664,0.6387187957763671
0.6052700042724609,0.6237894058227539
0.6052700042724609,0.6237894058227539
0.6020158767700196,0.6150186538696288
0.6020158767700196,0.6150186538696288
0.5969655990600585,0.6110143661499023
0.5969655990600585,0.6110143661499023
0.5929756164550781,0.6036563873291015
0.5929756164550781,0.6036563873291015
0.5933858871459960,0.6031488418579102
0.5933858871459960,0.6031488418579102
0.5885862350463867,0.5990335464477539
0.5915834426879882,0.5990335464477539
0.5901123046875000,0.5975555419921875
0.5901123046875000,0.5975555419921875
0.5885438919067383,0.5987560272216796
0.5885438919067383,0.5987560272216796
0.5867305755615234,0.5951391220092773
0.5867305755615234,0.5951391220092773
0.5897970199584961,0.5976636886596679
0.5897970199584961,0.5976636886596679
0.5863363265991210,0.5959482192993164
0.5863363265991210,0.5959482192993164
0.5890365600585937,0.5962320327758789
0.5890365600585937,0.5962320327758789
0.5881937026977538,0.5989637374877930
0.5881937026977538,0.5989637374877930
0.5878801345825195,0.5967390060424804
0.5878801345825195,0.5967390060424804
0.5914901733398438,0.6005756378173828
0.5914901733398438,0.6005756378173828
0.5886846542358398,0.6000932693481446
0.5886846542358398,0.6000932693481446
0.5922517776489258,0.6021623611450195
0.5922517776489258,0.6021623611450195
0.5932989120483398,0.6068687438964844
0.5932989120483398,0.6068687438964844
0.5940679550170899,0.6069528579711914
0.5940679550170899,0.6069528579711914
0.5991708755493164,0.6131824493408203
0.5991708755493164,0.6131824493408203
0.5974479675292969,0.6148309707641602
0.5974479675292969,0.6148309707641602
0.6025989532470702,0.6183860778808593
0.6025989532470702,0.6183860778808593
0.6039951324462890,0.6238700866699218
0.6039951324462890,0.6238700866699218
0.6046972274780273,0.6237339019775391
0.6046972274780273,0.6237339019775391
0.6089086532592773,0.6286989212036133
0.6089086532592773,0.6286989212036133
0.6070112228393555,0.6289535522460937
0.6070112228393555,0.6289535522460937
0.6107145309448242,0.6304824829101562
0.6107145309448242,0.6304824829101562
0.6107105255126953,0.6340799331665039
0.6107105255126953,0.6340799331665039
0.6101697921752930,0.6322889328002930
0.6101697921752930,0.6322889328002930
0.6143280029296875,0.6361970901489258
0.6143280029296875,0.6361970901489258
0.6115917205810547,0.6355093002319335
0.6115917205810547,0.6355093002319335
0.6150169372558594,0.6368991851806640
0.6150169372558594,0.6368991851806640
0.6149745941162109,0.6406259536743164
0.6149745941162109,0.6406259536743164
0.6153030395507812,0.6394557952880859
0.6153030395507812,0.6394557952880859
0.6193302154541015,0.6439218521118164
0.6193302154541015,0.6439218521118164
0.6172147750854492,0.6441204071044921
0.6172147750854492,0.6441204071044921
0.6207389831542969,0.6463073730468750
0.6207389831542969,0.6463073730468750
0.6216642379760742,0.6507276535034180
0.6216642379760742,0.6507276535034180
0.6220722198486328,0.6499305725097656
0.6220722198486328,0.6499305725097656
0.6263580322265625,0.6548566818237305
0.6263580322265625,0.6548566818237305
0.6238746643066406,0.6551353454589843
0.6238746643066406,0.6551353454589843
0.6282302856445312,0.6574253082275391
0.6282302856445312,0.6574253082275391
0.6288064956665039,0.6617889404296875
0.6288064956665039,0.6617889404296875
0.6290290832519531,0.6609106063842773
0.6290290832519531,0.6609106063842773
0.6330024719238281,0.6656335830688477
0.6330024719238281,0.6656335830688477
0.6311090469360351,0.6660490036010742
0.6311090469360351,0.6660490036010742
0.6351562500000000,0.6684356689453125
0.6351562500000000,0.6684356689453125
0.6380859375000000,0.6730075836181640
0.6380859375000000,0.6730922698974610
0.6359178543090820,0.6725555419921875
0.6366285324096680,0.6725555419921875
0.6407621383666992,0.6778638839721679
0.6407621383666992,0.6778638839721679
0.6389402389526367,0.6787845611572265
0.6389402389526367,0.6787845611572265
0.6432352066040039,0.6817377090454101
0.6432352066040039,0.6817377090454101
0.6438262939453124,0.6867908477783203
0.6438262939453124,0.6867908477783203
0.6447973251342773,0.6863971710205078
0.6447973251342773,0.6863971710205078
0.6491798400878906,0.6912963867187499
0.6491798400878906,0.6912963867187499
0.6464092254638671,0.6897583007812500
0.6464092254638671,0.6897583007812500
0.6461236953735351,0.6832071304321289
0.6461236953735351,0.6832071304321289
0.6361690521240234,0.6676471710205077
0.6361690521240234,0.6676471710205077
0.6231559753417969,0.6456670761108398
0.6173292160034179,0.6456670761108398
0.6157573699951172,0.6328256607055663
0.6157573699951172,0.6328256607055663
0.6043481826782227,0.6195476531982421
0.6043481826782227,0.6195476531982421
0.6017526626586914,0.6116243362426758
0.6017526626586914,0.6116243362426758
0.5967985153198242,0.6079473495483398
0.5967985153198242,0.6079473495483398
0.5928462982177735,0.6006975173950195
0.5928462982177735,0.6006975173950195
0.5932811737060547,0.5999691009521484
0.5932811737060547,0.5999691009521484
0.5882263183593750,0.5954870223999024
0.5882263183593750,0.5954870223999024
0.5893999099731445,0.5936977386474609
0.5893999099731445,0.5936977386474609
0.5874269485473632,0.5943403244018555
0.5874269485473632,0.5943403244018555
0.5852891921997070,0.5899852752685547
0.5852891921997070,0.5899852752685547
0.5875694274902343,0.5911268234252930
0.5875694274902343,0.5911268234252930
0.5829786300659180,0.5878721237182617
0.5829786300659180,0.5878721237182617
0.5844760894775390,0.5864341735839843
0.5844760894775390,0.5864341735839843
0.5822570800781249,0.5869308471679687
0.5822570800781249,0.5869308471679687
0.5802978515625000,0.5822954177856445
0.5802978515625000,0.5822954177856445
0.5819538116455077,0.5833728790283202
0.5819538116455077,0.5833728790283202
0.5774442672729492,0.5803768157958984
0.5774442672729492,0.5803768157958984
0.5791728973388671,0.5801450729370117
0.5791728973388671,0.5801450729370117
0.5787666320800781,0.5830078125000000
0.5787666320800781,0.5830078125000000
0.5787031173706054,0.5819137573242187
0.5787031173706054,0.5819137573242187
0.5828453063964844,0.5870836257934570
0.5828453063964844,0.5870836257934570
0.5810022354125977,0.5883579254150391
0.5810022354125977,0.5883579254150391
0.5856279373168946,0.5916549682617187
0.5856279373168946,0.5916549682617187
0.5862613677978515,0.5963991165161132
0.5862613677978515,0.5963991165161132
0.5866853713989257,0.5955144882202148
0.5866853713989257,0.5955144882202148
0.5900699615478515,0.5993562698364258
0.5900699615478515,0.5993562698364258
0.5873027801513672,0.5984539031982422
0.5873027801513672,0.5984539031982422
0.5901826858520508,0.5992269515991211
0.5901826858520508,0.5992269515991211
0.5896665573120117,0.6018962860107422
0.5896665573120117,0.6018962860107422
0.5888763427734375,0.5995765686035156
0.5888763427734375,0.5995765686035156
0.5922060012817383,0.6029840469360351
0.5922060012817383,0.6029840469360351
0.5893833160400390,0.6024690628051758
0.5893833160400390,0.6024690628051758
0.5927907943725585,0.6041942596435547
0.5927907943725585,0.6041942596435547
0.5928113937377929,0.6083719253540039
0.5928113937377929,0.6083719253540039
0.5933601379394531,0.6075691223144531
0.5933601379394531,0.6075691223144531
0.5975572586059570,0.6126108169555664
0.5975572586059570,0.6126108169555664
0.5954669952392578,0.6130897521972656
0.5954669952392578,0.6130897521972656
