REDsignal,IRsignal
0.5503887176513672,0.7164207458496094
0.5503887176513672,0.7164207458496094
0.5517139434814453,0.7230485916137696
0.5517139434814453,0.7230485916137696
0.5573484420776367,0.7279987335205078
0.5573484420776367,0.7279987335205078
0.5590541839599609,0.7345630645751953
0.5590541839599609,0.7345630645751953
0.5608766555786132,0.7374938964843750
0.5608766555786132,0.7374938964843750
0.5649061203002930,0.7452358245849610
0.5649061203002930,0.7452358245849610
0.5642343521118164,0.7443614959716797
0.5642343521118164,0.7443614959716797
0.5675565719604492,0.7469907760620117
0.5675565719604492,0.7469907760620117
0.5676813125610352,0.7498352050781250
0.5676813125610352,0.7498352050781250
0.5678586959838867,0.7521646499633788
0.5678586959838867,0.7521646499633788
0.5707883834838867,0.7540357589721679
0.5707883834838867,0.7540357589721679
0.5690900802612304,0.7536661148071289
0.5690900802612304,0.7536661148071289
0.5722520828247070,0.7553266525268555
0.5722520828247070,0.7553266525268555
0.5717697143554688,0.7595895767211914
0.5747863769531250,0.7595895767211914
0.5715122222900391,0.7574621200561523
0.5715122222900391,0.7574621200561523
0.5739269256591797,0.7603775024414062
0.5739269256591797,0.7603775024414062
0.5724300384521485,0.7594367980957031
0.5724300384521485,0.7594367980957031
0.5751039505004882,0.7629289627075195
0.5751039505004882,0.7629289627075195
0.5746187210083008,0.7627882003784180
0.5746187210083008,0.7627882003784180
0.5737335205078125,0.7619916915893554
0.5737335205078125,0.7619916915893554
0.5763862609863281,0.7645889282226562
0.5763862609863281,0.7645889282226562
0.5748155593872070,0.7657064437866211
0.5748155593872070,0.7657064437866211
0.5773052215576172,0.7651033401489258
0.5773052215576172,0.7651033401489258
0.5766626358032226,0.7666259765625000
0.5766626358032226,0.7666259765625000
0.5760995864868164,0.7655193328857421
0.5760995864868164,0.7655193328857421
0.5781972885131835,0.7700929641723633
0.5784215927124023,0.7700929641723633
0.5765699386596680,0.7672531127929687
0.5790956497192382,0.7672531127929687
0.5787786483764649,0.7681074142456055
0.5787786483764649,0.7681074142456055
0.5785617828369141,0.7699607849121094
0.5785617828369141,0.7699607849121094
0.5775375366210938,0.7707086563110351
0.5775375366210938,0.7707086563110351
0.5798738479614257,0.7711584091186523
0.5798738479614257,0.7711584091186523
0.5779689788818360,0.7694257736206055
0.5779689788818360,0.7694257736206055
0.5798418045043945,0.7686504364013672
0.5798418045043945,0.7686504364013672
0.5777835845947266,0.7685480117797852
0.5777835845947266,0.7685480117797852
0.5737993240356445,0.7577150344848632
0.5737993240356445,0.7577150344848632
0.5700622558593750,0.7478925704956054
0.5700622558593750,0.7478925704956054
0.5612136840820312,0.7326244354248047
0.5612136840820312,0.7326244354248047
0.5569541931152343,0.7232809066772461
0.5569541931152343,0.7232809066772461
0.5511217117309570,0.7146177291870117
0.5511217117309570,0.7146177291870117
0.5467380523681641,0.7075881958007812
0.5467380523681641,0.7075881958007812
0.5467535018920898,0.7065038681030273
0.5467535018920898,0.7065038681030273
0.5434009552001953,0.7048461914062499
0.5434009552001953,0.7048461914062499
0.5452011108398437,0.7030643463134766
0.5452011108398437,0.7030643463134766
0.5441905975341796,0.7046213150024414
0.5441905975341796,0.7046213150024414
0.5440475463867187,0.7040800094604492
0.5440475463867187,0.7040800094604492
0.5473657608032226,0.7105470657348633
0.5473657608032226,0.7105470657348633
0.5466819763183594,0.7102947235107422
0.5466819763183594,0.7102947235107422
0.5510570526123046,0.7145233154296875
0.5510570526123046,0.7145233154296875
0.5526609420776367,0.7206018447875976
0.5526609420776367,0.7206018447875976
0.5546636581420898,0.7265544891357422
0.5546636581420898,0.7265544891357422
0.5603462219238281,0.7338449478149414
0.5603462219238281,0.7338449478149414
0.5613990783691406,0.7389055252075195
0.5613990783691406,0.7389055252075195
0.5672904968261718,0.7452089309692382
0.5672904968261718,0.7452089309692382
0.5691501617431640,0.7533674240112305
0.5691501617431640,0.7533674240112305
0.5702087402343750,0.7535596847534179
0.5702087402343750,0.7535596847534179
0.5740299224853516,0.7587369918823242
0.5740299224853516,0.7587369918823242
0.5729564666748047,0.7590551376342773
0.5729564666748047,0.7590551376342773
0.5762798309326171,0.7629941940307617
0.5762798309326171,0.7629941940307617
0.5761138916015625,0.7640419006347656
0.5761138916015625,0.7640419006347656
0.5755640029907226,0.7633850097656250
0.5755640029907226,0.7633850097656250
0.5783992767333984,0.7667140960693359
0.5783992767333984,0.7667140960693359
0.5767908096313477,0.7680250167846679
0.5767908096313477,0.7680250167846679
0.5796237945556640,0.7679214477539062
0.5796237945556640,0.7679214477539062
0.5791591644287110,0.7700048446655273
0.5791591644287110,0.7700048446655273
0.5785200119018554,0.7690464019775390
0.5785200119018554,0.7690464019775390
0.5808963775634766,0.7736812591552734
0.5808963775634766,0.7736812591552734
0.5789772033691406,0.7711795806884766
0.5816270828247070,0.7711795806884766
0.5814125061035156,0.7722061157226562
0.5814125061035156,0.7722061157226562
0.5809804916381835,0.7738632202148438
0.5809804916381835,0.7738632202148438
0.5804592132568359,0.7744920730590820
0.5804592132568359,0.7744920730590820
0.5827817916870117,0.7759185791015625
0.5827817916870117,0.7759185791015625
0.5810703277587891,0.7748182296752929
0.5810703277587891,0.7748182296752929
0.5834798812866211,0.7754837036132812
0.5834798812866211,0.7754837036132812
0.5828384399414063,0.7789878845214844
0.5828384399414063,0.7789878845214844
0.5821437835693359,0.7760787963867187
0.5821437835693359,0.7760787963867187
0.5839496612548828,0.7788471221923828
0.5839496612548828,0.7788471221923828
0.5820751190185547,0.7773021697998047
0.5820751190185547,0.7773021697998047
0.5846128463745117,0.7796905517578124
0.5846128463745117,0.7796905517578124
0.5838169097900391,0.7798507690429687
0.5838169097900391,0.7798507690429687
0.5828979492187499,0.7782314300537109
0.5828979492187499,0.7782314300537109
0.5850883483886719,0.7805706024169922
0.5850883483886719,0.7805706024169922
0.5831422805786133,0.7809122085571288
0.5831422805786133,0.7809122085571288
0.5855260848999023,0.7796808242797851
0.5855260848999023,0.7796808242797851
0.5844635009765625,0.7812377929687500
0.5844635009765625,0.7812377929687500
0.5827949523925781,0.7776403427124023
0.5827949523925781,0.7776403427124023
0.5847667694091797,0.7806215286254883
0.5847667694091797,0.7806215286254883
0.5811756134033202,0.7749435424804687
0.5811756134033202,0.7749435424804687
0.5818284988403321,0.7707618713378906
0.5818284988403321,0.7707618713378906
0.5778957366943359,0.7659507751464844
0.5778957366943359,0.7659507751464844
0.5731962203979492,0.7584457397460938
0.5731962203979492,0.7584457397460938
0.5716438293457031,0.7526018142700195
0.5716438293457031,0.7526018142700195
0.5663349151611328,0.7453433990478515
0.5663349151611328,0.7453433990478515
0.5662502288818360,0.7408601760864257
0.5662502288818360,0.7408601760864257
0.5632341384887695,0.7401111602783202
0.5650531768798828,0.7401111602783202
0.5609807968139648,0.7346328735351563
0.5609807968139648,0.7346328735351563
0.5623500823974609,0.7359615325927734
0.5623500823974609,0.7359615325927734
0.5602020263671875,0.7344806671142577
0.5602020263671875,0.7344806671142577
0.5629737854003906,0.7378698348999023
0.5629737854003906,0.7378698348999023
0.5633680343627929,0.7407125473022461
0.5633680343627929,0.7407125473022461
0.5642606735229492,0.7432170867919922
0.5642606735229492,0.7432170867919922
0.5689584732055664,0.7501791000366210
0.5689584732055664,0.7501791000366210
0.5694883346557617,0.7550182342529297
0.5694883346557617,0.7550182342529297
0.5738737106323242,0.7580509185791016
0.5738737106323242,0.7580509185791016
0.5747097015380859,0.7626628875732422
0.5747097015380859,0.7626628875732422
0.5751548767089844,0.7633071899414062
0.5751548767089844,0.7633071899414062
0.5782842636108398,0.7691728591918945
0.5782842636108398,0.7691728591918945
0.5770740509033203,0.7675924301147461
0.5770740509033203,0.7675924301147461
0.5796438217163086,0.7689594268798828
0.5796438217163086,0.7689594268798828
0.5793119430541992,0.7711395263671875
0.5793119430541992,0.7711395263671875
0.5791305541992188,0.7719549179077149
0.5791305541992188,0.7719549179077149
0.5815738677978516,0.7737150192260742
0.5815738677978516,0.7737150192260742
0.5800992965698242,0.7729265213012695
0.5800992965698242,0.7729265213012695
0.5827772140502929,0.7738334655761718
0.5827772140502929,0.7738334655761718
0.5821065902709961,0.7774497985839843
0.5821065902709961,0.7774497985839843
0.5814771652221680,0.7747381210327148
0.5814771652221680,0.7747381210327148
0.5834924697875976,0.7772895812988281
0.5834924697875976,0.7772895812988281
0.5819240570068359,0.7759437561035156
0.5819240570068359,0.7759437561035156
0.5842277526855468,0.7783224105834960
0.5842277526855468,0.7783224105834960
0.5833580017089843,0.7784231185913085
0.5833580017089843,0.7784231185913085
0.5827033996582031,0.7772558212280273
0.5827033996582031,0.7772558212280273
0.5847261428833007,0.7794731140136718
0.5847261428833007,0.7794731140136718
0.5830175399780273,0.7801780700683594
0.5830175399780273,0.7801780700683594
0.5854001998901367,0.7791950225830078
0.5854001998901367,0.7791950225830078
0.5842866897583008,0.7809425354003906
0.5842866897583008,0.7809425354003906
0.5838300704956054,0.7793415069580077
0.5838300704956054,0.7793415069580077
0.5858545303344727,0.7837148666381836
0.5858545303344727,0.7837148666381836
0.5841007232666016,0.7807983398437500
0.5841007232666016,0.7807983398437500
0.5863735198974609,0.7814649581909180
0.5863735198974609,0.7814649581909180
0.5856313705444336,0.7830963134765625
0.5856313705444336,0.7830963134765625
0.5848222732543945,0.7832033157348632
0.5848222732543945,0.7832033157348632
0.5869039535522461,0.7841463088989258
0.5866962432861328,0.7841463088989258
0.5847782135009766,0.7825647354125976
0.5847782135009766,0.7825647354125976
0.5871231079101562,0.7823707580566406
0.5871231079101562,0.7823707580566406
0.5857933044433593,0.7843088150024414
0.5857933044433593,0.7843088150024414
0.5835073471069335,0.7775424957275391
0.5835073471069335,0.7775424957275391
0.5823623657226562,0.7718324661254883
0.5823623657226562,0.7718324661254883
0.5741786956787109,0.7570701599121094
0.5741786956787109,0.7570701599121094
0.5684566497802734,0.7439912796020508
0.5684566497802734,0.7439912796020508
0.5606781005859375,0.7315418243408203
0.5606781005859375,0.7315418243408203
0.5545846939086914,0.7213319778442383
0.5545846939086914,0.7213319778442383
0.5533744812011718,0.7179508209228516
0.5533744812011718,0.7179508209228516
0.5492597579956054,0.7150760650634765
0.5492597579956054,0.7150760650634765
0.5502565383911132,0.7121847152709960
0.5502565383911132,0.7121847152709960
0.5489061355590820,0.7130859374999999
0.5489061355590820,0.7130859374999999
0.5479934692382812,0.7115283966064453
0.5479934692382812,0.7115283966064453
0.5507320404052735,0.7168928146362304
0.5507320404052735,0.7168928146362304
0.5496683120727539,0.7159944534301758
0.5496683120727539,0.7159944534301758
0.5531707763671875,0.7190122604370117
0.5515331268310547,0.7190122604370117
0.5544610977172851,0.7242633819580078
0.5544610977172851,0.7242633819580078
0.5559665679931640,0.7287420272827149
0.5559665679931640,0.7287420272827149
0.5608303070068359,0.7347770690917969
0.5608303070068359,0.7347770690917969
0.5615192413330078,0.7381599426269531
0.5615192413330078,0.7381599426269531
0.5660888671875000,0.7427976608276367
0.5660888671875000,0.7427976608276367
0.5676498413085938,0.7505521774291992
0.5676498413085938,0.7505521774291992
0.5687662124633789,0.7510402679443359
0.5687662124633789,0.7510402679443359
0.5725227355957031,0.7571496963500977
0.5725227355957031,0.7571496963500977
0.5721776962280273,0.7583633422851562
0.5721776962280273,0.7583633422851562
0.5756858825683594,0.7624271392822265
0.5756858825683594,0.7624271392822265
0.5756727218627929,0.7644470214843749
0.5756727218627929,0.7644470214843749
0.5752864837646484,0.7638553619384766
0.5752864837646484,0.7638553619384766
0.5781984329223633,0.7675283432006835
0.5781984329223633,0.7675283432006835
0.5766277313232422,0.7692077636718749
0.5766277313232422,0.7692077636718749
0.5795070648193359,0.7687700271606445
0.5795070648193359,0.7687700271606445
0.5788404464721679,0.7714233398437500
0.5788404464721679,0.7714233398437500
0.5785005569458007,0.7700832366943359
0.5785005569458007,0.7700832366943359
0.5809610366821288,0.7752325057983398
0.5809610366821288,0.7752325057983398
0.5792284011840820,0.7729705810546875
0.5792284011840820,0.7729705810546875
0.5818468093872070,0.7737464904785156
0.5818468093872070,0.7737464904785156
0.5813644409179687,0.7758790969848632
0.5840400695800781,0.7758790969848632
0.5807310104370117,0.7761268615722656
0.5807310104370117,0.7761268615722656
0.5831279754638672,0.7773056030273438
0.5831279754638672,0.7773056030273438
0.5811504364013672,0.7760250091552734
0.5811504364013672,0.7760250091552734
0.5837362289428710,0.7763076782226562
0.5837362289428710,0.7763076782226562
0.5831485748291015,0.7802318572998047
0.5831485748291015,0.7802318572998047
0.5822044372558594,0.7767980575561523
0.5822044372558594,0.7767980575561523
0.5840246200561523,0.7794805526733398
0.5840246200561523,0.7778091430664062
0.5826576232910156,0.7781713485717773
0.5854036331176757,0.7781713485717773
0.5850637435913085,0.7804201126098632
0.5850637435913085,0.7804201126098632
0.5843948364257813,0.7809207916259765
0.5843948364257813,0.7809207916259765
0.5831800460815429,0.7791189193725586
0.5831800460815429,0.7791189193725586
0.5854722976684570,0.7813676834106446
0.5854722976684570,0.7813676834106446
0.5832384109497070,0.7811559677124024
0.5832384109497070,0.7811559677124024
0.5850625991821289,0.7787309646606445
0.5850625991821289,0.7787309646606445
0.5835514068603516,0.7787143707275390
0.5835514068603516,0.7787143707275390
0.5813043594360351,0.7728750228881835
0.5813043594360351,0.7728750228881835
0.5805879592895508,0.7709758758544921
0.5805879592895508,0.7709758758544921
0.5745374679565429,0.7595855712890625
0.5745374679565429,0.7595855712890625
0.5715826034545898,0.7500017166137695
0.5715826034545898,0.7500017166137695
0.5659978866577148,0.7423032760620117
0.5659978866577148,0.7423032760620117
0.5608251571655273,0.7344503402709961
0.5608251571655273,0.7344503402709961
0.5589483261108398,0.7284896850585937
0.5589483261108398,0.7284896850585937
0.5542385101318359,0.7217348098754882
0.5542385101318359,0.7217348098754882
0.5536731719970703,0.7177562713623047
0.5536731719970703,0.7177562713623047
0.5510398864746093,0.7183032989501953
0.5510398864746093,0.7183032989501953
0.5491733551025391,0.7135082244873047
0.5491733551025391,0.7135082244873047
0.5504774093627930,0.7153060913085937
0.5504774093627930,0.7153060913085937
0.5490114212036132,0.7143167495727539
0.5490114212036132,0.7143167495727539
0.5518495559692382,0.7181522369384765
0.5518495559692382,0.7181522369384765
0.5528623580932617,0.7219156265258789
0.5528623580932617,0.7219156265258789
0.5546327590942383,0.7254100799560547
0.5546327590942383,0.7254100799560547
0.5596052169799804,0.7336778640747070
0.5596052169799804,0.7336778640747070
0.5612760543823242,0.7401351928710938
0.5612760543823242,0.7401351928710938
0.5664012908935546,0.7446264266967774
0.5664012908935546,0.7446264266967774
0.5680355072021485,0.7511941909790039
0.5680355072021485,0.7511941909790039
0.5695850372314453,0.7533657073974609
0.5695850372314453,0.7533657073974609
0.5732442855834960,0.7603523254394531
0.5732442855834960,0.7603523254394531
0.5730537414550781,0.7600353240966796
0.5730537414550781,0.7600353240966796
0.5761837005615235,0.7622726440429687
0.5761837005615235,0.7622726440429687
0.5761837005615235,0.7652463912963867
0.5761837005615235,0.7652463912963867
0.5760566711425781,0.7663650512695312
0.5748968124389648,0.7663650512695312
0.5783014297485352,0.7680021286010742
0.5783014297485352,0.7680021286010742
0.5768131256103516,0.7675500869750976
0.5768131256103516,0.7675500869750976
0.5794080734252930,0.7683437347412109
0.5794080734252930,0.7683437347412109
0.5789651870727539,0.7723960876464844
0.5789651870727539,0.7723960876464844
0.5784261703491210,0.7698217391967773
0.5784261703491210,0.7698217391967773
0.5805707931518554,0.7728458404541015
0.5805707931518554,0.7728458404541015
0.5791877746582031,0.7719303131103515
0.5791877746582031,0.7719303131103515
0.5814622879028321,0.7742723464965821
0.5814622879028321,0.7742723464965821
0.5809192657470703,0.7750328063964843
0.5835268020629882,0.7750328063964843
0.5801061630249024,0.7737390518188476
0.5801061630249024,0.7737390518188476
0.5823680877685546,0.7764226913452148
0.5823680877685546,0.7764226913452148
0.5810325622558593,0.7773124694824218
0.5810325622558593,0.7773124694824218
0.5833791732788086,0.7762853622436523
0.5833791732788086,0.7762853622436523
0.5826845169067383,0.7784500122070312
0.5826845169067383,0.7784500122070312
0.5821529388427734,0.7766664505004882
0.5821529388427734,0.7766664505004882
0.5842403411865235,0.7810214996337891
0.5842403411865235,0.7810214996337891
0.5826387405395508,0.7782417297363281
0.5826387405395508,0.7782417297363281
0.5845619201660156,0.7784620285034179
0.5845619201660156,0.7784620285034179
0.5841264724731445,0.7802564620971679
0.5841264724731445,0.7802564620971679
0.5833425521850586,0.7801048278808593
0.5833425521850586,0.7801048278808593
0.5852777481079101,0.7809591293334961
0.5852777481079101,0.7809591293334961
0.5834587097167968,0.7793706893920899
0.5834587097167968,0.7793706893920899
0.5853590011596680,0.7787435531616210
0.5853590011596680,0.7787435531616210
0.5843307495117187,0.7815382003784179
0.5843307495117187,0.7815382003784179
0.5836046218872070,0.7768564224243164
0.5823789596557617,0.7729431152343750
0.5781990051269531,0.7612180709838867
0.5771799087524414,0.7612180709838867
0.5715030670166016,0.7610338211059570
0.5672733306884765,0.7482816696166992
0.5672733306884765,0.7421155929565429
0.5672733306884765,0.7412446975708008
0.5593500137329102,0.7275163650512695
0.5593500137329102,0.7275163650512695
0.5563373565673828,0.7224843978881835
0.5563373565673828,0.7224843978881835
0.5544742584228516,0.7197784423828125
0.5544742584228516,0.7197784423828125
0.5515983581542968,0.7157741546630859
0.5515983581542968,0.7157741546630859
0.5529750823974610,0.7141794204711914
0.5529750823974610,0.7141794204711914
0.5507583618164062,0.7166799545288086
0.5507583618164062,0.7166799545288086
0.5524023056030273,0.7177253723144531
0.5524023056030273,0.7177253723144531
0.5531667709350586,0.7197034835815429
0.5531667709350586,0.7197034835815429
0.5538087844848633,0.7171611785888672
0.5538087844848633,0.7171611785888672
0.5570411682128906,0.7250593185424804
0.5570411682128906,0.7250593185424804
0.5564958572387695,0.7282110214233398
0.5564958572387695,0.7282110214233398
0.5588161468505859,0.7310153961181640
0.5588161468505859,0.7310153961181640
0.5618717193603515,0.7316574096679688
0.5618717193603515,0.7316574096679688
0.5626127243041992,0.7373645782470702
0.5626127243041992,0.7373645782470702
0.5661621093750000,0.7435924530029296
0.5661621093750000,0.7435924530029296
0.5650743484497071,0.7462285995483399
0.5650743484497071,0.7462285995483399
0.5685379028320312,0.7441549301147461
0.5685379028320312,0.7441549301147461
0.5708021163940430,0.7530870437622070
0.5708021163940430,0.7530870437622070
0.5710464477539062,0.7541645050048827
0.5710464477539062,0.7541645050048827
0.5730285644531250,0.7579708099365234
0.5730285644531250,0.7579708099365234
0.5727127075195312,0.7551641464233398
0.5727127075195312,0.7551641464233398
0.5746330261230469,0.7613233566284180
0.5746330261230469,0.7613233566284180
0.5760520935058594,0.7646226882934570
0.5760520935058594,0.7646226882934570
0.5748905181884766,0.7632997512817382
0.5748905181884766,0.7632997512817382
0.5775873184204101,0.7610309600830077
0.5775873184204101,0.7610309600830077
0.5766008377075195,0.7671627044677735
0.5766008377075195,0.7671627044677735
0.5781440734863281,0.7681486129760742
0.5781440734863281,0.7681486129760742
0.5783895492553711,0.7696203231811524
0.5783895492553711,0.7696203231811524
0.5787065505981445,0.7637889862060546
0.5787065505981445,0.7637889862060546
0.5802125930786133,0.7710222244262696
0.5802125930786133,0.7710222244262696
0.5791162490844727,0.7728487014770508
0.5791162490844727,0.7728487014770508
0.5795797348022461,0.7722152709960938
0.5795797348022461,0.7722152709960938
0.5812065124511718,0.7686040878295898
0.5812065124511718,0.7686040878295898
0.5806926727294922,0.7727966308593750
0.5810268402099609,0.7727966308593750
0.5821901321411133,0.7749034881591796
0.5821901321411133,0.7749034881591796
0.5799293518066406,0.7753675460815429
0.5799293518066406,0.7753675460815429
0.5819223403930663,0.7705524444580077
0.5819223403930663,0.7705524444580077
0.5828350067138671,0.7769954681396484
0.5828350067138671,0.7769954681396484
0.5823577880859375,0.7770109176635742
0.5823577880859375,0.7770109176635742
0.5829792022705078,0.7782154083251953
0.5829792022705078,0.7782154083251953
0.5821912765502929,0.7736515045166016
0.5821912765502929,0.7736515045166016
0.5835983276367187,0.7787349700927734
0.5835983276367187,0.7787349700927734
0.5843095779418945,0.7803079605102539
0.5843095779418945,0.7803079605102539
0.5824602127075195,0.7782308578491210
0.5824602127075195,0.7782308578491210
0.5847307205200195,0.7747220993041992
0.5847307205200195,0.7747220993041992
0.5825363159179687,0.7788545608520507
0.5825363159179687,0.7788545608520507
0.5835142135620117,0.7784769058227539
0.5835142135620117,0.7784769058227539
0.5828716278076171,0.7777198791503906
0.5828716278076171,0.7777198791503906
0.5818948745727539,0.7695882797241210
0.5818948745727539,0.7695882797241210
0.5832429885864258,0.7751855850219727
0.5832429885864258,0.7751855850219727
0.5808391571044922,0.7744308471679687
0.5808391571044922,0.7744308471679687
0.5807041168212891,0.7727416992187500
0.5807041168212891,0.7727416992187500
0.5813867568969726,0.7682813644409180
0.5813867568969726,0.7682813644409180
0.5796335220336913,0.7690692901611328
0.5796335220336913,0.7690692901611328
0.5806789398193359,0.7702972412109375
0.5806789398193359,0.7702972412109375
0.5777996063232421,0.7690418243408202
0.5777996063232421,0.7690418243408202
0.5793863296508789,0.7662660598754882
0.5793863296508789,0.7662660598754882
0.5805353164672852,0.7713048934936523
0.5805353164672852,0.7713048934936523
0.5804306030273437,0.7712390899658202
0.5804306030273437,0.7712390899658202
0.5826004028320312,0.7747730255126953
0.5826004028320312,0.7747730255126953
0.5818588256835937,0.7754859924316406
0.5818588256835937,0.7754859924316406
0.5840234756469727,0.7780935287475585
0.5840234756469727,0.7780935287475585
0.5851976394653320,0.7807594299316406
0.5851976394653320,0.7807594299316406
0.5846008300781250,0.7796138763427735
0.5846008300781250,0.7796138763427735
0.5868043899536133,0.7813253402709961
0.5868043899536133,0.7813253402709961
0.5852565765380859,0.7829669952392578
0.5852565765380859,0.7829669952392578
0.5867225646972656,0.7831558227539063
0.5867225646972656,0.7831558227539063
0.5874338150024414,0.7847997665405273
0.5874338150024414,0.7847997665405273
0.5866390228271484,0.7826734542846679
0.5866390228271484,0.7826734542846679
0.5884489059448242,0.7856191635131836
0.5884489059448242,0.7856191635131836
0.5867597579956054,0.7862714767456055
0.5867597579956054,0.7862714767456055
0.5880163192749023,0.7862445831298828
0.5880163192749023,0.7862445831298828
0.5888505935668945,0.7872013092041016
0.5901557922363281,0.7872013092041016
0.5882005691528320,0.7864379882812500
0.5882005691528320,0.7864379882812500
0.5898130416870117,0.7885580062866211
0.5898130416870117,0.7885580062866211
0.5880517959594727,0.7889642715454102
0.5880517959594727,0.7889642715454102
0.5894399642944336,0.7887170791625976
0.5894399642944336,0.7887170791625976
0.5902141571044922,0.7904394149780273
0.5902141571044922,0.7904394149780273
0.5893650054931641,0.7888366699218750
0.5893650054931641,0.7888366699218750
0.5911170959472656,0.7908536911010742
0.5911170959472656,0.7908536911010742
0.5894027709960937,0.7909109115600585
0.5894027709960937,0.7909109115600585
0.5907131195068359,0.7910287857055663
0.5907131195068359,0.7910287857055663
0.5917064666748046,0.7926486968994141
0.5917064666748046,0.7926486968994141
0.5907142639160156,0.7910453796386718
0.5907142639160156,0.7910453796386718
0.5927066802978516,0.7930377960205078
0.5927066802978516,0.7930377960205078
0.5911125183105469,0.7936014175415039
0.5911125183105469,0.7936014175415039
0.5913053512573242,0.7926137924194335
0.5913053512573242,0.7926137924194335
0.5913053512573242,0.7932489395141601
0.5933544158935546,0.7930755615234375
0.5933544158935546,0.7930755615234375
0.5925436019897461,0.7944906234741210
0.5925436019897461,0.7944906234741210
0.5914730072021485,0.7916324615478515
0.5914730072021485,0.7916324615478515
0.5925664901733398,0.7924226760864258
0.5925664901733398,0.7924226760864258
0.5899904251098632,0.7892406463623046
0.5899904251098632,0.7892406463623046
0.5908573150634765,0.7861106872558593
0.5908573150634765,0.7861106872558593
0.5885066986083984,0.7847951889038086
0.5885066986083984,0.7847951889038086
0.5854969024658203,0.7780128479003906
0.5854969024658203,0.7780128479003906
0.5847627639770507,0.7749864578247070
0.5826496124267578,0.7749864578247070
0.5798137664794921,0.7672863006591797
0.5798137664794921,0.7672863006591797
0.5783735275268554,0.7600564956665039
0.5783735275268554,0.7600564956665039
0.5744138717651367,0.7562639236450195
0.5744138717651367,0.7562639236450195
0.5709852218627930,0.7494512557983398
0.5688446044921874,0.7494512557983398
0.5711402893066406,0.7488035202026367
0.5711402893066406,0.7488035202026367
0.5682043075561524,0.7456964492797852
0.5682043075561524,0.7456964492797852
0.5697189331054687,0.7444564819335937
0.5669775009155273,0.7444564819335937
0.5692033767700195,0.7470617294311523
0.5692033767700195,0.7470617294311523
0.5690093994140625,0.7468997955322265
0.5690093994140625,0.7468997955322265
0.5737220764160156,0.7540855407714844
0.5737340927124023,0.7540855407714844
0.5738782882690430,0.7583227157592773
0.5738782882690430,0.7583227157592773
0.5785949707031249,0.7633369445800781
0.5785949707031249,0.7633369445800781
0.5800981521606445,0.7694492340087891
0.5832824707031250,0.7694492340087891
0.5804655075073242,0.7701347351074218
0.5804655075073242,0.7701347351074218
0.5834215164184570,0.7740365982055664
0.5834215164184570,0.7740365982055664
0.5822324752807617,0.7742448806762695
0.5822324752807617,0.7742448806762695
0.5847536087036133,0.7745624542236328
0.5847536087036133,0.7745624542236328
0.5844921112060547,0.7794548034667969
0.5844921112060547,0.7794548034667969
0.5836675643920898,0.7757680892944335
0.5836675643920898,0.7757680892944335
0.5855152130126953,0.7789392471313477
0.5855152130126953,0.7789392471313477
0.5840824127197265,0.7780706405639648
0.5840824127197265,0.7780706405639648
0.5861555099487304,0.7805912017822265
0.5861555099487304,0.7805912017822265
0.5855775833129883,0.7811233520507812
0.5855775833129883,0.7811233520507812
0.5848789215087891,0.7794244766235351
0.5848789215087891,0.7794244766235351
0.5866436004638672,0.7818237304687500
0.5866436004638672,0.7818237304687500
0.5854425430297852,0.7836576461791992
0.5854425430297852,0.7836576461791992
0.5873474121093750,0.7815404891967773
0.5873474121093750,0.7815404891967773
0.5866619110107422,0.7838825225830078
0.5866619110107422,0.7838825225830078
0.5864662170410156,0.7823707580566406
0.5864662170410156,0.7823707580566406
0.5879465103149414,0.7871063232421874
0.5879465103149414,0.7871063232421874
0.5869794845581054,0.7845056533813476
0.5869794845581054,0.7845056533813476
0.5885381698608398,0.7845239639282227
0.5885381698608398,0.7845239639282227
0.5882492065429688,0.7864276885986328
0.5882492065429688,0.7864276885986328
0.5876163482666016,0.7873500823974610
0.5876163482666016,0.7873500823974610
0.5890377044677734,0.7875154495239257
0.5890377044677734,0.7875154495239257
0.5875362396240235,0.7866960525512695
0.5875362396240235,0.7866960525512695
0.5894680023193359,0.7863641738891601
0.5894680023193359,0.7863641738891601
0.5890291213989257,0.7905166625976562
0.5890291213989257,0.7905166625976562
0.5882326126098633,0.7867012023925781
0.5882326126098633,0.7867012023925781
0.5899675369262695,0.7891084671020507
0.5890394210815429,0.7891084671020507
0.5881353378295898,0.7882518768310547
0.5881353378295898,0.7882518768310547
0.5899887084960938,0.7899856567382812
0.5899887084960938,0.7899856567382812
0.5900608062744140,0.7909051895141601
0.5900608062744140,0.7909051895141601
0.5883630752563477,0.7883651733398437
0.5883630752563477,0.7883651733398437
0.5905654907226562,0.7903083801269531
0.5905654907226562,0.7903083801269531
0.5886932373046875,0.7907169342041015
0.5886932373046875,0.7907169342041015
0.5895435333251953,0.7861913681030274
0.5895435333251953,0.7861913681030274
0.5871328353881836,0.7832262039184570
0.5871328353881836,0.7832262039184570
0.5833225250244141,0.7743398666381835
0.5833225250244141,0.7743398666381835
0.5801610946655273,0.7689268112182617
0.5801610946655273,0.7689268112182617
0.5737277984619140,0.7558193206787109
0.5737277984619140,0.7558193206787109
0.5701795578002929,0.7466154098510742
0.5701795578002929,0.7466154098510742
0.5660905838012695,0.7419485092163086
0.5660905838012695,0.7419485092163086
0.5630756378173828,0.7376667022705078
0.5630756378173828,0.7376667022705078
0.5632083892822265,0.7360404968261719
0.5632083892822265,0.7360404968261719
0.5607536315917968,0.7333763122558593
0.5607536315917968,0.7333763122558593
0.5622373580932617,0.7323114395141601
0.5622373580932617,0.7323114395141601
0.5617355346679688,0.7357074737548828
0.5617355346679688,0.7357074737548828
0.5615758895874023,0.7343553543090821
0.5615758895874023,0.7343553543090821
0.5651338577270507,0.7404115676879882
0.5651338577270507,0.7404115676879882
0.5657850265502929,0.7442779541015625
0.5657850265502929,0.7442779541015625
0.5710710525512696,0.7503433227539062
0.5710710525512696,0.7503433227539062
0.5735103607177734,0.7581647872924805
0.5735103607177734,0.7581647872924805
0.5756561279296875,0.7615333557128906
0.5756561279296875,0.7615333557128906
0.5799013137817383,0.7686538696289062
0.5799013137817383,0.7686538696289062
0.5801359176635742,0.7710971832275391
0.5801359176635742,0.7710971832275391
0.5836452484130860,0.7733476638793945
0.5836452484130860,0.7733476638793945
0.5840869903564453,0.7774772644042969
0.5840869903564453,0.7774772644042969
0.5838832855224609,0.7765691757202148
0.5838832855224609,0.7765691757202148
0.5863792419433593,0.7805585861206055
0.5863792419433593,0.7805585861206055
0.5850168228149414,0.7801883697509765
0.5850168228149414,0.7801883697509765
0.5874927520751952,0.7808658599853515
0.5874927520751952,0.7808658599853515
0.5873588562011719,0.7837846755981445
0.5873588562011719,0.7837846755981445
0.5868524551391602,0.7823661804199219
0.5868524551391602,0.7823661804199219
0.5889392852783203,0.7854812622070312
0.5889392852783203,0.7854812622070312
0.5874303817749024,0.7847545623779296
0.5874303817749024,0.7847545623779296
0.5895601272583008,0.7849874496459961
0.5895601272583008,0.7849874496459961
0.5892431259155273,0.7876682281494141
0.5892431259155273,0.7876682281494141
0.5884231567382813,0.7857793807983399
0.5884231567382813,0.7857793807983399
0.5903549194335938,0.7887519836425781
0.5903549194335938,0.7887519836425781
0.5887641906738281,0.7877431869506836
0.5887641906738281,0.7877431869506836
0.5906667709350586,0.7879383087158203
0.5906667709350586,0.7879383087158203
0.5903108596801757,0.7902626037597656
0.5903108596801757,0.7902626037597656
0.5895057678222656,0.7884584426879883
0.5895057678222656,0.7884584426879883
0.5911817550659180,0.7910676956176758
0.5911817550659180,0.7910676956176758
0.5895652770996094,0.7909200668334960
0.5895652770996094,0.7909200668334960
0.5914672851562500,0.7902036666870117
0.5914672851562500,0.7902036666870117
0.5908573150634765,0.7923900604248046
0.5908573150634765,0.7923900604248046
0.5900602340698242,0.7902460098266602
0.5900602340698242,0.7902460098266602
0.5915971755981445,0.7937793731689453
0.5915971755981445,0.7937793731689453
0.5899715423583984,0.7917915344238281
0.5899715423583984,0.7917915344238281
0.5917562484741211,0.7914304733276367
0.5917562484741211,0.7914304733276367
0.5910696029663086,0.7931156158447266
0.5910696029663086,0.7931156158447266
0.5898834228515625,0.7911540985107421
0.5898834228515625,0.7911540985107421
0.5907995223999023,0.7911901473999023
0.5907995223999023,0.7911901473999023
0.5884294509887695,0.7882244110107421
0.5902565002441406,0.7882244110107421
0.5889661788940429,0.7849788665771484
0.5889661788940429,0.7849788665771484
0.5869451522827148,0.7848838806152344
0.5869451522827148,0.7848838806152344
0.5845018386840820,0.7781021118164062
0.5845018386840820,0.7781021118164062
0.5832555770874023,0.7748371124267578
0.5832555770874023,0.7748371124267578
0.5792598724365234,0.7684673309326172
0.5792598724365234,0.7684673309326172
0.5787626266479492,0.7651554107666015
0.5787626266479492,0.7651554107666015
0.5764514923095703,0.7624094009399414
0.5764514923095703,0.7624094009399414
0.5742055892944335,0.7576040267944336
0.5742055892944335,0.7576040267944336
0.5748613357543945,0.7581230163574219
0.5748613357543945,0.7581230163574219
0.5730691909790039,0.7572469711303711
0.5730691909790039,0.7572469711303711
0.5751194000244141,0.7567749023437500
0.5751194000244141,0.7567749023437500
0.5751937866210938,0.7605337142944336
0.5751937866210938,0.7605337142944336
0.5757425308227538,0.7608901977539062
0.5757425308227538,0.7608901977539062
0.5788433074951171,0.7669635772705078
0.5788433074951171,0.7669635772705078
0.5792982101440429,0.7696077346801757
0.5792982101440429,0.7696077346801757
0.5815698623657226,0.7734220504760742
0.5829277038574219,0.7734220504760742
0.5843118667602539,0.7788053512573242
0.5843118667602539,0.7788053512573242
0.5849882125854492,0.7791687011718750
0.5849882125854492,0.7791687011718750
0.5874040603637695,0.7833183288574218
0.5874040603637695,0.7833183288574218
0.5862459182739258,0.7832536697387695
0.5862459182739258,0.7832536697387695
0.5885948181152344,0.7836570739746094
0.5885948181152344,0.7836570739746094
0.5884265899658203,0.7866989135742187
0.5884265899658203,0.7866989135742187
0.5879573822021484,0.7847236633300781
0.5879573822021484,0.7847236633300781
0.5896722793579101,0.7877952575683593
0.5896722793579101,0.7877952575683593
0.5881639480590820,0.7868219375610351
0.5881639480590820,0.7868219375610351
0.5904144287109375,0.7869586944580078
0.5904144287109375,0.7869586944580078
0.5900007247924804,0.7893711090087890
0.5900007247924804,0.7893711090087890
0.5892900466918946,0.7871824264526367
0.5883813858032226,0.7871824264526367
0.5912349700927734,0.7901138305664063
0.5906667709350586,0.7901138305664063
0.5896116256713867,0.7896389007568360
0.5896116256713867,0.7896389007568360
0.5917951583862304,0.7894763946533203
0.5917951583862304,0.7894763946533203
0.5913974761962890,0.7919872283935546
0.5913974761962890,0.7919872283935546
0.5908063888549805,0.7899198532104492
0.5908063888549805,0.7899198532104492
0.5921991348266601,0.7931253433227539
0.5921991348266601,0.7931253433227539
0.5904167175292968,0.7915054321289062
0.5904167175292968,0.7915054321289062
0.5920291900634765,0.7911214828491211
0.5920291900634765,0.7911214828491211
0.5914999008178711,0.7930223464965820
0.5914999008178711,0.7930223464965820
0.5903417587280273,0.7918716430664062
0.5903417587280273,0.7918716430664062
0.5915788650512696,0.7926286697387696
0.5915788650512696,0.7926286697387696
0.5896368026733398,0.7912542343139648
0.5896368026733398,0.7912542343139648
0.5912424087524414,0.7903690338134766
0.5912424087524414,0.7903690338134766
0.5905935287475585,0.7945655822753906
0.5905935287475585,0.7945655822753906
0.5898393630981446,0.7908216476440429
0.5898393630981446,0.7908216476440429
0.5907274246215820,0.7887920379638672
0.5907274246215820,0.7887920379638672
0.5913911819458008,0.7930727005004883
0.5920944213867188,0.7930727005004883
0.5899234771728515,0.7905441284179687
0.5894989013671875,0.7881357192993164
0.5850242614746094,0.7762109756469726
0.5850242614746094,0.7762109756469726
0.5797691345214844,0.7662797927856445
0.5797691345214844,0.7662797927856445
0.5727258682250976,0.7526235580444336
0.5727258682250976,0.7526235580444336
0.5645925521850585,0.7387115478515625
0.5645925521850585,0.7387115478515625
0.5611747741699219,0.7277269363403320
0.5611747741699219,0.7277269363403320
0.5559082031250000,0.7249689102172852
0.5559082031250000,0.7249689102172852
0.5541481018066406,0.7210853576660156
0.5541481018066406,0.7210853576660156
0.5522735595703124,0.7186597824096680
0.5522735595703124,0.7186597824096680
0.5509757995605469,0.7121412277221679
0.5509757995605469,0.7121412277221679
0.5519931793212890,0.7168510437011718
0.5519931793212890,0.7168510437011718
0.5507915496826171,0.7178592681884766
0.5507915496826171,0.7178592681884766
0.5520687103271484,0.7192188262939453
0.5502233505249023,0.7192188262939453
0.5542625427246094,0.7195650100708008
0.5542625427246094,0.7195650100708008
0.5557485580444336,0.7257064819335938
0.5557485580444336,0.7257064819335938
0.5599903106689453,0.7335388183593750
0.5599903106689453,0.7335388183593750
0.5614717483520507,0.7397163391113281
0.5614717483520507,0.7397163391113281
0.5665912628173828,0.7433040618896484
0.5665912628173828,0.7433040618896484
0.5705028533935547,0.7536684036254883
0.5705028533935547,0.7536684036254883
0.5728271484374999,0.7575742721557617
0.5728271484374999,0.7575742721557617
0.5759582519531250,0.7630685806274414
0.5759582519531250,0.7630685806274414
0.5763244628906250,0.7630353927612304
0.5763244628906250,0.7630353927612304
0.5784748077392577,0.7680593490600586
0.5784748077392577,0.7680593490600586
0.5800849914550781,0.7714616775512695
0.5800849914550781,0.7714616775512695
0.5793748855590820,0.7704477310180664
0.5793748855590820,0.7704477310180664
0.5820196151733398,0.7701627731323242
0.5820196151733398,0.7701627731323242
0.5810966491699219,0.7751815795898437
0.5810966491699219,0.7751815795898437
0.5827680587768554,0.7763259887695312
0.5827680587768554,0.7763259887695312
0.5832618713378906,0.7780952453613281
0.5832618713378906,0.7780952453613281
0.5832967758178711,0.7736354827880859
0.5832967758178711,0.7736354827880859
0.5852045059204102,0.7798067092895508
0.5852045059204102,0.7798067092895508
0.5838872909545898,0.7814168930053711
0.5838872909545898,0.7814168930053711
0.5846792221069336,0.7811473846435547
0.5823921203613281,0.7811473846435547
0.5859832763671875,0.7791406631469726
0.5859832763671875,0.7791406631469726
0.5854059219360351,0.7816778182983398
0.5854059219360351,0.7816778182983398
0.5872140884399414,0.7840856552124024
0.5872140884399414,0.7840856552124024
0.5853572845458984,0.7847499847412109
0.5853572845458984,0.7847499847412109
0.5870063781738281,0.7815273284912109
0.5870063781738281,0.7815273284912109
0.5879001617431641,0.7868974685668945
0.5879001617431641,0.7868974685668945
0.5872220993041992,0.7860403060913086
0.5872220993041992,0.7860403060913086
0.5885215759277344,0.7873947143554687
0.5885215759277344,0.7873947143554687
0.5874401092529297,0.7843534469604492
0.5874401092529297,0.7843534469604492
0.5887247085571289,0.7878347396850586
0.5887247085571289,0.7878347396850586
0.5896888732910156,0.7896715164184570
0.5896888732910156,0.7896715164184570
0.5880746841430664,0.7876264572143554
0.5880746841430664,0.7876264572143554
0.5902702331542968,0.7857061386108398
0.5902702331542968,0.7857061386108398
0.5883928298950195,0.7893808364868163
0.5883928298950195,0.7893808364868163
0.5893993377685547,0.7891210556030274
0.5893993377685547,0.7891210556030274
0.5889255523681640,0.7885511398315429
0.5889255523681640,0.7885511398315429
0.5871940612792969,0.7796676635742187
0.5871940612792969,0.7796676635742187
0.5852783203124999,0.7760793685913085
0.5801713943481445,0.7760793685913085
0.5766380310058593,0.7613559722900390
0.5766380310058593,0.7613559722900390
0.5683839797973632,0.7442155838012695
0.5683839797973632,0.7442155838012695
0.5616474151611328,0.7288444519042968
0.5616474151611328,0.7288444519042968
0.5548707962036132,0.7205326080322265
0.5548707962036132,0.7205326080322265
0.5524618148803710,0.7162931442260742
0.5524618148803710,0.7162931442260742
0.5476432800292969,0.7121292114257812
0.5476432800292969,0.7121292114257812
0.5475975036621094,0.7066400527954101
0.5475975036621094,0.7066400527954101
0.5478160858154296,0.7102958679199218
0.5478160858154296,0.7102958679199218
0.5467145919799804,0.7085483551025390
0.5467145919799804,0.7085483551025390
0.5485708236694335,0.7110511779785156
0.5485708236694335,0.7110511779785156
0.5478939056396485,0.7101305007934570
0.5478939056396485,0.7101305007934570
0.5502639770507812,0.7151184082031250
0.5502639770507812,0.7151184082031250
0.5531164169311523,0.7210641860961914
0.5531164169311523,0.7210641860961914
0.5538631439208984,0.7232803344726563
0.5538631439208984,0.7232803344726563
0.5592103958129883,0.7276914596557617
0.5592103958129883,0.7276914596557617
0.5606180191040039,0.7370298385620117
0.5606180191040039,0.7370298385620117
0.5648580551147461,0.7423999786376952
0.5648580551147461,0.7423999786376952
0.5680515289306640,0.7491079330444336
0.5680515289306640,0.7491079330444336
0.5697006225585938,0.7488916397094726
0.5697006225585938,0.7488916397094726
0.5737295150756836,0.7575874328613281
0.5737295150756836,0.7575874328613281
0.5737901687622070,0.7616838455200196
0.5737901687622070,0.7616838455200196
0.5756229400634766,0.7632619857788085
0.5738325119018555,0.7632619857788085
0.5779764175415039,0.7640407562255859
0.5779764175415039,0.7640407562255859
0.5777257919311524,0.7667272567749023
0.5777257919311524,0.7667272567749023
0.5804769515991210,0.7702291488647460
0.5804769515991210,0.7702291488647460
0.5791728973388671,0.7720184326171875
0.5791728973388671,0.7720184326171875
0.5812219619750977,0.7697954177856445
0.5812219619750977,0.7697954177856445
0.5826278686523437,0.7758201599121094
0.5826278686523437,0.7758201599121094
0.5821220397949218,0.7752485275268555
0.5821220397949218,0.7752485275268555
0.5839811325073242,0.7772357940673827
0.5839811325073242,0.7772357940673827
0.5829317092895507,0.7749853134155273
0.5829317092895507,0.7749853134155273
0.5842449188232421,0.7782405853271485
0.5842449188232421,0.7782405853271485
0.5853670120239257,0.7805168151855468
0.5853670120239257,0.7805168151855468
0.5836229324340820,0.7787818908691406
0.5836229324340820,0.7787818908691406
0.5863088607788086,0.7776586532592773
0.5863088607788086,0.7776586532592773
0.5846591949462890,0.7819295883178711
0.5846591949462890,0.7819295883178711
0.5858528137207031,0.7822832107543946
0.5858528137207031,0.7822832107543946
0.5862545013427735,0.7835369110107422
0.5862545013427735,0.7835369110107422
0.5854574203491211,0.7780117034912110
0.5854574203491211,0.7780117034912110
0.5875545501708984,0.7839054107666016
0.5875545501708984,0.7839054107666016
0.5858911514282227,0.7845308303833007
0.5858911514282227,0.7845308303833007
0.5865606307983399,0.7838144302368164
0.5865606307983399,0.7838144302368164
0.5877925872802734,0.7815994262695313
0.5877925872802734,0.7815994262695313
0.5860759735107421,0.7822980880737305
0.5860759735107421,0.7822980880737305
0.5876037597656250,0.7830717086791992
0.5876037597656250,0.7830717086791992
0.5839021682739257,0.7790891647338867
0.5839021682739257,0.7790891647338867
0.5824716567993163,0.7684387207031250
0.5824716567993163,0.7684387207031250
0.5791065216064453,0.7643537521362305
0.5791065216064453,0.7643537521362305
0.5721828460693359,0.7511959075927734
0.5721828460693359,0.7511959075927734
0.5678026199340820,0.7416910171508789
0.5678026199340820,0.7416910171508789
0.5608921051025391,0.7288089752197265
0.5608921051025391,0.7288089752197265
0.5570503234863281,0.7230875015258789
0.5570503234863281,0.7230875015258789
0.5540422439575196,0.7185007095336914
0.5529161453247070,0.7185007095336914
0.5489444732666016,0.7104600906372071
0.5489444732666016,0.7104600906372071
0.5486131668090820,0.7043151855468750
0.5486131668090820,0.7043151855468750
0.5448875427246094,0.7053812026977538
0.5448875427246094,0.7053812026977538
0.5447135925292969,0.7029676437377930
0.5447135925292969,0.7029676437377930
0.5440853118896484,0.7031599044799804
0.5440853118896484,0.7031599044799804
0.5428928375244141,0.6966436386108398
0.5428928375244141,0.6966436386108398
0.5448303222656250,0.7026025772094726
0.5448303222656250,0.7026025772094726
0.5438100814819335,0.7054018020629883
0.5438100814819335,0.7054018020629883
0.5457029342651367,0.7074943542480469
0.5457029342651367,0.7074943542480469
0.5495864868164062,0.7105367660522460
0.5495864868164062,0.7105367660522460
0.5523805618286133,0.7202362060546875
0.5523805618286133,0.7202362060546875
0.5586450576782226,0.7303110122680664
0.5586450576782226,0.7303110122680664
0.5604709625244141,0.7382028579711913
0.5604709625244141,0.7382028579711913
0.5652626037597656,0.7394073486328124
0.5652626037597656,0.7394073486328124
0.5685453414916992,0.7497802734375000
0.5685453414916992,0.7497802734375000
0.5693155288696289,0.7522047042846679
0.5693155288696289,0.7522047042846679
0.5721336364746094,0.7558422088623047
0.5721336364746094,0.7558422088623047
0.5719585418701172,0.7541759490966796
0.5719585418701172,0.7541759490966796
0.5739618301391601,0.7595598220825195
0.5739618301391601,0.7595598220825195
0.5755399703979492,0.7625942230224609
0.5765836715698242,0.7625942230224609
0.5742055892944335,0.7614549636840821
0.5742055892944335,0.7614549636840821
0.5770643234252929,0.7599134445190430
0.5770643234252929,0.7599134445190430
0.5758478164672851,0.7654094696044922
0.5758478164672851,0.7654094696044922
0.5771724700927734,0.7664474487304688
0.5771724700927734,0.7664474487304688
0.5779958724975586,0.7681577682495117
0.5779958724975586,0.7681577682495117
0.5775300979614257,0.7627693176269531
0.5775300979614257,0.7627693176269531
0.5799665451049805,0.7696025848388671
0.5799665451049805,0.7696025848388671
0.5787117004394531,0.7710399627685547
0.5787117004394531,0.7710399627685547
0.5795848846435546,0.7712734222412109
0.5795848846435546,0.7712734222412109
0.5813793182373047,0.7691082000732422
0.5813793182373047,0.7691082000732422
0.5808122634887695,0.7726215362548828
0.5808122634887695,0.7726215362548828
0.5829517364501953,0.7758213043212890
0.5829517364501953,0.7758213043212890
0.5813266754150390,0.7760908126831054
0.5813266754150390,0.7760908126831054
0.5829866409301757,0.7718559265136719
0.5829866409301757,0.7718559265136719
0.5842849731445312,0.7784088134765624
0.5842849731445312,0.7784088134765624
0.5834009170532226,0.7772209167480468
0.5834009170532226,0.7772209167480468
0.5849596023559570,0.7793455123901367
0.5849596023559570,0.7793455123901367
0.5841007232666016,0.7758413314819336
0.5841007232666016,0.7758413314819336
0.5852056503295898,0.7802021026611328
0.5852056503295898,0.7802021026611328
0.5864221572875976,0.7830545425415039
0.5864221572875976,0.7830545425415039
0.5844669342041016,0.7803354263305664
0.5844669342041016,0.7803354263305664
0.5869731903076172,0.7775459289550781
0.5869731903076172,0.7775459289550781
0.5851484298706054,0.7821390151977539
0.5851484298706054,0.7821390151977539
0.5838655471801758,0.7794353485107421
0.5863672256469726,0.7794353485107421
0.5844949722290039,0.7761749267578125
0.5844949722290039,0.7761749267578125
0.5826725006103516,0.7747381210327148
0.5826725006103516,0.7747381210327148
0.5797840118408203,0.7704305648803711
0.5797840118408203,0.7704305648803711
0.5792501449584960,0.7665584564208984
0.5792501449584960,0.7665584564208984
0.5755548477172852,0.7622983932495117
0.5755548477172852,0.7622983932495117
0.5764829635620117,0.7593652725219726
0.5764829635620117,0.7593652725219726
0.5752235412597656,0.7629947662353516
0.5752235412597656,0.7629947662353516
0.5736322402954102,0.7561712265014648
0.5736322402954102,0.7561712265014648
0.5739967346191406,0.7572589874267578
0.5739967346191406,0.7572589874267578
0.5717582702636719,0.7547779083251953
0.5717582702636719,0.7547779083251953
0.5735321044921875,0.7563079833984375
0.5735321044921875,0.7563079833984375
0.5732322692871094,0.7572052001953125
0.5732322692871094,0.7572052001953125
0.5730852127075196,0.7562032699584961
0.5730852127075196,0.7562032699584961
0.5758701324462890,0.7611642837524414
0.5758701324462890,0.7611642837524414
0.5755302429199218,0.7658391952514648
0.5755302429199218,0.7658391952514648
0.5789909362792969,0.7660749435424804
0.5789909362792969,0.7660749435424804
0.5794847488403320,0.7710491180419922
0.5794847488403320,0.7710491180419922
0.5801347732543946,0.7702503204345703
0.5801347732543946,0.7702503204345703
0.5823434829711914,0.7767826080322265
0.5823434829711914,0.7767826080322265
0.5812133789062500,0.7748582839965820
0.5812133789062500,0.7748582839965820
0.5837471008300781,0.7753927230834960
0.5837471008300781,0.7753927230834960
0.5837287902832031,0.7781530380249023
0.5837287902832031,0.7781530380249023
0.5834655761718750,0.7791984558105468
0.5834655761718750,0.7791984558105468
0.5853092193603515,0.7803102493286133
0.5853092193603515,0.7803102493286133
0.5834609985351562,0.7798948287963867
0.5834609985351562,0.7798948287963867
0.5860788345336914,0.7797552108764648
0.5860788345336914,0.7797552108764648
0.5859014511108398,0.7852506637573242
0.5859014511108398,0.7852506637573242
0.5855558395385742,0.7811725616455077
0.5855558395385742,0.7811725616455077
0.5872072219848633,0.7844141006469726
0.5872072219848633,0.7844141006469726
0.5857109069824219,0.7832605361938476
0.5857109069824219,0.7832605361938476
0.5879087448120117,0.7858783721923828
0.5879087448120117,0.7858783721923828
0.5875871658325195,0.7863824844360351
0.5875871658325195,0.7863824844360351
0.5868541717529296,0.7842475891113281
0.5868541717529296,0.7842475891113281
0.5887115478515624,0.7871721267700195
0.5887115478515624,0.7871721267700195
0.5871912002563476,0.7889345169067382
0.5871912002563476,0.7889345169067382
0.5893152236938476,0.7864837646484375
0.5893152236938476,0.7864837646484375
0.5888334274291992,0.7889745712280273
0.5910673141479492,0.7889745712280273
0.5883373260498047,0.7865209579467773
0.5883373260498047,0.7865209579467773
0.5896923065185546,0.7919528961181640
0.5896923065185546,0.7919528961181640
0.5882566452026367,0.7888870239257812
0.5882566452026367,0.7888870239257812
0.5899188995361327,0.7885620117187500
0.5899188995361327,0.7885620117187500
0.5897718429565429,0.7906700134277344
0.5897718429565429,0.7906700134277344
0.5893907546997070,0.7912313461303710
0.5893907546997070,0.7912313461303710
0.5907251358032226,0.7915843963623047
0.5907251358032226,0.7915843963623047
0.5891613006591797,0.7901447296142577
0.5891613006591797,0.7901447296142577
0.5907268524169922,0.7884544372558594
0.5907268524169922,0.7884544372558594
0.5894954681396484,0.7914539337158203
0.5894954681396484,0.7914539337158203
0.5876415252685546,0.7829790115356445
0.5876415252685546,0.7829790115356445
0.5848222732543945,0.7765085220336914
0.5848222732543945,0.7765085220336914
0.5769081115722656,0.7615997314453125
0.5769081115722656,0.7615997314453125
0.5706241607666015,0.7478359222412109
0.5706241607666015,0.7478359222412109
0.5624032974243164,0.7347015380859375
0.5624032974243164,0.7347015380859375
0.5557748794555664,0.7221628189086914
0.5557748794555664,0.7221628189086914
0.5521236419677734,0.7166101455688476
0.5521236419677734,0.7166101455688476
0.5473840713500976,0.7129428863525390
0.5473840713500976,0.7129428863525390
0.5473503112792969,0.7076946258544922
0.5473503112792969,0.7076946258544922
0.5452754974365234,0.7078559875488281
0.5452754974365234,0.7078559875488281
0.5446060180664062,0.7049703598022461
0.5434020996093750,0.7049703598022461
0.5460313796997071,0.7100349426269531
0.5460313796997071,0.7100349426269531
0.5449378967285156,0.7081403732299805
0.5449378967285156,0.7081403732299805
0.5478149414062500,0.7095565795898438
0.5478149414062500,0.7095565795898438
0.5488025665283203,0.7145130157470703
0.5488025665283203,0.7145130157470703
0.5509826660156250,0.7190362930297851
0.5509826660156250,0.7190362930297851
0.5549709320068359,0.7252315521240235
0.5549709320068359,0.7252315521240235
0.5563573837280273,0.7301210403442383
0.5563573837280273,0.7301210403442383
0.5620605468750000,0.7359294891357422
0.5620605468750000,0.7359294891357422
0.5647710800170899,0.7461221694946288
0.5647710800170899,0.7461221694946288
0.5671554565429687,0.7473495483398437
0.5671554565429687,0.7473495483398437
0.5706756591796874,0.7540935516357422
0.5706756591796874,0.7540935516357422
0.5708919525146484,0.7557243347167969
0.5708919525146484,0.7557243347167969
0.5740751266479492,0.7599414825439453
0.5740751266479492,0.7599414825439453
0.5745048522949219,0.7619579315185546
0.5745048522949219,0.7619579315185546
0.5745643615722656,0.7612129211425781
0.5745643615722656,0.7612129211425781
0.5766666412353515,0.7646318435668945
0.5766666412353515,0.7646318435668945
0.5755199432373047,0.7663770675659179
0.5755199432373047,0.7663770675659179
0.5779226303100585,0.7650581359863281
0.5779226303100585,0.7650581359863281
0.5777578353881836,0.7678808212280274
0.5777578353881836,0.7678808212280274
0.5775438308715820,0.7659227371215820
0.5775438308715820,0.7659227371215820
0.5793462753295898,0.7713832855224609
0.5793462753295898,0.7713832855224609
0.5780496597290039,0.7691591262817382
0.5780496597290039,0.7691591262817382
0.5801433563232422,0.7696317672729492
0.5801433563232422,0.7696317672729492
0.5801599502563476,0.7723743438720703
0.5801599502563476,0.7723743438720703
0.5800729751586914,0.7727159500122071
0.5800729751586914,0.7727159500122071
0.5817060470581055,0.7742952346801758
0.5817060470581055,0.7742952346801758
0.5803745269775390,0.7736732482910156
0.5803745269775390,0.7736732482910156
0.5825849533081054,0.7733688354492188
0.5825849533081054,0.7733688354492188
0.5823457717895507,0.7782909393310546
0.5823457717895507,0.7782909393310546
0.5820585250854492,0.7745899200439453
0.5820585250854492,0.7745899200439453
0.5833528518676757,0.7776071548461914
0.5833528518676757,0.7776071548461914
0.5819583892822265,0.7763849258422851
0.5819583892822265,0.7763849258422851
0.5841127395629883,0.7782617568969726
0.5841127395629883,0.7782617568969726
0.5837408065795898,0.7788156509399414
0.5837408065795898,0.7788156509399414
0.5831005096435546,0.7764547348022460
0.5831005096435546,0.7764547348022460
0.5844217300415039,0.7782314300537109
0.5844217300415039,0.7782314300537109
0.5822130203247070,0.7781250000000000
0.5822130203247070,0.7781250000000000
0.5831022262573242,0.7726982116699218
0.5831022262573242,0.7726982116699218
0.5787992477416992,0.7661373138427734
0.5787992477416992,0.7661373138427734
0.5720603942871093,0.7499439239501953
0.5720603942871093,0.7499439239501953
0.5654565811157226,0.7391326904296874
0.5654565811157226,0.7391326904296874
0.5564632415771484,0.7232986450195312
0.5564632415771484,0.7232986450195312
0.5527421951293945,0.7132598876953125
0.5527421951293945,0.7132598876953125
0.5481004714965820,0.7088916778564452
0.5481004714965820,0.7088916778564452
0.5446815490722656,0.7042865753173828
0.5446815490722656,0.7042865753173828
0.5444435119628906,0.7025562286376953
0.5444435119628906,0.7025562286376953
0.5417306900024413,0.7005243301391602
0.5417306900024413,0.7005243301391602
0.5436304092407226,0.6995395660400391
0.5436304092407226,0.6995395660400391
0.5434335708618164,0.7042980194091797
0.5434335708618164,0.7042980194091797
0.5433105468750000,0.7014902114868163
0.5428688049316406,0.7014902114868163
0.5457120895385742,0.7059820175170898
0.5457120895385742,0.7059820175170898
0.5454780578613281,0.7074337005615234
0.5454780578613281,0.7074337005615234
0.5493015289306641,0.7128456115722656
0.5493015289306641,0.7128456115722656
0.5511137008666992,0.7177345275878906
0.5511137008666992,0.7177345275878906
0.5529716491699218,0.7205337524414063
0.5529716491699218,0.7205337524414063
0.5577220916748047,0.7286705017089844
0.5577220916748047,0.7286705017089844
0.5590530395507812,0.7352474212646484
0.5590530395507812,0.7352474212646484
0.5637273788452148,0.7380323410034180
0.5637273788452148,0.7380323410034180
0.5656276702880859,0.7450590133666992
0.5656276702880859,0.7450590133666992
0.5671520233154297,0.7462509155273437
0.5671520233154297,0.7462509155273437
0.5705635070800781,0.7548002243041992
0.5705635070800781,0.7548002243041992
0.5704170227050781,0.7548374176025391
0.5704170227050781,0.7548374176025391
0.5734399795532227,0.7566610336303711
0.5734399795532227,0.7566610336303711
0.5743566513061523,0.7608816146850585
0.5743566513061523,0.7608816146850585
0.5747360229492188,0.7624351501464843
0.5747360229492188,0.7624351501464843
0.5770248413085938,0.7646604537963867
0.5770248413085938,0.7646604537963867
0.5760698318481445,0.7648298263549804
0.5760698318481445,0.7648298263549804
0.5786762237548828,0.7652561187744140
0.5786762237548828,0.7652561187744140
0.5788192749023438,0.7710216522216796
0.5788192749023438,0.7710216522216796
0.5787963867187500,0.7679082870483398
0.5787963867187500,0.7679082870483398
0.5805570602416992,0.7714759826660156
0.5805570602416992,0.7714759826660156
0.5794904708862304,0.7709672927856445
0.5794904708862304,0.7709672927856445
0.5818977355957031,0.7732812881469726
0.5818977355957031,0.7732812881469726
0.5816694259643554,0.7743473052978516
0.5816694259643554,0.7743473052978516
0.5813438415527343,0.7727445602416992
0.5813438415527343,0.7727445602416992
0.5829860687255859,0.7756124496459961
0.5829860687255859,0.7756124496459961
0.5816682815551758,0.7773468017578125
0.5816682815551758,0.7773468017578125
0.5839868545532226,0.7758230209350586
0.5839868545532226,0.7758230209350586
0.5834180831909179,0.7785501480102539
0.5834180831909179,0.7785501480102539
0.5834054946899414,0.7766933441162109
0.5834054946899414,0.7766933441162109
0.5850322723388671,0.7816474914550781
0.5850322723388671,0.7816474914550781
0.5836435317993164,0.7792030334472656
0.5836435317993164,0.7792030334472656
0.5857864379882812,0.7793655395507812
0.5857864379882812,0.7793655395507812
0.5853109359741211,0.7813167572021484
0.5853109359741211,0.7813167572021484
0.5848228454589843,0.7812692642211914
0.5848228454589843,0.7812692642211914
0.5859054565429688,0.7815559387207031
0.5859054565429688,0.7815559387207031
0.5833122253417968,0.7787126541137696
0.5833122253417968,0.7787126541137696
0.5839794158935546,0.7739799499511718
0.5839794158935546,0.7739799499511718
0.5796049118041992,0.7692375183105469
0.5796049118041992,0.7692375183105469
0.5726097106933593,0.7514734268188477
0.5726097106933593,0.7514734268188477
0.5620668411254882,0.7306966781616211
0.5620668411254882,0.7278871536254883
0.5565959930419921,0.7219018936157227
0.5548170089721679,0.7219018936157227
0.5504402160644531,0.7119392395019531
0.5504402160644531,0.7119392395019531
0.5482915878295899,0.7079418182373046
0.5482915878295899,0.7079418182373046
0.5444503784179687,0.7010427474975586
0.5444503784179687,0.7010427474975586
0.5440252304077148,0.7020332336425781
0.5440252304077148,0.7020332336425781
0.5440704345703125,0.7030735015869141
0.5440704345703125,0.7030735015869141
0.5425397872924804,0.7002256393432617
0.5425397872924804,0.7002256393432617
0.5449087142944335,0.6995155334472656
0.5449087142944335,0.6995155334472656
0.5439107894897460,0.7049028396606445
0.5439107894897460,0.7049028396606445
0.5465177536010742,0.7075836181640625
0.5465177536010742,0.7075836181640625
0.5491636276245117,0.7129388809204101
0.5491636276245117,0.7129388809204101
0.5509740829467773,0.7125961303710937
0.5535936355590820,0.7125961303710937
0.5559888839721679,0.7238920211791992
0.5559888839721679,0.7238920211791992
0.5577913284301758,0.7314170837402344
0.5577913284301758,0.7314170837402344
0.5619604110717773,0.7370069503784179
0.5619604110717773,0.7370069503784179
0.5662319183349609,0.7409116744995117
0.5688903808593749,0.7409116744995117
0.5679840087890625,0.7478954315185546
0.5679840087890625,0.7478954315185546
0.5718990325927734,0.7537118911743164
0.5718990325927734,0.7537118911743164
0.5713737487792968,0.7569099426269531
0.5713737487792968,0.7569099426269531
0.5741025924682617,0.7553192138671875
0.5741025924682617,0.7553192138671875
0.5758792877197265,0.7625186920166015
0.5758792877197265,0.7625186920166015
0.5756813049316406,0.7627218246459960
0.5756813049316406,0.7627218246459960
0.5777463912963867,0.7652051925659179
0.5777463912963867,0.7652051925659179
0.5768995285034180,0.7627595901489258
0.5768995285034180,0.7627595901489258
0.5787191390991211,0.7674705505371093
0.5787191390991211,0.7674705505371093
0.5800752639770508,0.7701896667480469
0.5800752639770508,0.7701896667480469
0.5789382934570312,0.7688049316406250
0.5789382934570312,0.7688049316406250
0.5814846038818359,0.7676879882812500
0.5814846038818359,0.7676879882812500
0.5801353454589844,0.7726976394653320
0.5801353454589844,0.7726976394653320
0.5818628311157227,0.7737928390502929
0.5818628311157227,0.7737928390502929
0.5825946807861327,0.7751707077026367
0.5825946807861327,0.7751707077026367
0.5821208953857422,0.7699087142944335
0.5821208953857422,0.7699087142944335
0.5843130111694336,0.7761302947998047
0.5843130111694336,0.7761302947998047
0.5827537536621094,0.7770051956176758
0.5827537536621094,0.7770051956176758
0.5838283538818360,0.7769193649291992
0.5838283538818360,0.7769193649291992
0.5848829269409179,0.7751152038574218
0.5848829269409179,0.7751152038574218
0.5839576721191406,0.7770034790039062
0.5839576721191406,0.7770034790039062
0.5858940124511719,0.7797185897827148
0.5858940124511719,0.7797185897827148
0.5839794158935546,0.7795921325683594
0.5839794158935546,0.7795921325683594
0.5854843139648437,0.7759546279907227
0.5854843139648437,0.7759546279907227
0.5863414764404297,0.7811107635498047
0.5863414764404297,0.7811107635498047
0.5851512908935547,0.7793323516845703
0.5851512908935547,0.7793323516845703
0.5864318847656250,0.7806873321533203
0.5864318847656250,0.7806873321533203
0.5845973968505859,0.7763814926147461
0.5845973968505859,0.7763814926147461
0.5847530364990234,0.7771911621093750
0.5847530364990234,0.7771911621093750
0.5832189559936524,0.7728973388671875
0.5832189559936524,0.7728973388671875
0.5764606475830077,0.7584674835205077
0.5764606475830077,0.7584674835205077
0.5709091186523437,0.7414381027221679
0.5709091186523437,0.7414381027221679
0.5613967895507812,0.7310600280761719
0.5613967895507812,0.7310600280761719
0.5565776824951172,0.7205886840820312
0.5565776824951172,0.7205886840820312
0.5527118682861328,0.7149375915527344
0.5527118682861328,0.7149375915527344
0.5488718032836913,0.7052999496459961
0.5488718032836913,0.7052999496459961
0.5487762451171875,0.7074668884277343
0.5487762451171875,0.7074668884277343
0.5460376739501953,0.7069169998168945
0.5460376739501953,0.7069169998168945
0.5465286254882812,0.7057170867919922
0.5465286254882812,0.7057170867919922
0.5478681564331055,0.7046339035034179
0.5478681564331055,0.7046339035034179
0.5474584579467773,0.7075859069824219
0.5474584579467773,0.7075859069824219
0.5502891540527344,0.7117841720581054
0.5502891540527344,0.7117841720581054
0.5500717163085938,0.7154577255249023
0.5500717163085938,0.7154577255249023
0.5538848876953125,0.7167989730834960
0.5538848876953125,0.7167989730834960
0.5581289291381836,0.7285171508789062
0.5581289291381836,0.7285171508789062
0.5614408493041992,0.7354305267333984
0.5614408493041992,0.7354305267333984
0.5665987014770507,0.7440313339233399
0.5665987014770507,0.7440313339233399
0.5686941146850586,0.7469398498535156
0.5686941146850586,0.7469398498535156
0.5721616744995117,0.7548437118530273
0.5721616744995117,0.7548437118530273
0.5744974136352539,0.7589962005615234
0.5744974136352539,0.7589962005615234
0.5744905471801758,0.7595838546752930
0.5744905471801758,0.7595838546752930
0.5768846511840821,0.7591466903686523
0.5768846511840821,0.7591466903686523
0.5761888504028320,0.7645420074462891
0.5761888504028320,0.7645420074462891
0.5780296325683594,0.7663295745849609
0.5780296325683594,0.7663295745849609
0.5789897918701171,0.7678218841552734
0.5789897918701171,0.7678218841552734
0.5789291381835937,0.7636625289916992
0.5789291381835937,0.7636625289916992
0.5808454513549804,0.7696706771850585
0.5808454513549804,0.7696706771850585
0.5798612594604492,0.7710582733154296
0.5798612594604492,0.7710582733154296
0.5808076858520508,0.7717014312744140
0.5808076858520508,0.7717014312744140
0.5820533752441406,0.7696363449096679
0.5820533752441406,0.7696363449096679
0.5813621520996094,0.7723411560058594
0.5813621520996094,0.7723411560058594
0.5829557418823242,0.7749944686889648
0.5829557418823242,0.7749944686889648
0.5813564300537110,0.7751592636108399
0.5813564300537110,0.7751592636108399
0.5829523086547851,0.7717958450317383
0.5829523086547851,0.7717958450317383
0.5839159011840820,0.7772346496582031
0.5839159011840820,0.7772346496582031
0.5834690093994140,0.7764129638671875
0.5834690093994140,0.7764129638671875
0.5849029541015625,0.7785890579223632
0.5849029541015625,0.7785890579223632
0.5838174819946289,0.7752851486206055
0.5838174819946289,0.7752851486206055
0.5851129531860352,0.7796831130981445
0.5851129531860352,0.7796831130981445
0.5861074447631835,0.7823318481445313
0.5861074447631835,0.7823318481445313
0.5849349975585937,0.7801420211791992
0.5849349975585937,0.7801420211791992
0.5871768951416015,0.7781250000000000
0.5871768951416015,0.7781250000000000
0.5855638504028320,0.7829309463500976
0.5855638504028320,0.7829309463500976
0.5867465972900391,0.7827787399291992
0.5867465972900391,0.7827787399291992
0.5870115280151367,0.7838539123535156
0.5870115280151367,0.7838539123535156
0.5858997344970703,0.7771448135375977
0.5858997344970703,0.7771448135375977
0.5872461318969726,0.7821756362915039
0.5848537445068359,0.7821756362915039
0.5849109649658203,0.7812681198120117
0.5849109649658203,0.7812681198120117
0.5837219238281249,0.7749916076660156
0.5837219238281249,0.7749916076660156
0.5801868438720703,0.7619911193847656
0.5801868438720703,0.7619911193847656
0.5719762802124023,0.7492858886718750
0.5719762802124023,0.7492858886718750
0.5655080795288085,0.7359947204589844
0.5655080795288085,0.7359947204589844
0.5565616607666015,0.7242948532104492
0.5565616607666015,0.7242948532104492
0.5529418945312500,0.7121732711791992
0.5529418945312500,0.7121732711791992
0.5497301101684570,0.7112216949462891
0.5497301101684570,0.7112216949462891
0.5465000152587890,0.7062166213989257
0.5465000152587890,0.7062166213989257
0.5460954666137695,0.7049995422363281
0.5460954666137695,0.7049995422363281
0.5438598632812500,0.7006095886230469
0.5463947296142578,0.7006095886230469
0.5451284408569336,0.7045434951782227
0.5451284408569336,0.7045434951782227
0.5463787078857422,0.7070743560791015
0.5463787078857422,0.7070743560791015
0.5465051651000976,0.7077341079711914
0.5465051651000976,0.7077341079711914
0.5501455307006836,0.7098518371582031
0.5501455307006836,0.7098518371582031
0.5510484695434570,0.7184400558471680
0.5510484695434570,0.7184400558471680
0.5555654525756836,0.7250576019287109
0.5555654525756836,0.7250576019287109
0.5590599060058593,0.7318799972534179
0.5590599060058593,0.7318799972534179
0.5618642807006836,0.7328538894653320
0.5618642807006836,0.7328538894653320
0.5666175842285156,0.7442064285278320
0.5666175842285156,0.7442064285278320
0.5676155090332031,0.7494409561157226
0.5714635848999023,0.7494409561157226
0.5708244323730468,0.7532466888427735
0.5708244323730468,0.7532466888427735
0.5734519958496094,0.7538572311401367
0.5734519958496094,0.7538572311401367
0.5739583969116211,0.7585773468017578
0.5739583969116211,0.7585773468017578
0.5767976760864257,0.7633094787597656
0.5767976760864257,0.7633094787597656
0.5757396697998046,0.7645248413085938
0.5757396697998046,0.7645248413085938
0.5779884338378906,0.7624414443969726
0.5779884338378906,0.7624414443969726
0.5793777465820312,0.7688077926635742
0.5793777465820312,0.7688077926635742
0.5787975311279296,0.7682275772094727
0.5787975311279296,0.7682275772094727
0.5811126708984374,0.7708488464355469
0.5811126708984374,0.7708488464355469
0.5799728393554687,0.7688844680786132
0.5799728393554687,0.7688844680786132
0.5814439773559570,0.7726558685302735
0.5814439773559570,0.7726558685302735
0.5831960678100586,0.7760885238647460
0.5831960678100586,0.7760885238647460
0.5818410873413086,0.7742340087890625
0.5818410873413086,0.7742340087890625
0.5846225738525390,0.7732589721679687
0.5846225738525390,0.7732589721679687
0.5832406997680664,0.7775928497314453
0.5832406997680664,0.7775928497314453
0.5846563339233398,0.7780815124511719
0.5846563339233398,0.7780815124511719
0.5851764678955078,0.7796968460083008
0.5851764678955078,0.7796968460083008
0.5846168518066406,0.7746986389160156
0.5846168518066406,0.7746986389160156
0.5864004135131836,0.7805757522583008
0.5864004135131836,0.7805757522583008
0.5848909378051758,0.7817293167114258
0.5848909378051758,0.7817293167114258
0.5859243392944335,0.7815090179443359
0.5859243392944335,0.7815090179443359
0.5869394302368164,0.7793666839599609
0.5881490707397461,0.7793666839599609
0.5861068725585937,0.7815233230590820
0.5861068725585937,0.7815233230590820
0.5879018783569335,0.7837875366210937
0.5879018783569335,0.7837875366210937
0.5859180450439453,0.7838853836059571
0.5859180450439453,0.7838853836059571
0.5873079299926758,0.7801128387451172
0.5873079299926758,0.7801128387451172
0.5877668380737304,0.7844844818115234
0.5877668380737304,0.7844844818115234
0.5865188598632812,0.7824216842651367
0.5865188598632812,0.7824216842651367
0.5870681762695312,0.7816669464111328
0.5870681762695312,0.7816669464111328
0.5839857101440430,0.7745223999023437
0.5839857101440430,0.7745223999023437
0.5823102951049804,0.7709135055541992
0.5823102951049804,0.7709135055541992
0.5782762527465820,0.7622417449951172
0.5782762527465820,0.7622417449951172
0.5713623046874999,0.7485288619995117
0.5713623046874999,0.7485288619995117
0.5669935226440429,0.7357944488525391
0.5669935226440429,0.7357944488525391
0.5599966049194336,0.7299104690551758
0.5599966049194336,0.7299104690551758
0.5572357177734375,0.7233924865722656
0.5543849945068359,0.7190248489379882
0.5543981552124023,0.7184286117553711
0.5540067672729492,0.7184286117553711
0.5511783599853516,0.7095142364501953
0.5511783599853516,0.7095142364501953
0.5505077362060546,0.7105247497558593
0.5505077362060546,0.7105247497558593
0.5466911315917968,0.7071710586547851
0.5466911315917968,0.7071710586547851
0.5454156875610351,0.7030380249023437
0.5454156875610351,0.7030380249023437
0.5442632675170899,0.6983236312866211
0.5442632675170899,0.6983236312866211
0.5417959213256835,0.6975757598876953
0.5417959213256835,0.6975757598876953
0.5436315536499023,0.7003309249877929
0.5436315536499023,0.7003309249877929
0.5425071716308594,0.7022335052490234
0.5425071716308594,0.7022335052490234
0.5456291198730469,0.7022832870483399
0.5456291198730469,0.7022832870483399
0.5487653732299804,0.7110277175903320
0.5487653732299804,0.7110277175903320
0.5503103256225585,0.7143888473510742
0.5503103256225585,0.7143888473510742
0.5549486160278320,0.7218143463134765
0.5549486160278320,0.7218143463134765
0.5564180374145508,0.7248075485229492
0.5607965469360351,0.7248075485229492
0.5607513427734375,0.7335657119750977
0.5607513427734375,0.7335657119750977
0.5643058776855469,0.7405614852905273
0.5643058776855469,0.7405614852905273
0.5655893325805664,0.7426340103149414
0.5655893325805664,0.7426340103149414
0.5688068389892578,0.7440662384033203
0.5688068389892578,0.7440662384033203
0.5686300277709960,0.7502334594726562
0.5686300277709960,0.7502334594726562
0.5708129882812499,0.7524690628051758
0.5708129882812499,0.7524690628051758
0.5723545074462890,0.7555927276611328
0.5723545074462890,0.7555927276611328
0.5723791122436523,0.7515758514404297
0.5736265182495117,0.7515758514404297
0.5747291564941406,0.7589366912841796
0.5747291564941406,0.7589366912841796
0.5737901687622070,0.7614315032958984
0.5737901687622070,0.7614315032958984
0.5752126693725585,0.7614933013916015
0.5752126693725585,0.7614933013916015
0.5768302917480469,0.7598178863525390
0.5768302917480469,0.7598178863525390
0.5762495040893555,0.7631732940673828
0.5762495040893555,0.7631732940673828
0.5784564971923828,0.7661218643188477
0.5784564971923828,0.7661218643188477
0.5767742156982422,0.7670825958251953
0.5767742156982422,0.7670825958251953
0.5785818099975586,0.7632356643676758
0.5785818099975586,0.7632356643676758
0.5796014785766601,0.7693639755249023
0.5796014785766601,0.7693639755249023
0.5788988113403321,0.7691785812377929
0.5788988113403321,0.7691785812377929
0.5806446075439453,0.7709203720092773
0.5806446075439453,0.7709203720092773
0.5795791625976562,0.7674539566040038
0.5795791625976562,0.7674539566040038
0.5811836242675781,0.7722650527954101
0.5811836242675781,0.7722650527954101
0.5823749542236328,0.7742322921752930
0.5823749542236328,0.7742322921752930
0.5817661285400391,0.7729442596435546
0.5817661285400391,0.7729442596435546
0.5831171035766601,0.7704889297485351
0.5814096450805664,0.7704889297485351
0.5815715789794922,0.7756319046020508
0.5843112945556640,0.7756319046020508
0.5829832077026367,0.7764507293701172
0.5829832077026367,0.7764507293701172
0.5833236694335937,0.7771774291992187
0.5833236694335937,0.7771774291992187
0.5825242996215820,0.7707315444946289
0.5825242996215820,0.7707315444946289
0.5839508056640624,0.7766990661621094
0.5839508056640624,0.7766990661621094
0.5818044662475585,0.7758567810058593
0.5818044662475585,0.7758567810058593
0.5819143295288086,0.7729980468750000
0.5819143295288086,0.7729980468750000
0.5809089660644531,0.7649774551391602
0.5809089660644531,0.7649774551391602
0.5768365859985352,0.7612907409667968
0.5768365859985352,0.7612907409667968
0.5747303009033203,0.7556430816650390
0.5747303009033203,0.7556430816650390
0.5677597045898437,0.7458194732666016
0.5677597045898437,0.7458194732666016
0.5645038604736328,0.7323160171508789
0.5645038604736328,0.7323160171508789
0.5615295410156250,0.7317901611328125
0.5615295410156250,0.7317901611328125
0.5583292007446289,0.7265453338623047
0.5583292007446289,0.7265453338623047
0.5590101242065429,0.7272445678710937
0.5590101242065429,0.7272445678710937
0.5573221206665039,0.7233398437499999
0.5573221206665039,0.7233398437499999
0.5590501785278320,0.7285640716552734
0.5590501785278320,0.7285640716552734
0.5609384536743164,0.7328842163085937
0.5609384536743164,0.7328842163085937
0.5613372802734374,0.7338998794555663
0.5613372802734374,0.7338998794555663
0.5658634185791015,0.7364942550659179
0.5658634185791015,0.7364942550659179
0.5670518875122070,0.7468351364135742
0.5670518875122070,0.7468351364135742
0.5711505889892577,0.7518121719360351
0.5711505889892577,0.7518121719360351
0.5738931655883789,0.7575222015380859
0.5738931655883789,0.7575222015380859
0.5747343063354492,0.7550640106201172
0.5747343063354492,0.7550640106201172
0.5778705596923828,0.7636173248291015
0.5778705596923828,0.7636173248291015
0.5769819259643555,0.7660869598388672
0.5769819259643555,0.7660869598388672
0.5785886764526367,0.7661882400512695
0.5785886764526367,0.7661882400512695
0.5801856994628906,0.7647640228271484
0.5801856994628906,0.7647640228271484
0.5797428131103516,0.7682167053222656
0.5821861267089844,0.7715246200561523
0.5821861267089844,0.7715246200561523
0.5805747985839843,0.7726781845092773
0.5805747985839843,0.7726781845092773
0.5823537826538085,0.7692255020141602
0.5823537826538085,0.7692255020141602
0.5835416793823242,0.7753973007202148
0.5835416793823242,0.7753973007202148
0.5828046798706055,0.7747879028320312
0.5828046798706055,0.7747879028320312
0.5846179962158203,0.7765634536743163
0.5846179962158203,0.7765634536743163
0.5830747604370117,0.7734872817993164
0.5830747604370117,0.7734872817993164
0.5846580505371094,0.7775751113891601
0.5846580505371094,0.7775751113891601
0.5857200622558594,0.7794816970825195
0.5857200622558594,0.7794816970825195
0.5844783782958984,0.7778509140014648
0.5844783782958984,0.7778509140014648
0.5865205764770508,0.7763294219970703
0.5865205764770508,0.7763294219970703
0.5846752166748047,0.7806364059448242
0.5846752166748047,0.7806364059448242
0.5860897064208984,0.7813974380493164
0.5860897064208984,0.7813974380493164
0.5866756439208984,0.7823169708251952
0.5866756439208984,0.7823169708251952
0.5859174728393555,0.7768627166748047
0.5859174728393555,0.7768627166748047
0.5876598358154297,0.7829040527343750
0.5876598358154297,0.7829040527343750
0.5859924316406250,0.7835803985595703
0.5859924316406250,0.7835803985595703
0.5871128082275391,0.7835042953491210
0.5871128082275391,0.7835042953491210
0.5880031585693359,0.7811553955078124
0.5880031585693359,0.7811553955078124
0.5870779037475585,0.7835729598999023
0.5870779037475585,0.7835729598999023
0.5889312744140625,0.7862771987915039
0.5889312744140625,0.7862771987915039
0.5870309829711914,0.7862033843994141
0.5870309829711914,0.7862033843994141
0.5886245727539062,0.7822219848632812
0.5886245727539062,0.7822219848632812
0.5895229339599609,0.7877758026123046
0.5895229339599609,0.7877758026123046
0.5881439208984375,0.7858554840087890
0.5881439208984375,0.7858554840087890
0.5894983291625976,0.7872247695922852
0.5894983291625976,0.7872247695922852
0.5870567321777344,0.7822820663452148
0.5870567321777344,0.7822820663452148
0.5875350952148437,0.7843368530273437
0.5875350952148437,0.7843368530273437
0.5871751785278320,0.7830751419067382
0.5871751785278320,0.7830751419067382
0.5833986282348632,0.7747753143310546
0.5833986282348632,0.7747753143310546
0.5817792892456054,0.7654008865356445
0.5817792892456054,0.7654008865356445
0.5754055023193360,0.7602973937988281
0.5754055023193360,0.7602973937988281
0.5715379714965820,0.7503284454345703
0.5715379714965820,0.7503284454345703
0.5671176910400391,0.7423604965209961
0.5671176910400391,0.7423604965209961
0.5622688293457031,0.7301239013671875
0.5622688293457031,0.7301239013671875
0.5612989425659179,0.7316041946411133
0.5612989425659179,0.7316041946411133
0.5581941604614258,0.7303567886352539
0.5581941604614258,0.7303567886352539
0.5589717864990235,0.7290927886962890
0.5589717864990235,0.7290927886962890
0.5600166320800781,0.7274173736572266
0.5600166320800781,0.7274173736572266
0.5600709915161133,0.7316722869873047
0.5600709915161133,0.7316722869873047
0.5636215209960938,0.7376335144042968
0.5636215209960938,0.7376335144042968
0.5642726898193359,0.7431232452392578
0.5642726898193359,0.7431232452392578
0.5690425872802735,0.7455940246582031
0.5690425872802735,0.7455940246582031
0.5730119705200195,0.7566524505615234
0.5730119705200195,0.7566524505615234
0.5748327255249023,0.7602779388427734
0.5748327255249023,0.7602779388427734
0.5782436370849610,0.7649024963378906
0.5782436370849610,0.7649024963378906
0.5777235031127930,0.7637002944946288
0.5777235031127930,0.7637002944946288
0.5799894332885742,0.7690286636352539
0.5799894332885742,0.7690286636352539
0.5812185287475585,0.7713535308837890
0.5812185287475585,0.7713535308837890
0.5805599212646484,0.7703659057617187
0.5806732177734375,0.7703659057617187
0.5821952819824219,0.7689628601074219
0.5821952819824219,0.7689628601074219
0.5804832458496093,0.7730186462402343
0.5804832458496093,0.7730186462402343
0.5818078994750976,0.7736869812011719
0.5818078994750976,0.7736869812011719
0.5824928283691406,0.7744920730590820
0.5824928283691406,0.7744920730590820
0.5816001892089844,0.7697519302368164
0.5816001892089844,0.7697519302368164
0.5834884643554688,0.7756290435791016
0.5834884643554688,0.7756290435791016
0.5817993164062499,0.7763362884521484
0.5817993164062499,0.7763362884521484
0.5830535888671875,0.7764844894409180
0.5830535888671875,0.7764844894409180
0.5838214874267578,0.7742958068847656
0.5838214874267578,0.7742958068847656
0.5832418441772461,0.7766996383666992
0.5832418441772461,0.7766996383666992
0.5849613189697266,0.7795743942260742
0.5849613189697266,0.7795743942260742
0.5831285476684570,0.7793352127075195
0.5831285476684570,0.7793352127075195
0.5846448898315429,0.7761371612548827
0.5846448898315429,0.7761371612548827
0.5853761672973633,0.7810329437255860
0.5853761672973633,0.7810329437255860
0.5847536087036133,0.7798410415649414
0.5847536087036133,0.7798410415649414
0.5861858367919922,0.7818449020385742
0.5861858367919922,0.7818449020385742
0.5845012664794922,0.7786497116088867
0.5845012664794922,0.7786497116088867
0.5859060287475586,0.7824171066284179
0.5859060287475586,0.7824171066284179
0.5867242813110352,0.7842470169067383
0.5867242813110352,0.7842470169067383
0.5856828689575195,0.7821166992187499
0.5856828689575195,0.7821166992187499
0.5873685836791992,0.7804023742675781
0.5873685836791992,0.7804023742675781
0.5855976104736328,0.7841285705566406
0.5855976104736328,0.7841285705566406
0.5869560241699219,0.7843574523925781
0.5869560241699219,0.7843574523925781
0.5874464035034179,0.7854291915893554
0.5874464035034179,0.7854291915893554
0.5865880966186523,0.7799921035766602
0.5865880966186523,0.7799921035766602
0.5881221771240234,0.7854114532470703
0.5881221771240234,0.7854114532470703
0.5860347747802734,0.7857994079589844
0.5860347747802734,0.7857994079589844
0.5870658874511718,0.7845485687255859
0.5870658874511718,0.7845485687255859
0.5872055053710937,0.7806381225585938
0.5872055053710937,0.7806381225585938
0.5853149414062500,0.7802164077758789
0.5853149414062500,0.7802164077758789
0.5848571777343750,0.7767997741699219
0.5848571777343750,0.7767997741699219
0.5792947769165039,0.7692461013793945
0.5792947769165039,0.7692461013793945
0.5730377197265625,0.7519031524658203
0.5730377197265625,0.7561574935913086
0.5730377197265625,0.7561574935913086
0.5714864730834961,0.7515575408935546
0.5714864730834961,0.7515575408935546
0.5681716918945312,0.7470823287963867
0.5681716918945312,0.7470823287963867
0.5657884597778320,0.7429767608642578
0.5657884597778320,0.7429767608642578
0.5671554565429687,0.7442859649658203
0.5671554565429687,0.7442859649658203
0.5659240722656250,0.7464717864990235
0.5659240722656250,0.7464717864990235
0.5693138122558593,0.7477117538452148
0.5693138122558593,0.7477117538452148
0.5702968597412109,0.7535528182983399
0.5702968597412109,0.7535528182983399
0.5720581054687500,0.7566890716552734
0.5720581054687500,0.7566890716552734
0.5766889572143554,0.7660978317260742
0.5766889572143554,0.7660978317260742
0.5773212432861328,0.7677068710327148
0.5773212432861328,0.7677068710327148
0.5811847686767578,0.7713146209716797
0.5811847686767578,0.7713146209716797
0.5814434051513672,0.7749509811401367
0.5814434051513672,0.7749509811401367
0.5815595626831055,0.7771848678588867
0.5815595626831055,0.7771848678588867
0.5842025756835937,0.7791921615600585
0.5842025756835937,0.7791921615600585
0.5828819274902344,0.7790777206420898
0.5828819274902344,0.7790777206420898
0.5856204986572265,0.7801059722900391
0.5856204986572265,0.7801059722900391
0.5852972030639648,0.7846532821655273
0.5852972030639648,0.7846532821655273
0.5847524642944336,0.7819118499755859
0.5847524642944336,0.7819118499755859
0.5869737625122070,0.7847700119018555
0.5868432998657226,0.7847700119018555
0.5854619979858399,0.7833675384521485
0.5854619979858399,0.7833675384521485
0.5879384994506835,0.7863069534301758
0.5879384994506835,0.7863069534301758
0.5873680114746094,0.7867372512817382
0.5873680114746094,0.7867372512817382
0.5866333007812500,0.7852827072143554
0.5866333007812500,0.7852827072143554
0.5888580322265625,0.7876155853271484
0.5888580322265625,0.7876155853271484
0.5872026443481445,0.7885202407836914
0.5872026443481445,0.7885202407836914
0.5894067764282226,0.7871177673339843
0.5894067764282226,0.7871177673339843
0.5885438919067383,0.7888126373291016
0.5885438919067383,0.7888126373291016
0.5876283645629883,0.7864969253540038
0.5876283645629883,0.7864969253540038
0.5895944595336914,0.7909664154052735
0.5895944595336914,0.7909664154052735
0.5876655578613281,0.7875812530517577
0.5876655578613281,0.7875812530517577
0.5894697189331054,0.7877986907958984
0.5894697189331054,0.7877986907958984
0.5886983871459961,0.7890947341918945
0.5886983871459961,0.7890947341918945
0.5877370834350586,0.7890890121459960
0.5877370834350586,0.7890890121459960
0.5898239135742187,0.7897361755371094
0.5898239135742187,0.7897361755371094
0.5877531051635742,0.7882078170776367
0.5877531051635742,0.7882078170776367
0.5899520874023437,0.7880395889282227
0.5899520874023437,0.7880395889282227
0.5890771865844726,0.7919002532958984
0.5890771865844726,0.7919002532958984
0.5882658004760742,0.7885437011718750
0.5882658004760742,0.7885437011718750
0.5901014328002929,0.7909933090209961
0.5901014328002929,0.7909933090209961
0.5882480621337890,0.7891668319702149
0.5882480621337890,0.7891668319702149
0.5901672363281250,0.7907976150512696
0.5901672363281250,0.7907976150512696
0.5887172698974609,0.7889991760253906
0.5887172698974609,0.7889991760253906
0.5864261627197266,0.7834510803222656
0.5864261627197266,0.7834510803222656
0.5852142333984375,0.7777530670166015
0.5852142333984375,0.7777530670166015
0.5782213211059570,0.7673469543457031
0.5782213211059570,0.7673469543457031
0.5734937667846679,0.7521165847778321
0.5734937667846679,0.7521165847778321
0.5653553009033203,0.7406124114990235
0.5653553009033203,0.7406124114990235
0.5586702346801757,0.7284759521484375
0.5586702346801757,0.7284759521484375
0.5565628051757813,0.7252944946289063
0.5565628051757813,0.7252944946289063
0.5509849548339844,0.7168830871582031
0.5509849548339844,0.7168830871582031
0.5507217407226562,0.7132484436035156
0.5507217407226562,0.7132484436035156
0.5482927322387695,0.7118196487426758
0.5482927322387695,0.7118196487426758
0.5463867187500000,0.7109928131103516
0.5463867187500000,0.7109928131103516
0.5484289169311524,0.7118751525878906
0.5484289169311524,0.7118751525878906
0.5466670989990234,0.7116857528686523
0.5466670989990234,0.7116857528686523
0.5500276565551757,0.7137599945068359
0.5500276565551757,0.7137599945068359
0.5509494781494141,0.7203804016113281
0.5509494781494141,0.7203804016113281
0.5524543762207031,0.7218400955200195
0.5524543762207031,0.7218400955200195
0.5576740264892578,0.7303396224975586
0.5576740264892578,0.7303396224975586
0.5593305587768554,0.7353881835937500
0.5593305587768554,0.7353881835937500
0.5652591705322265,0.7449714660644531
0.5652591705322265,0.7449714660644531
0.5677591323852539,0.7509355545043945
0.5677591323852539,0.7509355545043945
0.5692005157470703,0.7538343429565429
0.5692005157470703,0.7538343429565429
0.5733707427978515,0.7596279144287109
0.5733707427978515,0.7596279144287109
0.5725759506225586,0.7626079559326172
0.5725759506225586,0.7626079559326172
0.5758375167846680,0.7631589889526367
0.5758375167846680,0.7631589889526367
0.5758930206298828,0.7661247253417969
0.5758930206298828,0.7661247253417969
0.5755056381225586,0.7650632858276367
0.5755056381225586,0.7650632858276367
0.5784027099609375,0.7708871841430663
0.5784582138061524,0.7708871841430663
0.5768268585205077,0.7686470031738281
0.5768268585205077,0.7686470031738281
0.5793502807617187,0.7699384689331055
0.5793502807617187,0.7699384689331055
0.5790744781494140,0.7718055725097656
0.5790744781494140,0.7718055725097656
0.5784702301025391,0.7725236892700195
0.5784702301025391,0.7725236892700195
0.5809146881103515,0.7736921310424805
0.5809146881103515,0.7736921310424805
0.5789405822753906,0.7725688934326171
0.5789405822753906,0.7725688934326171
0.5815052032470703,0.7727577209472656
0.5792238235473632,0.7727577209472656
0.5809633255004882,0.7767087936401367
0.5809633255004882,0.7767087936401367
0.5803230285644531,0.7737321853637695
0.5803230285644531,0.7737321853637695
0.5824865341186524,0.7763093948364258
0.5824865341186524,0.7763093948364258
0.5807098388671875,0.7747095108032226
0.5807098388671875,0.7747095108032226
0.5830484390258789,0.7771493911743164
0.5830484390258789,0.7771493911743164
0.5819000244140625,0.7766206741333007
0.5819000244140625,0.7766206741333007
0.5809129714965821,0.7749647140502930
0.5809129714965821,0.7749647140502930
0.5826656341552734,0.7766098022460938
0.5826656341552734,0.7766098022460938
0.5807149887084960,0.7774240493774414
0.5807149887084960,0.7774240493774414
0.5832212448120117,0.7768312454223633
0.5832212448120117,0.7768312454223633
0.5822238922119141,0.7782640457153320
0.5822238922119141,0.7782640457153320
0.5817329406738281,0.7770681381225586
0.5817329406738281,0.7770681381225586
0.5839256286621094,0.7814975738525390
0.5839256286621094,0.7814975738525390
0.5822788238525390,0.7788070678710938
0.5822788238525390,0.7788070678710938
0.5846448898315429,0.7796396255493164
0.5846448898315429,0.7796396255493164
0.5837579727172851,0.7805997848510742
0.5837579727172851,0.7805997848510742
0.5832046508789063,0.7818632125854492
0.5832046508789063,0.7818632125854492
0.5852062225341796,0.7822740554809570
0.5852062225341796,0.7822740554809570
0.5833631515502929,0.7806610107421875
0.5833631515502929,0.7806610107421875
0.5849075317382812,0.7794828414916992
0.5849075317382812,0.7794828414916992
0.5828601837158203,0.7787755966186524
0.5828601837158203,0.7787755966186524
0.5791637420654296,0.7692289352416992
0.5791637420654296,0.7692289352416992
0.5770162582397461,0.7626789093017577
0.5770162582397461,0.7626789093017577
0.5702888488769531,0.7507421493530273
0.5702888488769531,0.7507421493530273
0.5674598693847656,0.7442619323730468
0.5674598693847656,0.7442619323730468
0.5624959945678710,0.7363821029663086
0.5624959945678710,0.7363821029663086
0.5584253311157227,0.7295637130737305
0.5584253311157227,0.7295637130737305
0.5587051391601562,0.7282207489013671
0.5587051391601562,0.7282207489013671
0.5555637359619140,0.7267787933349609
0.5555637359619140,0.7267787933349609
0.5570577621459961,0.7245100021362304
0.5570577621459961,0.7245100021362304
0.5560014724731445,0.7257991790771484
0.5560014724731445,0.7257991790771484
0.5553651809692383,0.7248418807983398
0.5553651809692383,0.7248418807983398
0.5587125778198242,0.7318696975708008
0.5587125778198242,0.7318696975708008
0.5587972640991211,0.7328355789184570
0.5587972640991211,0.7328355789184570
0.5637302398681641,0.7394250869750977
0.5637302398681641,0.7394250869750977
0.5665529251098632,0.7472082138061523
0.5665529251098632,0.7472082138061523
0.5693687438964844,0.7546857833862305
0.5693687438964844,0.7546857833862305
0.5744934082031250,0.7608066558837890
0.5744934082031250,0.7608066558837890
0.5749649047851563,0.7638793945312500
0.5749649047851563,0.7638793945312500
0.5785966873168945,0.7668846130371093
0.5785966873168945,0.7668846130371093
0.5790739059448242,0.7724687576293945
0.5790739059448242,0.7724687576293945
0.5790201187133789,0.7711795806884766
0.5790201187133789,0.7711795806884766
0.5816059112548828,0.7746631622314453
0.5816059112548828,0.7746631622314453
0.5805101394653320,0.7741447448730469
0.5805101394653320,0.7741447448730469
0.5829786300659180,0.7776214599609375
0.5829786300659180,0.7776214599609375
0.5825288772583007,0.7777444839477539
0.5858236312866211,0.7777444839477539
0.5821260452270508,0.7772460937500000
0.5821260452270508,0.7772460937500000
0.5844268798828125,0.7793947219848633
0.5844268798828125,0.7793947219848633
0.5829294204711913,0.7808240890502930
0.5829294204711913,0.7808240890502930
0.5853349685668945,0.7803840637207031
0.5853349685668945,0.7803840637207031
0.5844835281372071,0.7819684982299805
0.5844835281372071,0.7819684982299805
0.5840641021728515,0.7810237884521484
0.5840641021728515,0.7810237884521484
0.5865583419799805,0.7856843948364257
0.5865583419799805,0.7856843948364257
0.5848091125488281,0.7832885742187500
0.5848091125488281,0.7832885742187500
0.5874326705932617,0.7845417022705078
0.5874326705932617,0.7845417022705078
0.5868249893188476,0.7858062744140625
0.5868249893188476,0.7858062744140625
0.5863019943237304,0.7871709823608398
0.5863019943237304,0.7871709823608398
0.5885358810424804,0.7881946563720703
0.5885358810424804,0.7881946563720703
0.5863803863525391,0.7868728637695312
0.5863803863525391,0.7868728637695312
0.5890010833740235,0.7876647949218750
0.5890010833740235,0.7876647949218750
0.5882761001586914,0.7909269332885742
0.5882761001586914,0.7909269332885742
0.5875156402587890,0.7880052566528321
0.5875156402587890,0.7880052566528321
0.5898902893066406,0.7903381347656250
0.5898902893066406,0.7903381347656250
0.5878927230834960,0.7883022308349609
0.5878927230834960,0.7883022308349609
0.5902793884277343,0.7913503646850586
0.5902793884277343,0.7913503646850586
0.5893918991088867,0.7906208038330078
0.5893918991088867,0.7906208038330078
0.5882234573364258,0.7891508102416992
0.5882234573364258,0.7891508102416992
0.5904338836669921,0.7911592483520508
0.5904338836669921,0.7911592483520508
0.5884901046752929,0.7915964126586914
0.5884901046752929,0.7915964126586914
0.5907531738281250,0.7905326843261719
0.5907531738281250,0.7905326843261719
0.5895858764648437,0.7914573669433593
0.5895858764648437,0.7914573669433593
0.5883882522583007,0.7891342163085937
0.5883882522583007,0.7891342163085937
0.5904218673706054,0.7932014465332031
0.5904218673706054,0.7932014465332031
0.5900213241577148,0.7902013778686523
0.5900213241577148,0.7902013778686523
0.5887012481689453,0.7837961196899413
0.5887012481689453,0.7837961196899413
0.5893856048583984,0.7874616622924805
0.5893856048583984,0.7874616622924805
0.5861326217651367,0.7854761123657227
0.5861326217651367,0.7854761123657227
0.5864542007446288,0.7823284149169921
0.5864542007446288,0.7823284149169921
0.5856405258178711,0.7774017333984374
0.5856405258178711,0.7774017333984374
0.5834312438964844,0.7763368606567382
0.5834312438964844,0.7763368606567382
0.5838535308837890,0.7756736755371093
0.5838535308837890,0.7756736755371093
0.5803985595703125,0.7733093261718750
0.5803985595703125,0.7733093261718750
0.5809324264526367,0.7685743331909179
0.5809324264526367,0.7685743331909179
0.5813484191894531,0.7728738784790039
0.5813484191894531,0.7728738784790039
0.5809249877929688,0.7724739074707031
0.5809249877929688,0.7724739074707031
0.5831834793090820,0.7751787185668945
0.5831834793090820,0.7751787185668945
0.5815103530883788,0.7735982894897461
0.5815103530883788,0.7735982894897461
0.5839273452758789,0.7786571502685546
0.5839273452758789,0.7786571502685546
0.5855712890625000,0.7818042755126953
0.5855712890625000,0.7818042755126953
0.5856599807739258,0.7815982818603515
0.5856599807739258,0.7815982818603515
0.5876895904541015,0.7810054779052734
0.5876895904541015,0.7810054779052734
0.5856857299804688,0.7848564147949219
0.5856857299804688,0.7848564147949219
0.5874023437500000,0.7853816986083985
0.5874023437500000,0.7853816986083985
0.5879041671752929,0.7860483169555664
0.5879041671752929,0.7860483169555664
0.5868335723876953,0.7811113357543945
0.5868335723876953,0.7811113357543945
0.5884872436523437,0.7863807678222656
0.5884872436523437,0.7863807678222656
0.5863048553466796,0.7864917755126953
0.5863048553466796,0.7864917755126953
0.5879024505615235,0.7864454269409179
0.5879024505615235,0.7864454269409179
0.5885633468627930,0.7847179412841797
0.5885633468627930,0.7847179412841797
0.5881444931030273,0.7869329452514648
0.5881444931030273,0.7869329452514648
0.5899011611938476,0.7897001266479492
0.5899011611938476,0.7897001266479492
0.5879196166992188,0.7892160415649414
0.5879196166992188,0.7892160415649414
0.5892648696899414,0.7857725143432617
0.5892648696899414,0.7857725143432617
0.5897603988647461,0.7901596069335938
0.5897603988647461,0.7901596069335938
0.5890125274658203,0.7888177871704102
0.5890125274658203,0.7888177871704102
0.5906375885009766,0.7907821655273437
0.5906375885009766,0.7907821655273437
0.5882978439331055,0.7873254776000976
0.5882978439331055,0.7873254776000976
0.5898233413696289,0.7907106399536132
0.5898233413696289,0.7907106399536132
0.5903257369995117,0.7921096801757812
0.5903257369995117,0.7921096801757812
0.5897340774536133,0.7899719238281250
0.5897340774536133,0.7899719238281250
0.5908349990844727,0.7884721755981445
0.5908349990844727,0.7884721755981445
0.5887521743774414,0.7916404724121093
0.5887521743774414,0.7916404724121093
0.5902084350585938,0.7914184570312500
0.5902084350585938,0.7914184570312500
0.5907508850097656,0.7922899246215820
0.5907508850097656,0.7922899246215820
0.5896963119506836,0.7869953155517578
0.5896963119506836,0.7869953155517578
0.5912755966186524,0.7921056747436523
0.5912755966186524,0.7921056747436523
0.5888957977294922,0.7922687530517578
0.5888957977294922,0.7922687530517578
0.5903926849365234,0.7912908554077148
0.5903926849365234,0.7912908554077148
0.5905786514282226,0.7888710021972656
0.5920297622680664,0.7888710021972656
0.5898685455322266,0.7905138015747070
0.5898685455322266,0.7905138015747070
0.5912584304809571,0.7922533035278320
0.5912584304809571,0.7922533035278320
0.5889375686645507,0.7914058685302734
0.5889375686645507,0.7914058685302734
0.5897346496582031,0.7867933273315429
0.5897346496582031,0.7867933273315429
0.5894422531127930,0.7895215988159180
0.5894422531127930,0.7895215988159180
0.5877536773681641,0.7855585098266601
0.5877536773681641,0.7855585098266601
0.5869892120361327,0.7812297821044921
0.5869892120361327,0.7812297821044921
0.5810371398925781,0.7700443267822266
0.5815801620483398,0.7700443267822266
0.5779689788818360,0.7636533737182617
0.5779689788818360,0.7636533737182617
0.5735017776489257,0.7552053451538085
0.5735017776489257,0.7552053451538085
0.5689126968383789,0.7458738327026367
0.5689126968383789,0.7458738327026367
0.5670061111450195,0.7396202087402344
0.5670061111450195,0.7396202087402344
0.5634607315063477,0.7397409439086914
0.5634607315063477,0.7397409439086914
0.5644311904907227,0.7394628524780273
0.5644311904907227,0.7394628524780273
0.5648694992065429,0.7401632308959961
0.5648694992065429,0.7401632308959961
0.5653341293334960,0.7377840042114258
0.5653341293334960,0.7377840042114258
0.5679405212402343,0.7456586837768554
0.5679405212402343,0.7456586837768554
0.5681528091430664,0.7497098922729492
0.5681528091430664,0.7497098922729492
0.5723711013793945,0.7549890518188477
0.5723711013793945,0.7549890518188477
0.5755136489868163,0.7585905075073242
0.5755136489868163,0.7585905075073242
0.5779586791992187,0.7658855438232421
0.5779586791992187,0.7658855438232421
0.5813278198242188,0.7721815109252930
0.5813278198242188,0.7721815109252930
0.5809432983398437,0.7741247177124023
0.5809432983398437,0.7741247177124023
0.5832000732421875,0.7728950500488281
0.5832000732421875,0.7728950500488281
0.5841796874999999,0.7782331466674804
0.5841796874999999,0.7782331466674804
0.5844972610473632,0.7782131195068359
0.5844972610473632,0.7782131195068359
0.5863185882568359,0.7810741424560547
0.5863185882568359,0.7810741424560547
0.5845596313476562,0.7785203933715820
0.5845596313476562,0.7785203933715820
0.5864324569702148,0.7825647354125976
0.5839061737060547,0.7825647354125976
0.5872266769409179,0.7845708847045898
0.5872266769409179,0.7845708847045898
0.5873107910156250,0.7835529327392577
0.5873107910156250,0.7835529327392577
0.5884660720825196,0.7829916000366210
0.5884660720825196,0.7829916000366210
0.5870407104492187,0.7865015029907226
0.5870407104492187,0.7865015029907226
0.5888254165649414,0.7870262145996093
0.5888254165649414,0.7870262145996093
0.5894399642944336,0.7883863449096680
0.5894399642944336,0.7883863449096680
0.5890222549438476,0.7846744537353515
0.5890222549438476,0.7846744537353515
0.5905769348144531,0.7900520324707031
0.5905769348144531,0.7900520324707031
0.5890222549438476,0.7909790039062500
0.5890222549438476,0.7909790039062500
0.5908269882202148,0.7907844543457031
0.5908269882202148,0.7907844543457031
0.5910850524902344,0.7890369415283203
0.5910850524902344,0.7890369415283203
0.5909900665283203,0.7912290573120117
0.5909900665283203,0.7912290573120117
0.5921453475952149,0.7932592391967773
0.5921453475952149,0.7932592391967773
0.5905179977416992,0.7931865692138672
0.5905179977416992,0.7931865692138672
0.5918289184570312,0.7904045104980468
0.5918289184570312,0.7904045104980468
0.5922380447387695,0.7945146560668945
0.5922380447387695,0.7945146560668945
0.5921419143676757,0.7941822052001953
0.5921419143676757,0.7941822052001953
0.5934047698974609,0.7954484939575195
0.5934047698974609,0.7954484939575195
0.5914146423339843,0.7923391342163085
0.5914146423339843,0.7923391342163085
0.5927330017089844,0.7952934265136719
0.5927330017089844,0.7952934265136719
0.5931810379028321,0.7965476989746093
0.5931810379028321,0.7965476989746093
0.5929475784301758,0.7953964233398437
0.5929475784301758,0.7953964233398437
0.5938859939575195,0.7943727493286132
0.5938859939575195,0.7943727493286132
0.5918638229370117,0.7967662811279297
0.5918638229370117,0.7967662811279297
0.5933103561401367,0.7965133666992187
0.5933103561401367,0.7965133666992187
0.5934076309204102,0.7964670181274414
0.5934076309204102,0.7964670181274414
0.5924875259399414,0.7912977218627929
0.5924875259399414,0.7912977218627929
0.5932806015014648,0.7945707321166992
0.5932806015014648,0.7945707321166992
0.5906330108642578,0.7927413940429687
0.5906330108642578,0.7927413940429687
0.5916189193725586,0.7906929016113281
0.5916189193725586,0.7906929016113281
0.5908275604248047,0.7870697021484375
0.5908275604248047,0.7870697021484375
0.5896888732910156,0.7866994857788085
0.5896888732910156,0.7866994857788085
0.5899332046508788,0.7870759963989258
0.5899332046508788,0.7870759963989258
0.5867534637451172,0.7834911346435547
0.5867534637451172,0.7834911346435547
0.5862281799316406,0.7758338928222656
0.5824436187744141,0.7758338928222656
0.5840652465820312,0.7754035949707031
0.5840652465820312,0.7754035949707031
0.5808969497680664,0.7682092666625976
0.5808969497680664,0.7682092666625976
0.5788599014282226,0.7640350341796874
0.5788599014282226,0.7640350341796874
0.5742439270019531,0.7556636810302734
0.5742439270019531,0.7556636810302734
0.5744510650634765,0.7573608398437500
0.5744510650634765,0.7573608398437500
0.5747440338134765,0.7596822738647461
0.5747440338134765,0.7596822738647461
0.5759571075439452,0.7605514526367188
0.5759571075439452,0.7605514526367188
0.5789211273193359,0.7633661270141602
0.5789211273193359,0.7633661270141602
0.5791351318359375,0.7709495544433593
0.5791351318359375,0.7709495544433593
0.5828281402587890,0.7749818801879883
0.5828281402587890,0.7749818801879883
0.5846735000610351,0.7789192199707031
0.5846735000610351,0.7789192199707031
0.5852937698364258,0.7763814926147461
0.5852937698364258,0.7763814926147461
0.5873376846313476,0.7833417892456055
0.5873376846313476,0.7833417892456055
0.5858699798583984,0.7845634460449219
0.5858699798583984,0.7845634460449219
0.5882102966308593,0.7850687026977539
0.5850494384765624,0.7850687026977539
0.5887063980102539,0.7841617584228515
0.5887063980102539,0.7841617584228515
0.5887630462646484,0.7863801956176758
0.5887630462646484,0.7863801956176758
0.5901649475097656,0.7888961791992187
0.5901649475097656,0.7888961791992187
0.5884311676025390,0.7888481140136718
0.5884311676025390,0.7888481140136718
0.5900751113891601,0.7868528366088867
0.5900751113891601,0.7868528366088867
0.5905403137207031,0.7910745620727538
0.5905403137207031,0.7910745620727538
0.5897769927978516,0.7898317337036133
0.5897769927978516,0.7898317337036133
0.5919702529907226,0.7917932510375977
0.5919702529907226,0.7917932510375977
0.5896436691284179,0.7901996612548828
0.5896436691284179,0.7901996612548828
0.5911760330200195,0.7916702270507813
0.5911760330200195,0.7916702270507813
0.5920154571533203,0.7938383102416992
0.5920154571533203,0.7938383102416992
0.5909351348876953,0.7921508789062500
0.5909351348876953,0.7921508789062500
0.5929767608642578,0.7922773361206055
0.5929767608642578,0.7922773361206055
0.5907165527343750,0.7945261001586914
0.5907165527343750,0.7945261001586914
0.5923742294311524,0.7943750381469726
0.5923742294311524,0.7943750381469726
0.5929824829101562,0.7958341598510742
0.5929824829101562,0.7958341598510742
0.5927352905273438,0.7926572799682617
0.5927352905273438,0.7926572799682617
0.5940181732177734,0.7970901489257812
0.5940181732177734,0.7970901489257812
0.5921602249145508,0.7968887329101563
0.5921602249145508,0.7968887329101563
0.5939958572387695,0.7966712951660156
0.5939958572387695,0.7966712951660156
0.5940176010131836,0.7963634490966797
0.5940176010131836,0.7963634490966797
0.5934379577636718,0.7968675613403320
0.5934379577636718,0.7968675613403320
0.5949302673339844,0.7992027282714843
0.5949302673339844,0.7992027282714843
0.5928503036499023,0.7984525680541992
0.5928503036499023,0.7984525680541992
0.5923284530639649,0.7972108840942382
0.5943346023559570,0.7972108840942382
0.5945789337158203,0.7988164901733398
0.5925785064697265,0.7988164901733398
0.5929195404052734,0.7975610733032227
0.5929195404052734,0.7975610733032227
0.5916423797607422,0.7949415206909179
0.5916423797607422,0.7949415206909179
0.5925132751464843,0.7939544677734375
0.5925132751464843,0.7939544677734375
0.5883876800537109,0.7882673263549804
0.5883876800537109,0.7882673263549804
0.5874011993408202,0.7813694000244140
0.5874011993408202,0.7813694000244140
0.5820367813110351,0.7732109069824219
0.5820367813110351,0.7732109069824219
0.5765876770019531,0.7623796463012695
0.5765876770019531,0.7623796463012695
0.5741735458374023,0.7569723129272461
0.5741735458374023,0.7569723129272461
0.5679834365844726,0.7474359512329102
0.5679834365844726,0.7474359512329102
0.5674638748168945,0.7435918807983398
0.5674638748168945,0.7435918807983398
0.5644884109497070,0.7410427093505859
0.5644884109497070,0.7410427093505859
0.5626510620117188,0.7388614654541016
0.5626510620117188,0.7388614654541016
0.5640895843505859,0.7384117126464843
0.5640895843505859,0.7384117126464843
0.5612697601318359,0.7362854003906250
0.5612697601318359,0.7362854003906250
0.5639579772949218,0.7377565383911132
0.5639579772949218,0.7377565383911132
0.5636844635009766,0.7423765182495117
0.5636844635009766,0.7423765182495117
0.5648237228393554,0.7435249328613281
0.5648237228393554,0.7435249328613281
0.5693744659423828,0.7506917953491211
0.5693744659423828,0.7506917953491211
0.5702339172363281,0.7546657562255860
0.5702339172363281,0.7546657562255860
0.5755353927612304,0.7625061035156250
0.5755353927612304,0.7625061035156250
0.5765693664550781,0.7664640426635742
0.5765693664550781,0.7664640426635742
0.5778293609619141,0.7682916641235351
0.5778293609619141,0.7682916641235351
0.5810646057128906,0.7721443176269531
0.5810646057128906,0.7721443176269531
0.5799379348754883,0.7743078231811523
0.5799379348754883,0.7743078231811523
0.5830490112304687,0.7757406234741211
0.5830490112304687,0.7757406234741211
0.5823612213134766,0.7776935577392577
0.5823612213134766,0.7776935577392577
0.5825397491455078,0.7779161453247070
0.5825397491455078,0.7779161453247070
0.5850763320922852,0.7821029663085938
0.5850763320922852,0.7821029663085938
0.5835634231567383,0.7799612045288086
0.5835634231567383,0.7799612045288086
0.5861915588378906,0.7818122863769531
0.5861915588378906,0.7818122863769531
0.5852302551269531,0.7826105117797851
0.5852302551269531,0.7826105117797851
0.5851203918457031,0.7841028213500977
0.5851203918457031,0.7841028213500977
0.5871946334838867,0.7848140716552734
0.5871946334838867,0.7848140716552734
0.5852577209472656,0.7836221694946289
0.5852577209472656,0.7836221694946289
0.5876346588134765,0.7849897384643555
0.5876346588134765,0.7849897384643555
0.5867940902709960,0.7875160217285156
0.5867940902709960,0.7875160217285156
0.5865045547485351,0.7853610992431640
0.5865045547485351,0.7853610992431640
0.5886085510253906,0.7874736785888672
0.5886085510253906,0.7874736785888672
0.5865434646606446,0.7854400634765625
0.5865434646606446,0.7854400634765625
0.5889913558959960,0.7889259338378906
0.5889913558959960,0.7889259338378906
0.5880380630493164,0.7886386871337890
0.5880380630493164,0.7886386871337890
0.5874200820922851,0.7875366210937500
0.5874200820922851,0.7875366210937500
0.5903446197509765,0.7900697708129882
0.5903446197509765,0.7900697708129882
0.5877891540527344,0.7903884887695313
0.5877891540527344,0.7903884887695313
0.5906873703002929,0.7901453018188477
0.5906873703002929,0.7901453018188477
0.5897838592529296,0.7917291641235351
0.5897838592529296,0.7917291641235351
0.5890777587890624,0.7897516250610351
0.5890777587890624,0.7897516250610351
0.5915113449096679,0.7942548751831054
0.5915113449096679,0.7942548751831054
0.5895017623901367,0.7913417816162109
0.5895017623901367,0.7913417816162109
0.5917156219482421,0.7927608489990234
0.5917156219482421,0.7927608489990234
0.5905191421508789,0.7932872772216797
0.5905191421508789,0.7932872772216797
0.5902713775634766,0.7936735153198242
0.5902713775634766,0.7936735153198242
0.5921951293945312,0.7938371658325195
0.5921951293945312,0.7938371658325195
0.5895898818969726,0.7911306381225586
0.5895898818969726,0.7911306381225586
0.5913768768310547,0.7907793045043945
0.5913768768310547,0.7907793045043945
0.5897523880004882,0.7922332763671874
0.5897523880004882,0.7922332763671874
0.5886257171630859,0.7885883331298827
0.5886257171630859,0.7885883331298827
0.5897569656372070,0.7884830474853516
0.5897569656372070,0.7884830474853516
0.5862899780273437,0.7837205886840820
0.5862899780273437,0.7837205886840820
0.5872186660766602,0.7831501007080078
0.5872186660766602,0.7831501007080078
0.5842243194580078,0.7795068740844726
0.5842243194580078,0.7795068740844726
0.5825895309448242,0.7758710861206054
0.5825895309448242,0.7758710861206054
0.5837631225585938,0.7757783889770508
0.5837591171264648,0.7757783889770508
0.5812156677246093,0.7758253097534179
0.5834999084472656,0.7758253097534179
0.5839530944824218,0.7764221191406250
0.5830970764160156,0.7764221191406250
0.5833694458007812,0.7791481018066406
0.5833694458007812,0.7791481018066406
0.5840789794921875,0.7799938201904296
0.5828355789184571,0.7799938201904296
0.5874481201171875,0.7859081268310547
0.5874481201171875,0.7859081268310547
0.5861457824707031,0.7847614288330078
0.5861457824707031,0.7847614288330078
0.5896087646484375,0.7876390457153321
0.5896087646484375,0.7876390457153321
0.5888442993164062,0.7892864227294921
0.5888442993164062,0.7892864227294921
0.5891538619995117,0.7906894683837891
0.5891538619995117,0.7906894683837891
0.5914924621582031,0.7920862197875976
0.5924486160278321,0.7920862197875976
0.5892562866210938,0.7908571243286132
0.5892562866210938,0.7908571243286132
0.5921224594116211,0.7924633026123047
0.5921224594116211,0.7924633026123047
0.5911016464233398,0.7951086044311523
0.5911016464233398,0.7951086044311523
0.5908870697021484,0.7931985855102539
0.5908870697021484,0.7931985855102539
0.5934093475341796,0.7954410552978516
0.5934093475341796,0.7954410552978516
0.5928056716918945,0.7932683944702148
0.5928056716918945,0.7932683944702148
0.5934803009033203,0.7967336654663085
0.5934803009033203,0.7967336654663085
0.5921442031860351,0.7964406967163086
0.5921442031860351,0.7964406967163086
0.5919359207153320,0.7955760955810547
0.5919359207153320,0.7955760955810547
0.5939964294433594,0.7975198745727539
0.5939964294433594,0.7975198745727539
0.5918272018432617,0.7969505310058593
0.5918272018432617,0.7969505310058593
0.5942893981933594,0.7972978591918946
0.5942893981933594,0.7972978591918946
0.5930746078491210,0.7981258392333984
0.5930746078491210,0.7981258392333984
0.5928216934204101,0.7967565536499023
0.5928216934204101,0.7967565536499023
0.5949382781982422,0.8003311157226562
0.5949382781982422,0.8003311157226562
0.5928600311279296,0.7975519180297851
0.5928600311279296,0.7975519180297851
0.5951448440551758,0.7989246368408203
0.5933046340942383,0.7989246368408203
0.5938316345214844,0.7996747970581054
0.5964946746826172,0.7996747970581054
0.5937412261962890,0.7998321533203124
0.5937412261962890,0.7998321533203124
0.5957107543945312,0.8007951736450195
0.5957107543945312,0.8007951736450195
0.5935392379760742,0.7989377975463867
0.5935392379760742,0.7989377975463867
0.5958726882934570,0.7997394561767578
0.5958726882934570,0.7997394561767578
0.5945571899414063,0.8022485733032226
0.5945571899414063,0.8022485733032226
0.5942058563232422,0.8000638961791992
0.5942058563232422,0.8000638961791992
0.5960786819458007,0.8017913818359375
0.5960786819458007,0.8017913818359375
0.5939580917358398,0.7998985290527344
0.5939580917358398,0.7998985290527344
0.5963464736938476,0.8023681640625000
0.5963464736938476,0.8023681640625000
0.5948598861694335,0.8019796371459961
0.5948598861694335,0.8019796371459961
0.5945932388305664,0.8006195068359375
0.5945932388305664,0.8006195068359375
0.5961811065673828,0.8014537811279296
0.5961811065673828,0.8014537811279296
0.5939907073974610,0.8006052017211914
0.5939907073974610,0.8006052017211914
0.5959098815917968,0.8000455856323242
0.5959098815917968,0.8000455856323242
0.5939540863037109,0.7993852615356445
0.5939540863037109,0.7993852615356445
0.5929653167724609,0.7960121154785156
0.5929653167724609,0.7960121154785156
0.5932903289794922,0.7956224441528320
0.5932903289794922,0.7956224441528320
0.5893014907836914,0.7887977600097656
0.5893014907836914,0.7887977600097656
0.5896551132202148,0.7863121032714844
0.5896551132202148,0.7863121032714844
0.5862087249755860,0.7827009201049805
0.5862087249755860,0.7827009201049805
0.5838426589965821,0.7784780502319336
0.5838426589965821,0.7784780502319336
0.5831125259399413,0.7747306823730469
0.5831125259399413,0.7747306823730469
0.5787923812866210,0.7689857482910156
0.5787923812866210,0.7689857482910156
0.5794303894042968,0.7674562454223632
0.5794303894042968,0.7674562454223632
0.5771776199340820,0.7678070068359375
0.5771776199340820,0.7678070068359375
0.5768337249755859,0.7658798217773437
0.5768337249755859,0.7658798217773437
0.5790767669677734,0.7687803268432617
0.5790767669677734,0.7687803268432617
0.5780050277709960,0.7691350936889648
0.5780050277709960,0.7691350936889648
0.5820814132690429,0.7751266479492187
0.5820814132690429,0.7751266479492187
0.5823034286499024,0.7779550552368164
0.5823034286499024,0.7779550552368164
0.5833688735961914,0.7795778274536133
0.5833688735961914,0.7795778274536133
0.5863620758056640,0.7831855773925781
0.5863620758056640,0.7831855773925781
0.5851415634155274,0.7840970993041992
0.5851415634155274,0.7840970993041992
0.5881696701049804,0.7854932785034180
0.5881696701049804,0.7854932785034180
0.5874361038208008,0.7873386383056641
0.5874361038208008,0.7873386383056641
0.5877296447753906,0.7866456985473632
0.5877296447753906,0.7866456985473632
0.5898954391479492,0.7906156539916992
0.5898954391479492,0.7906156539916992
0.5880626678466797,0.7881059646606445
0.5887430191040038,0.7897922515869140
0.5891120910644531,0.7907409667968750
0.5891120910644531,0.7907409667968750
0.5893466949462890,0.7913320541381835
0.5893466949462890,0.7913320541381835
0.5911296844482422,0.7920473098754882
0.5911296844482422,0.7920473098754882
0.5893100738525391,0.7902517318725586
0.5893100738525391,0.7902517318725586
0.5914415359497071,0.7910356521606445
0.5914415359497071,0.7910356521606445
0.5899772644042969,0.7933433532714843
0.5899772644042969,0.7933433532714843
0.5896991729736328,0.7908788681030273
0.5896991729736328,0.7908788681030273
0.5913717269897460,0.7926286697387696
0.5913717269897460,0.7926286697387696
0.5893535614013672,0.7907272338867187
0.5893535614013672,0.7907272338867187
0.5919416427612304,0.7939447402954102
0.5919416427612304,0.7939447402954102
0.5905294418334961,0.7934560775756836
0.5905294418334961,0.7934560775756836
0.5905385971069336,0.7924478530883788
0.5905385971069336,0.7924478530883788
0.5922952651977539,0.7937879562377930
0.5922952651977539,0.7937879562377930
0.5902828216552735,0.7941444396972656
0.5902828216552735,0.7941444396972656
0.5927827835083007,0.7942680358886719
0.5927827835083007,0.7942680358886719
0.5913030624389648,0.7952648162841797
0.5913030624389648,0.7952648162841797
0.5915285110473633,0.7941764831542969
0.5915285110473633,0.7941764831542969
0.5933481216430664,0.7978918075561523
0.5933481216430664,0.7978918075561523
0.5915182113647460,0.7945409774780273
0.5940382003784179,0.7945409774780273
0.5920755386352539,0.7959852218627930
0.5926265716552734,0.7959852218627930
0.5924612045288086,0.7963308334350586
0.5924612045288086,0.7963308334350586
0.5925750732421875,0.7977865219116210
0.5925750732421875,0.7977865219116210
0.5943700790405273,0.7978483200073242
0.5943700790405273,0.7978483200073242
0.5918981552124023,0.7954799652099609
0.5918981552124023,0.7954799652099609
0.5940021514892578,0.7958919525146484
0.5940021514892578,0.7958919525146484
0.5919576644897461,0.7969905853271484
0.5919576644897461,0.7969905853271484
0.5905603408813477,0.7907981872558594
0.5905603408813477,0.7907981872558594
0.5892322540283202,0.7854497909545898
0.5892322540283202,0.7854497909545898
0.5827577590942382,0.7737115859985352
0.5827577590942382,0.7737115859985352
0.5797571182250977,0.7667095184326171
0.5797571182250977,0.7667095184326171
0.5731447219848632,0.7562479019165039
0.5731447219848632,0.7562479019165039
0.5688045501708984,0.7478742599487305
0.5688045501708984,0.7478742599487305
0.5677453994750976,0.7446413040161133
0.5677453994750976,0.7446413040161133
0.5644163131713867,0.7420646667480468
0.5644163131713867,0.7420646667480468
0.5662708282470703,0.7414930343627929
0.5662708282470703,0.7414930343627929
0.5651041030883789,0.7433401107788086
0.5651041030883789,0.7433401107788086
0.5661638259887695,0.7439981460571289
0.5661638259887695,0.7439981460571289
0.5697217941284179,0.7519100189208984
0.5697217941284179,0.7519100189208984
0.5702402114868164,0.7535367965698242
0.5702402114868164,0.7535367965698242
0.5754180908203125,0.7609170913696289
0.5754180908203125,0.7609170913696289
0.5771083831787109,0.7673652648925781
0.5809347152709960,0.7673652648925781
0.5799465179443359,0.7731296539306640
0.5799465179443359,0.7731296539306640
0.5834959030151367,0.7769233703613281
0.5834959030151367,0.7769233703613281
0.5828172683715820,0.7775733947753906
0.5828172683715820,0.7775733947753906
0.5859947204589844,0.7801563262939453
0.5859947204589844,0.7801563262939453
0.5853452682495117,0.7847660064697265
0.5853452682495117,0.7847660064697265
0.5861160278320312,0.7832782745361327
0.5861160278320312,0.7832782745361327
0.5881547927856445,0.7862445831298828
0.5881547927856445,0.7862445831298828
0.5866584777832031,0.7850257873535156
0.5866584777832031,0.7850257873535156
0.5895017623901367,0.7891038894653321
0.5879207611083984,0.7891038894653321
0.5882915496826172,0.7889934539794922
0.5882915496826172,0.7889934539794922
0.5887968063354492,0.7884407043457031
0.5887968063354492,0.7884407043457031
0.5905981063842773,0.7901023864746094
0.5905981063842773,0.7901023864746094
0.5889043807983398,0.7910545349121093
0.5889043807983398,0.7910545349121093
0.5914484024047851,0.7909784317016602
0.5914484024047851,0.7909784317016602
0.5900018692016601,0.7922321319580078
0.5900018692016601,0.7922321319580078
0.5903549194335938,0.7912656784057617
0.5903549194335938,0.7912656784057617
0.5921745300292969,0.7952814102172852
0.5921745300292969,0.7952814102172852
0.5902822494506835,0.7919162750244141
0.5902822494506835,0.7919162750244141
0.5926454544067382,0.7933490753173827
0.5926454544067382,0.7933490753173827
0.5912366867065429,0.7938531875610352
0.5912366867065429,0.7938531875610352
0.5916532516479492,0.7956190109252930
0.5916532516479492,0.7956190109252930
0.5933973312377929,0.7961151123046875
0.5933973312377929,0.7961151123046875
0.5914352416992187,0.7945850372314452
0.5914352416992187,0.7945850372314452
0.5939174652099609,0.7962146759033203
0.5922695159912109,0.7962146759033203
0.5926443099975586,0.7990550994873047
0.5926443099975586,0.7990550994873047
0.5930036544799805,0.7969757080078125
0.5930036544799805,0.7969757080078125
0.5945262908935547,0.7987855911254883
0.5945262908935547,0.7987855911254883
0.5928983688354492,0.7963165283203125
0.5928983688354492,0.7963165283203125
0.5953073501586914,0.8003631591796875
0.5953073501586914,0.8003631591796875
0.5937080383300781,0.7994905471801758
0.5937080383300781,0.7994905471801758
0.5936800003051758,0.7984697341918945
0.5936800003051758,0.7984697341918945
0.5950841903686523,0.7993715286254882
0.5950841903686523,0.7993715286254882
0.5927524566650391,0.7978574752807617
0.5927524566650391,0.7978574752807617
0.5939048767089844,0.7947463989257812
0.5939048767089844,0.7947463989257812
0.5895767211914062,0.7888303756713867
0.5895767211914062,0.7888303756713867
0.5847295761108399,0.7765193939208984
0.5847295761108399,0.7765193939208984
