REDsignal,IRsignal
0.3374227523803711,0.2946619033813476
0.3374227523803711,0.2946619033813476
0.3311748504638672,0.2953536987304687
0.3311748504638672,0.2953536987304687
0.3318231582641601,0.2878646850585938
0.3318231582641601,0.2878646850585938
0.3329835891723633,0.2893243789672851
0.3329835891723633,0.2893243789672851
0.3210754394531250,0.2723974227905273
0.3210754394531250,0.2723974227905273
0.3232870101928711,0.2678798675537109
0.3232870101928711,0.2678798675537109
0.3120992660522461,0.2612617492675781
0.3120992660522461,0.2612617492675781
0.3103162765502930,0.2505563735961914
0.3103162765502930,0.2505563735961914
0.3116741180419922,0.2543323516845703
0.3116741180419922,0.2543323516845703
0.3030921936035156,0.2436475753784180
0.3030921936035156,0.2436475753784180
0.3098871231079102,0.2472501754760742
0.3098871231079102,0.2472501754760742
0.3028575897216797,0.2473955154418945
0.3028575897216797,0.2473955154418945
0.3045164108276367,0.2419080734252930
0.3045164108276367,0.2419080734252930
0.3082094192504883,0.2487625122070312
0.3082094192504883,0.2487625122070312
0.3012903213500976,0.2405897140502929
0.3012903213500976,0.2405897140502929
0.3091512680053711,0.2458757400512695
0.3091512680053711,0.2458757400512695
0.3031105041503906,0.2476158142089844
0.3031105041503906,0.2476158142089844
0.3054216384887695,0.2430736541748047
0.3010602951049804,0.2430736541748047
0.3098167419433593,0.2513837814331055
0.3098167419433593,0.2513837814331055
0.3035236358642578,0.2443033218383789
0.3035236358642578,0.2443033218383789
0.3120838165283203,0.2508584976196289
0.3120838165283203,0.2508584976196289
0.3066804885864258,0.2534832000732422
0.3066804885864258,0.2534832000732422
0.3095924377441406,0.2502416610717773
0.3095924377441406,0.2502416610717773
0.3146621704101563,0.2593271255493164
0.3146621704101563,0.2593271255493164
0.3142444610595703,0.2625000000000000
0.3142444610595703,0.2620347976684570
0.3142444610595703,0.2620347976684570
0.3119155883789063,0.2559511184692383
0.3119155883789063,0.2559511184692383
0.3195636749267578,0.2648105621337891
0.3195636749267578,0.2648105621337891
0.3118743896484375,0.2622213363647461
0.3118743896484375,0.2622213363647461
0.3190629959106445,0.2626298904418945
0.3190629959106445,0.2626298904418945
0.3185108184814453,0.2689167022705078
0.3185108184814453,0.2689167022705078
0.3155382156372070,0.2616273880004883
0.3155382156372070,0.2616273880004883
0.3223457336425781,0.2691684722900390
0.3223457336425781,0.2691684722900390
0.3138164520263672,0.2651321411132813
0.3138164520263672,0.2651321411132813
0.3202989578247070,0.2644695281982422
0.3202989578247070,0.2644695281982422
0.3190979003906250,0.2696983337402344
0.3190979003906250,0.2696983337402344
0.3156177520751953,0.2615816116333008
0.3156177520751953,0.2615816116333008
0.3221071243286133,0.2688497543334961
0.3221071243286133,0.2688497543334961
0.3133066177368164,0.2646440505981445
0.3133066177368164,0.2646440505981445
0.3201295852661133,0.2641908645629883
0.3201295852661133,0.2641908645629883
0.3191631317138672,0.2700553894042969
0.3191631317138672,0.2700553894042969
0.3160314559936523,0.2626150131225586
0.3160314559936523,0.2626150131225586
0.3231216430664062,0.2706911087036133
0.3231216430664062,0.2706911087036133
0.3147771835327148,0.2670970916748047
0.3147771835327148,0.2670970916748047
0.3220012664794922,0.2673711776733398
0.3220012664794922,0.2673711776733398
0.3214387893676758,0.2738496780395508
0.3214387893676758,0.2738496780395508
0.3185085296630859,0.2668481826782226
0.3185085296630859,0.2668481826782226
0.3259237289428711,0.2753448486328125
0.3259237289428711,0.2753448486328125
0.3177555084228516,0.2721994400024414
0.3177555084228516,0.2721994400024414
0.3251232147216797,0.2724740982055664
0.3191276550292969,0.2724740982055664
0.3241287231445312,0.2784914016723632
0.3241287231445312,0.2784914016723632
0.3204059600830078,0.2691450119018555
0.3204059600830078,0.2691450119018555
0.3252302169799804,0.2731092453002930
0.3252302169799804,0.2731092453002930
0.3130508422851562,0.2628438949584961
0.3130508422851562,0.2628438949584961
0.3159616470336914,0.2557130813598633
0.3159616470336914,0.2557130813598633
0.3111934661865234,0.2560546875000000
0.3111934661865234,0.2560546875000000
0.3051527023315430,0.2440893173217773
0.3051527023315430,0.2440893173217773
0.3100187301635742,0.2490125656127929
0.3100187301635742,0.2490125656127929
0.2998832702636718,0.2427915573120117
0.2998832702636718,0.2427915573120117
0.3058719635009766,0.2408180236816406
0.3058719635009766,0.2408180236816406
0.3041948318481445,0.2457000732421875
0.3041948318481445,0.2457000732421875
0.3004234313964844,0.2372056961059570
0.3004234313964844,0.2372056961059570
0.3071010589599609,0.2447708129882812
0.3071010589599609,0.2447708129882812
0.2983005523681641,0.2405530929565430
0.2983005523681641,0.2405530929565430
0.3053655624389648,0.2403299331665039
0.3053655624389648,0.2403299331665039
0.3046279907226562,0.2464570999145508
0.3046279907226562,0.2464570999145508
0.3014734268188476,0.2390956878662109
0.3014734268188476,0.2390956878662109
0.3088365554809570,0.2474939346313476
0.3088365554809570,0.2474939346313476
0.3005584716796875,0.2442106246948242
0.3005584716796875,0.2442106246948242
0.3081270217895508,0.2447250366210937
0.3081270217895508,0.2447250366210937
0.3076051712036132,0.2515245437622070
0.3050783157348633,0.2448577880859375
0.3050783157348633,0.2448577880859375
0.3128820419311523,0.2540782928466797
0.3128820419311523,0.2540782928466797
0.3049655914306640,0.2514318466186523
0.3049655914306640,0.2514318466186523
0.3128557205200195,0.2525562286376953
0.3128557205200195,0.2525562286376953
0.3127492904663086,0.2598924636840820
0.3127492904663086,0.2598924636840820
0.3103059768676757,0.2535020828247070
0.3103059768676757,0.2535020828247070
0.3180873870849609,0.2625989913940430
0.3180873870849609,0.2625989913940430
0.3099597930908203,0.2595291137695312
0.3099597930908203,0.2595291137695312
0.3174121856689453,0.2597270965576172
0.3115573883056640,0.2597270965576172
0.3167221069335938,0.2660104751586914
0.3167221069335938,0.2660104751586914
0.3135652542114258,0.2584184646606445
0.3135652542114258,0.2584184646606445
0.3204345703125000,0.2660505294799805
0.3204345703125000,0.2660505294799805
0.3118120193481445,0.2618854522705078
0.3118120193481445,0.2618854522705078
0.3185194015502930,0.2609836578369141
0.3185194015502930,0.2609836578369141
0.3172445297241211,0.2663915634155273
0.3172445297241211,0.2663915634155273
0.3135578155517578,0.2580505371093750
0.3135578155517578,0.2580505371093750
0.3201959609985351,0.2652557373046875
0.3201959609985351,0.2652557373046875
0.3114418029785156,0.2610219955444336
0.3114418029785156,0.2610219955444336
0.3181171417236328,0.2603199005126953
0.3181171417236328,0.2603199005126953
0.3170179367065429,0.2661701202392578
0.3170179367065429,0.2661701202392578
0.3137689590454101,0.2583847045898438
0.3137689590454101,0.2583847045898438
0.3208316802978515,0.2663417816162109
0.3208316802978515,0.2663417816162109
0.3124448776245117,0.2628484725952148
0.3124448776245117,0.2628484725952148
0.3194887161254883,0.2627231597900391
0.3194887161254883,0.2627231597900391
0.3188529968261719,0.2689796447753906
0.3188529968261719,0.2689796447753906
0.3160726547241211,0.2620811462402344
0.3160726547241211,0.2620811462402344
0.3231119155883789,0.2707202911376953
0.3231119155883789,0.2707202911376953
0.3151788711547852,0.2677202224731445
0.3151788711547852,0.2677202224731445
0.3227525711059570,0.2682220458984375
0.3227525711059570,0.2682220458984375
0.3223182678222656,0.2750644683837891
0.3223182678222656,0.2750644683837891
0.3194927215576172,0.2680589675903320
0.3194927215576172,0.2680589675903320
0.3258596420288086,0.2751605987548828
0.3258596420288086,0.2751605987548828
0.3158540725708008,0.2681001663208007
0.3158540725708008,0.2681001663208007
0.3195533752441406,0.2619541168212891
0.3195533752441406,0.2619541168212891
0.3143188476562500,0.2607381820678711
0.3143188476562500,0.2607381820678711
0.3070816040039062,0.2470247268676758
0.3070816040039062,0.2470247268676758
0.3108747482299805,0.2503978729248047
0.3108747482299805,0.2503978729248047
0.3001407623291015,0.2432338714599609
0.3001407623291015,0.2432338714599609
0.3055870056152344,0.2405307769775391
0.3055870056152344,0.2405307769775391
0.3033199310302734,0.2444784164428711
0.3033199310302734,0.2444784164428711
0.2992898941040039,0.2353929519653320
0.2992898941040039,0.2353929519653320
0.3054674148559570,0.2427835464477539
0.3054674148559570,0.2427835464477539
0.2965450286865234,0.2382785797119140
0.2965450286865234,0.2382785797119140
0.3036066055297851,0.2376560211181641
0.3036066055297851,0.2376560211181641
0.3025257110595703,0.2434976577758789
0.3025257110595703,0.2434976577758789
0.2994552612304687,0.2358055114746094
0.2994552612304687,0.2358055114746094
0.3064704895019531,0.2442163467407227
0.3064704895019531,0.2442163467407227
0.2980733871459961,0.2405559539794922
0.3069871902465820,0.2405559539794922
0.3057466506958008,0.2408386230468750
0.2998495101928711,0.2408386230468750
0.3052076339721679,0.2475975036621094
0.3052076339721679,0.2475975036621094
0.3026430130004883,0.2408449172973633
0.3026430130004883,0.2408449172973633
0.3103237152099609,0.2504144668579101
0.3103237152099609,0.2504144668579101
0.3023843765258789,0.2479036331176758
0.3023843765258789,0.2479036331176758
0.3107980728149414,0.2493495941162109
0.3107980728149414,0.2493495941162109
0.3107505798339844,0.2572774887084961
0.3107505798339844,0.2572774887084961
0.3084680557250977,0.2512418746948242
0.3084680557250977,0.2512418746948242
0.3164154052734375,0.2614053726196289
0.3164154052734375,0.2614053726196289
0.3088891983032226,0.2591485977172852
0.3088891983032226,0.2591485977172852
0.3172794342041015,0.2605436325073242
0.3172794342041015,0.2605436325073242
0.3172988891601562,0.2680898666381836
0.3172988891601562,0.2680898666381836
0.3148927688598633,0.2613779067993164
0.3148927688598633,0.2613779067993164
0.3224687576293945,0.2704467773437500
0.3224687576293945,0.2704467773437500
0.3138673782348633,0.2667720794677734
0.3138673782348633,0.2667720794677734
0.3209787368774414,0.2663497924804688
0.3209787368774414,0.2663497924804688
0.3196895599365234,0.2718652725219726
0.3196895599365234,0.2718652725219726
0.3160034179687500,0.2632759094238281
0.3155582427978516,0.2632759094238281
0.3226015090942383,0.2707288742065430
0.3226015090942383,0.2707288742065430
0.3133157730102539,0.2660236358642578
0.3133157730102539,0.2660236358642578
0.3202823638916015,0.2651504516601562
0.3202823638916015,0.2651504516601562
0.3189205169677734,0.2709125518798828
0.3189205169677734,0.2709125518798828
0.3154695510864258,0.2627283096313476
0.3154695510864258,0.2627283096313476
0.3223989486694336,0.2708307266235351
0.3223989486694336,0.2708307266235351
0.3135005950927734,0.2667114257812500
0.3135005950927734,0.2667114257812500
0.3209095001220703,0.2667560577392578
0.3209095001220703,0.2667560577392578
0.3202314376831055,0.2732339859008789
0.3202314376831055,0.2732339859008789
0.3172571182250977,0.2657890319824219
0.3172571182250977,0.2657890319824219
0.3247959136962891,0.2746662139892578
0.3247959136962891,0.2746662139892578
0.3162368774414062,0.2713611602783203
0.3162368774414062,0.2713611602783203
0.3241207122802734,0.2717256546020508
0.3241207122802734,0.2717256546020508
0.3234523773193359,0.2785463333129883
0.3234523773193359,0.2785463333129883
0.3205369949340820,0.2710962295532227
0.3205369949340820,0.2710962295532227
0.3281633377075195,0.2800100326538086
0.3281633377075195,0.2800100326538086
0.3192890167236328,0.2761058807373047
0.3192890167236328,0.2761058807373047
0.3264410018920899,0.2750925064086914
0.3264410018920899,0.2750925064086914
0.3240566253662109,0.2783843994140625
0.3240566253662109,0.2783843994140625
0.3176467895507812,0.2647642135620117
0.3176467895507812,0.2647642135620117
0.3206085205078125,0.2658056259155273
0.3206085205078125,0.2658056259155273
0.3068424224853515,0.2544639587402344
0.3068424224853515,0.2544639587402344
0.3106367111206055,0.2488265991210937
0.3106367111206055,0.2488265991210937
0.3069654464721679,0.2513917922973632
0.3069654464721679,0.2513917922973632
0.3020467758178711,0.2409439086914062
0.3020467758178711,0.2409439086914062
0.3082523345947266,0.2479431152343750
0.3082523345947266,0.2479431152343750
0.2986810684204101,0.2429729461669922
0.2986810684204101,0.2429729461669922
0.3058376312255859,0.2425243377685547
0.3058376312255859,0.2425243377685547
0.3049655914306640,0.2489255905151367
0.3049655914306640,0.2489255905151367
0.3018304824829102,0.2410875320434570
0.3018304824829102,0.2410875320434570
0.3094768524169922,0.2500814437866211
0.3094768524169922,0.2500814437866211
0.3009595870971680,0.2468090057373047
0.3009595870971680,0.2468090057373047
0.3091049194335938,0.2476381301879883
0.3091049194335938,0.2476381301879883
0.3088022232055664,0.2551454544067382
0.3088022232055664,0.2551454544067382
0.3064012527465820,0.2483070373535156
0.3064012527465820,0.2483070373535156
0.3147033691406250,0.2583486557006836
0.3147033691406250,0.2583486557006836
0.3067176818847656,0.2559694290161132
0.3163599014282226,0.2559694290161132
0.3091918945312500,0.2554080963134766
0.3091918945312500,0.2554080963134766
0.3187013626098633,0.2626550674438476
0.3118406295776367,0.2626550674438476
0.3123533248901367,0.2650028228759765
0.3123533248901367,0.2650028228759765
0.3146907806396484,0.2595737457275391
0.3146907806396484,0.2595737457275391
0.3189085006713867,0.2677814483642578
0.3189085006713867,0.2677814483642578
0.3111717224121094,0.2585535049438477
0.3111717224121094,0.2585535049438477
0.3199584960937500,0.2648220062255859
0.3199584960937500,0.2648220062255859
0.3135709762573242,0.2667703628540039
0.3135709762573242,0.2667703628540039
0.3163352966308594,0.2621423721313477
0.3163352966308594,0.2621423721313477
0.3214382171630859,0.2713674545288086
0.3214382171630859,0.2713674545288086
0.3145774841308593,0.2633033752441406
0.3145774841308593,0.2633033752441406
0.3235937118530273,0.2694963455200195
0.3235937118530273,0.2694963455200195
0.3169624328613281,0.2708633422851562
0.3169624328613281,0.2708633422851562
0.3188203811645507,0.2651922225952149
0.3188203811645507,0.2651922225952149
0.3225625991821289,0.2728923797607422
0.3225625991821289,0.2728923797607422
0.3145986557006836,0.2632078170776367
0.3145986557006836,0.2632078170776367
0.3225528717041016,0.2681070327758789
0.3225528717041016,0.2681070327758789
0.3153327941894531,0.2685825347900391
0.3153327941894531,0.2685825347900391
0.3168325424194336,0.2623821258544922
0.3168325424194336,0.2623821258544922
0.3205083847045898,0.2695581436157227
0.3205083847045898,0.2695581436157227
0.3123762130737305,0.2593729019165039
0.3123762130737305,0.2593729019165039
0.3201496124267578,0.2637777328491211
0.3201496124267578,0.2637777328491211
0.3123847961425781,0.2638418197631836
0.3196506500244141,0.2638418197631836
0.3137168884277344,0.2567264556884766
0.3137168884277344,0.2567264556884766
0.3171215057373047,0.2638652801513672
0.3171215057373047,0.2638652801513672
0.3088640213012695,0.2537366867065430
0.3088640213012695,0.2537366867065430
0.3170494079589843,0.2588968276977539
0.3170494079589843,0.2588968276977539
0.3096942901611328,0.2593854904174804
0.3096942901611328,0.2593854904174804
0.3112907409667969,0.2532108306884766
0.3112907409667969,0.2532108306884766
0.3154283523559570,0.2614334106445312
0.3154283523559570,0.2614334106445312
0.3080389022827149,0.2527484893798828
0.3080389022827149,0.2527484893798828
0.3170734405517578,0.2592378616333008
0.3170734405517578,0.2592378616333008
0.3106904983520508,0.2611724853515625
0.3106904983520508,0.2611724853515625
0.3133306503295898,0.2563613891601562
0.3133306503295898,0.2563613891601562
0.3175598144531250,0.2643167495727539
0.3175598144531250,0.2643167495727539
0.3081865310668945,0.2517385482788086
0.3081865310668945,0.2517385482788086
0.3142679214477539,0.2533985137939453
0.3142679214477539,0.2533985137939453
0.3050004959106445,0.2513792037963867
0.3050004959106445,0.2513792037963867
0.3055515289306641,0.2436046600341797
0.3055515289306641,0.2436046600341797
0.3089469909667968,0.2506725311279297
0.3089469909667968,0.2506725311279297
0.3008337020874023,0.2409187316894531
0.3008337020874023,0.2409187316894531
0.3096015930175781,0.2468725204467773
0.3096015930175781,0.2468725204467773
0.3028507232666016,0.2487155914306640
0.3028507232666016,0.2487155914306640
0.3054204940795898,0.2435995101928711
0.3054204940795898,0.2435995101928711
0.3103082656860351,0.2528635025024414
0.3103082656860351,0.2528635025024414
0.3030366897583008,0.2444395065307617
0.3030366897583008,0.2444395065307617
0.3126056671142578,0.2516344070434570
0.3126056671142578,0.2516344070434570
0.3063085556030273,0.2539615631103516
0.3063085556030273,0.2539615631103516
0.3090024948120117,0.2493862152099609
0.3090024948120117,0.2493862152099609
0.3142158508300781,0.2592012405395508
0.3138153076171875,0.2592012405395508
0.3073116302490234,0.2514318466186523
0.3073116302490234,0.2514318466186523
0.3169647216796875,0.2586559295654297
0.3169647216796875,0.2586559295654297
0.3108255386352539,0.2615455627441406
0.3108255386352539,0.2615455627441406
0.3138908386230468,0.2572477340698242
0.3138908386230468,0.2572477340698242
0.3191350936889648,0.2674461364746094
0.3191350936889648,0.2674461364746094
0.3124053955078125,0.2596647262573242
0.3124053955078125,0.2596647262573242
0.3221288681030273,0.2671989440917968
0.3221288681030273,0.2671989440917968
0.3161836624145508,0.2700988769531250
0.3161836624145508,0.2700988769531250
0.3191162109375000,0.2660625457763672
0.3191162109375000,0.2660625457763672
0.3243066787719727,0.2758592605590820
0.3243066787719727,0.2758592605590820
0.3174425125122070,0.2681024551391601
0.3174425125122070,0.2681024551391601
0.3270515441894531,0.2753837585449219
0.3270515441894531,0.2753837585449219
0.3208757400512695,0.2781778335571289
0.3208757400512695,0.2781778335571289
0.3236394882202148,0.2736373901367187
0.3236394882202148,0.2736373901367187
0.3286588668823242,0.2832544326782226
0.3286588668823242,0.2832544326782226
0.3217592239379883,0.2753345489501953
0.3217592239379883,0.2753345489501953
0.3310890197753906,0.2824436187744140
0.3310890197753906,0.2824436187744140
0.3249315261840820,0.2846878051757812
0.3249315261840820,0.2846878051757812
0.3275665283203125,0.2801055908203125
0.3275665283203125,0.2801055908203125
0.3323604583740234,0.2894399642944336
0.3323604583740234,0.2894399642944336
0.3253269195556641,0.2813896179199218
0.3253269195556641,0.2813896179199218
0.3344684600830078,0.2880563735961914
0.3344684600830078,0.2880563735961914
0.3282239913940430,0.2902084350585937
0.3282239913940430,0.2902084350585937
0.3307319641113281,0.2855009078979492
0.3307319641113281,0.2855009078979492
0.3354600906372070,0.2948249816894531
0.3354600906372070,0.2948249816894531
0.3284500122070312,0.2864702224731445
0.3284500122070312,0.2864702224731445
0.3375091552734375,0.2931518554687500
0.3375091552734375,0.2931518554687500
0.3312532424926758,0.2953502655029297
0.3312532424926758,0.2953502655029297
0.3336256027221680,0.2905838012695313
0.3336256027221680,0.2905838012695313
0.3383880615234375,0.2995296478271484
0.3383880615234375,0.2995296478271484
0.3311113357543945,0.2912120819091797
0.3311113357543945,0.2912120819091797
0.3401819229125976,0.2977890014648437
0.3401819229125976,0.2977890014648437
0.3337354660034180,0.2998609542846680
0.3337354660034180,0.2998609542846680
0.3360855102539063,0.2944398880004883
0.3360855102539063,0.2944398880004883
0.3404537200927734,0.3030647277832031
0.3404537200927734,0.3030647277832031
0.3329074859619141,0.2941738128662109
0.3329074859619141,0.2941738128662109
0.3415843963623047,0.3001419067382812
0.3415843963623047,0.3001419067382812
0.3347745895385742,0.3012954711914063
0.3347745895385742,0.3012954711914063
0.3366056442260742,0.2954292297363281
0.3366056442260742,0.2954292297363281
0.3406551361083984,0.3034429550170898
0.3406551361083984,0.3034429550170898
0.3328227996826172,0.2941062927246094
0.3328227996826172,0.2941062927246094
0.3411832809448242,0.2994203567504883
0.3411832809448242,0.2994203567504883
0.3341583251953125,0.3003982543945312
0.3341583251953125,0.3003982543945312
0.3358966827392578,0.2943180084228516
0.3358966827392578,0.2943180084228516
0.3400119781494140,0.3025274276733398
0.3400119781494140,0.3025274276733398
0.3321264266967773,0.2929876327514648
0.3321264266967773,0.2929876327514648
0.3406820297241211,0.2987485885620117
0.3406820297241211,0.2987485885620117
0.3339042663574219,0.3000469207763672
0.3339042663574219,0.3000469207763672
0.3359052658081055,0.2944856643676758
0.3359052658081055,0.2944856643676758
0.3401779174804687,0.3028673171997070
0.3401779174804687,0.3028673171997070
0.3327072143554687,0.2940198898315430
0.3327072143554687,0.2940198898315430
0.3415054321289062,0.3001333236694336
0.3344078063964844,0.3001333236694336
0.3349370956420898,0.3019958496093750
0.3349370956420898,0.3019958496093750
0.3371498107910156,0.2965324401855469
0.3371498107910156,0.2965324401855469
0.3415609359741211,0.3053501129150391
0.3415609359741211,0.3053501129150391
0.3342956542968750,0.2967138290405273
0.3342956542968750,0.2967138290405273
0.3432094573974609,0.3032295227050781
0.3432094573974609,0.3032295227050781
0.3366920471191406,0.3048563003540039
0.3366920471191406,0.3048563003540039
0.3389602661132812,0.2996847152709961
0.3389602661132812,0.2996847152709961
0.3434200286865234,0.3085561752319336
0.3434200286865234,0.3085561752319336
0.3360912322998047,0.3000251770019531
0.3360912322998047,0.3000251770019531
0.3449861526489258,0.3062238693237305
0.3449861526489258,0.3062238693237305
0.3383972167968750,0.3079616546630859
0.3383972167968750,0.3079616546630859
0.3407089233398438,0.3028066635131836
0.3407089233398438,0.3028066635131836
0.3451818466186523,0.3117141723632812
0.3451818466186523,0.3117141723632812
0.3378164291381836,0.3028335571289062
0.3378164291381836,0.3028335571289062
0.3466764450073242,0.3090866088867187
0.3466764450073242,0.3090866088867187
0.3400463104248047,0.3106950759887695
0.3400463104248047,0.3106950759887695
0.3422418594360351,0.3055212020874024
0.3422418594360351,0.3055212020874024
0.3467079162597656,0.3142061233520508
0.3467079162597656,0.3142061233520508
0.3392326354980469,0.3052648544311523
0.3392326354980469,0.3052648544311523
0.3481367111206055,0.3115957260131836
0.3481367111206055,0.3115957260131836
0.3413801193237305,0.3133701324462890
0.3413801193237305,0.3133701324462890
0.3435544967651367,0.3079164505004883
0.3435544967651367,0.3079164505004883
0.3481492996215820,0.3167736053466797
0.3481492996215820,0.3167736053466797
0.3406637191772461,0.3077533721923828
0.3406637191772461,0.3077533721923828
0.3496267318725586,0.3142324447631836
0.3496267318725586,0.3142324447631836
0.3428037643432617,0.3157556533813476
0.3428037643432617,0.3157556533813476
0.3450273513793945,0.3103906631469727
0.3450273513793945,0.3103906631469727
0.3495923995971680,0.3192678451538086
0.3495923995971680,0.3192678451538086
0.3420232772827148,0.3104181289672852
0.3420232772827148,0.3104181289672852
0.3509468078613281,0.3165058135986328
0.3509468078613281,0.3165058135986328
0.3440345764160156,0.3179077148437500
0.3440345764160156,0.3179077148437500
0.3460361480712891,0.3122137069702148
0.3460361480712891,0.3122137069702148
0.3503637313842773,0.3208517074584961
0.3503637313842773,0.3208517074584961
0.3425399780273438,0.3110618591308594
0.3425399780273438,0.3110618591308594
0.3510835647583008,0.3167409896850586
0.3510835647583008,0.3167409896850586
0.3438737869262695,0.3176765441894531
0.3438737869262695,0.3176765441894531
0.3456453323364257,0.3115831375122070
0.3456453323364257,0.3115831375122070
0.3496524810791016,0.3194417953491211
0.3496524810791016,0.3194417953491211
0.3415723800659179,0.3094093322753906
0.3415723800659179,0.3094093322753906
0.3501010894775390,0.3150278091430664
0.3501010894775390,0.3150278091430664
0.3427631378173828,0.3159622192382812
0.3427631378173828,0.3159622192382812
0.3444854736328125,0.3095615386962891
0.3444854736328125,0.3095615386962891
0.3485916137695312,0.3178167343139648
0.3485916137695312,0.3178167343139648
0.3406877517700195,0.3080245971679688
0.3406877517700195,0.3080245971679688
0.3494064331054688,0.3141191482543945
0.3494064331054688,0.3141191482543945
0.3423368453979492,0.3152063369750976
0.3423368453979492,0.3152063369750976
0.3443412780761719,0.3091695785522461
0.3443412780761719,0.3091695785522461
0.3487329483032227,0.3179946899414062
0.3487329483032227,0.3179946899414062
0.3466283798217774,0.3180215835571289
0.3501760482788086,0.3180215835571289
0.3428169250488281,0.3091077804565430
0.3428169250488281,0.3091077804565430
0.3506635665893554,0.3183391571044922
0.3506635665893554,0.3183391571044922
0.3409692764282227,0.3137340545654297
0.3409692764282227,0.3137340545654297
0.3490345001220703,0.3135429382324219
0.3490345001220703,0.3135429382324219
0.3478357315063477,0.3203561782836914
0.3478357315063477,0.3203561782836914
0.3442153930664062,0.3114583969116211
0.3442949295043945,0.3114583969116211
0.3522291183471680,0.3209009170532227
0.3522291183471680,0.3209009170532227
0.3424135208129883,0.3163101196289063
0.3424135208129883,0.3163101196289063
0.3504341125488281,0.3161916732788086
0.3504341125488281,0.3161916732788086
0.3493749618530274,0.3229185104370117
0.3493749618530274,0.3229185104370117
0.3457088470458984,0.3140939712524414
0.3457088470458984,0.3140939712524414
0.3534805297851563,0.3233533859252929
0.3534805297851563,0.3233533859252929
0.3435316085815430,0.3185823440551758
0.3435316085815430,0.3185823440551758
0.3517364501953125,0.3181709289550781
0.3517364501953125,0.3181709289550781
0.3505336761474609,0.3249601364135742
0.3505336761474609,0.3249601364135742
0.3467702865600586,0.3160898208618164
0.3467702865600586,0.3160898208618164
0.3545705795288086,0.3251518249511718
0.3545705795288086,0.3251518249511718
0.3446914672851563,0.3202629089355469
0.3446914672851563,0.3202629089355469
0.3527137756347656,0.3200111389160156
0.3527137756347656,0.3200111389160156
0.3514818191528320,0.3266962051391601
0.3514818191528320,0.3266962051391601
0.3476337432861328,0.3177314758300781
0.3476337432861328,0.3177314758300781
0.3556360244750976,0.3268226623535156
0.3556360244750976,0.3268226623535156
0.3455835342407226,0.3221162796020507
0.3455835342407226,0.3221162796020507
0.3537220001220703,0.3218416213989257
0.3537220001220703,0.3218416213989257
0.3524139404296875,0.3285758972167969
0.3524139404296875,0.3285758972167969
0.3488124847412109,0.3195138931274414
0.3488124847412109,0.3195138931274414
0.3568107604980469,0.3289695739746094
0.3568107604980469,0.3289695739746094
0.3467353820800781,0.3242271423339844
0.3467353820800781,0.3242271423339844
0.3547920227050781,0.3238706588745117
0.3547920227050781,0.3238706588745117
0.3536493301391602,0.3306673049926758
0.3536493301391602,0.3306673049926758
0.3498727798461914,0.3289735794067383
0.3498727798461914,0.3289735794067383
0.3565504074096680,0.3255134582519531
0.3565504074096680,0.3317481994628906
0.3565504074096680,0.3316783905029297
0.3541139602661132,0.3313121795654297
0.3575706481933594,0.3280328750610351
0.3497509002685547,0.3218427658081054
0.3497509002685547,0.3218427658081054
0.3576272964477539,0.3304492950439453
0.3576272964477539,0.3304492950439453
0.3471559524536132,0.3249355316162109
0.3471559524536132,0.3249355316162109
0.3549648284912109,0.3240194320678711
0.3549648284912109,0.3240194320678711
0.3533655166625976,0.3301883697509765
0.3533655166625976,0.3301883697509765
0.3492633819580078,0.3205696105957031
0.3492633819580078,0.3205696105957031
0.3569572448730469,0.3291383743286133
0.3569572448730469,0.3291383743286133
0.3465368270874024,0.3238729476928711
0.3465368270874024,0.3238729476928711
0.3543800354003906,0.3231193542480469
0.3543800354003906,0.3231193542480469
0.3528791427612304,0.3294925689697266
0.3528791427612304,0.3294925689697266
0.3489950180053711,0.3201032638549804
0.3489950180053711,0.3201032638549804
0.3568811416625977,0.3291252136230469
0.3568811416625977,0.3291252136230469
0.3466970443725586,0.3240457534790039
0.3466970443725586,0.3240457534790039
0.3545213699340820,0.3236434936523437
0.3545213699340820,0.3236434936523437
0.3534181594848633,0.3302507400512695
0.3534181594848633,0.3302507400512695
0.3496644973754883,0.3213237762451172
0.3496644973754883,0.3213237762451172
0.3575592041015625,0.3303497314453125
0.3575592041015625,0.3303497314453125
0.3475393295288086,0.3256954193115234
0.3475393295288086,0.3256954193115234
0.3555971145629883,0.3252742767333984
0.3555971145629883,0.3252742767333984
0.3545001983642578,0.3321029663085938
0.3581588745117187,0.3321029663085938
0.3507030487060547,0.3231136322021484
0.3507030487060547,0.3231136322021484
0.3586000442504882,0.3322746276855469
0.3586000442504882,0.3322746276855469
0.3486625671386719,0.3273639678955078
0.3486625671386719,0.3273639678955078
0.3566041946411133,0.3270915985107422
0.3566041946411133,0.3270915985107422
0.3553888320922852,0.3338991165161133
0.3553888320922852,0.3338991165161133
0.3516391754150390,0.3247592926025391
0.3516391754150390,0.3247592926025391
0.3595235824584961,0.3336587905883789
0.3595235824584961,0.3336587905883789
0.3495277404785156,0.3289014816284180
0.3495277404785156,0.3289014816284180
0.3573583602905273,0.3284608840942383
0.3573583602905273,0.3284608840942383
0.3560989379882812,0.3350194931030273
0.3560989379882812,0.3350194931030273
0.3523475646972656,0.3259706497192383
0.3519487380981445,0.3259706497192383
0.3600849151611328,0.3347465515136719
0.3600849151611328,0.3347465515136719
0.3501960754394531,0.3299486160278320
0.3501960754394531,0.3299486160278320
0.3578355789184570,0.3294513702392578
0.3578355789184570,0.3294513702392578
0.3566425323486328,0.3358572006225586
0.3566425323486328,0.3358572006225586
0.3529930114746094,0.3270933151245117
0.3529930114746094,0.3270933151245117
0.3606056213378906,0.3357284545898437
0.3606056213378906,0.3357284545898437
0.3506601333618164,0.3310535430908203
0.3506601333618164,0.3310535430908203
0.3585325241088867,0.3305099487304687
0.3585325241088867,0.3305099487304687
0.3572811126708984,0.3371240615844727
0.3572811126708984,0.3371240615844727
0.3536785125732422,0.3283161163330078
0.3536785125732422,0.3283161163330078
0.3613037109375000,0.3370983123779297
0.3613037109375000,0.3370983123779297
0.3514629364013672,0.3324296951293945
0.3514629364013672,0.3324296951293945
0.3593244552612305,0.3319393157958984
0.3593244552612305,0.3319393157958984
0.3580741882324219,0.3384172439575195
0.3580741882324219,0.3384172439575195
0.3541723251342773,0.3294994354248047
0.3541723251342773,0.3294994354248047
0.3619262695312500,0.3379589080810547
0.3619262695312500,0.3379589080810547
0.3519161224365234,0.3330768585205078
0.3519161224365234,0.3330768585205078
0.3595304489135742,0.3323959350585937
0.3595304489135742,0.3323959350585937
0.3579763412475586,0.3384286880493164
0.3579763412475586,0.3384286880493164
0.3540435791015625,0.3289506912231445
0.3540435791015625,0.3289506912231445
0.3613185882568359,0.3373094558715820
0.3613185882568359,0.3373094558715820
0.3512763977050781,0.3320549011230469
0.3512763977050781,0.3320549011230469
0.3586915969848632,0.3310466766357422
0.3586915969848632,0.3310466766357422
0.3571500778198242,0.3368082046508789
0.3571500778198242,0.3368082046508789
0.3531612396240234,0.3276889801025391
0.3531612396240234,0.3276889801025391
0.3605615615844727,0.3358085632324219
0.3605615615844727,0.3358085632324219
0.3504329681396484,0.3306838989257813
0.3504329681396484,0.3306838989257813
0.3580587387084961,0.3298370361328125
0.3580587387084961,0.3298370361328125
0.3565641403198242,0.3360488891601562
0.3565641403198242,0.3360488891601562
0.3528345108032226,0.3270784378051758
0.3528345108032226,0.3270784378051758
0.3603052139282226,0.3355453491210937
0.3603052139282226,0.3355453491210937
0.3505050659179688,0.3308063507080078
0.3598886489868164,0.3308063507080078
0.3582693099975586,0.3305122375488281
0.3582693099975586,0.3305122375488281
0.3570545196533203,0.3368968963623047
0.3570545196533203,0.3368968963623047
0.3533231735229492,0.3282554626464844
0.3533231735229492,0.3282554626464844
0.3610776901245117,0.3367189407348632
0.3610776901245117,0.3367189407348632
0.3513502120971679,0.3322465896606445
0.3513502120971679,0.3322465896606445
0.3591585159301758,0.3319976806640625
0.3591585159301758,0.3319976806640625
0.3578516006469726,0.3383880615234375
0.3578516006469726,0.3383880615234375
0.3543331146240234,0.3297163009643554
0.3543331146240234,0.3297163009643554
0.3619308471679688,0.3383205413818359
0.3619308471679688,0.3383205413818359
0.3521810531616211,0.3336902618408203
0.3521810531616211,0.3336902618408203
0.3599584579467773,0.3334167480468750
0.3599584579467773,0.3334167480468750
0.3586383819580078,0.3396240234375000
0.3586383819580078,0.3396240234375000
0.3551198959350586,0.3310111999511718
0.3551198959350586,0.3310111999511718
0.3625322341918945,0.3394414901733399
0.3625322341918945,0.3394414901733399
0.3527126312255859,0.3346813201904297
0.3527126312255859,0.3346813201904297
0.3604757308959961,0.3342184066772461
0.3604757308959961,0.3342184066772461
0.3591281890869141,0.3406265258789062
0.3591281890869141,0.3406265258789062
0.3555530548095703,0.3320840835571289
0.3555530548095703,0.3320840835571289
0.3629888534545898,0.3403930664062500
0.3629888534545898,0.3403930664062500
0.3533340454101562,0.3356672286987304
0.3533340454101562,0.3356672286987304
0.3611589431762695,0.3354400634765625
0.3611589431762695,0.3354400634765625
0.3597724914550781,0.3416507720947266
0.3597724914550781,0.3416507720947266
0.3560331344604492,0.3330013275146484
0.3560331344604492,0.3330013275146484
0.3636056900024414,0.3415094375610351
0.3636056900024414,0.3415094375610351
0.3539068222045899,0.3367561340332031
0.3539068222045899,0.3367561340332031
0.3616842269897461,0.3365203857421875
0.3616842269897461,0.3365203857421875
0.3602085113525391,0.3427099227905273
0.3602085113525391,0.3427099227905273
0.3567335128784180,0.3341268539428711
0.3567335128784180,0.3341268539428711
0.3643712997436523,0.3426681518554687
0.3643712997436523,0.3426681518554687
0.3545082092285156,0.3379480361938477
0.3545082092285156,0.3379480361938477
0.3622558593750000,0.3375772476196289
0.3622558593750000,0.3375772476196289
0.3608064651489258,0.3436300277709961
0.3608064651489258,0.3436300277709961
0.3571598052978516,0.3349090576171875
0.3571598052978516,0.3349090576171875
0.3593599319458008,0.3431522369384766
0.3593599319458008,0.3431522369384766
0.3544870376586914,0.3379520416259765
0.3544870376586914,0.3379520416259765
0.3620492935180664,0.3371114730834961
0.3620492935180664,0.3371114730834961
0.3603578567504883,0.3428031921386719
0.3603578567504883,0.3428031921386719
0.3564096450805664,0.3335632324218750
0.3564096450805664,0.3335632324218750
0.3634912490844727,0.3412725448608399
0.3581811904907227,0.3412725448608399
0.3532802581787109,0.3357610702514648
0.3532802581787109,0.3357610702514648
0.3607761383056641,0.3349308013916015
0.3607761383056641,0.3349308013916015
0.3589027404785156,0.3403781890869140
0.3589027404785156,0.3403781890869140
0.3548978805541992,0.3311313629150390
0.3548978805541992,0.3311313629150390
0.3621540069580078,0.3388767242431641
0.3621540069580078,0.3388767242431641
0.3520626068115234,0.3336273193359375
0.3520626068115234,0.3336273193359375
0.3596603393554688,0.3328411102294922
0.3596603393554688,0.3328411102294922
0.3577777862548828,0.3386083602905273
0.3577777862548828,0.3386083602905273
0.3541465759277344,0.3295726776123047
0.3541465759277344,0.3295726776123047
0.3615211486816406,0.3378410339355469
0.3615211486816406,0.3378410339355469
0.3515596389770508,0.3328948974609375
0.3515596389770508,0.3328948974609375
0.3523778915405273,0.3294313430786133
0.3523778915405273,0.3294313430786133
0.3542736053466797,0.3355854034423828
0.3543102264404297,0.3355854034423828
0.3539463043212890,0.3367544174194336
0.3539463043212890,0.3367544174194336
0.3564279556274414,0.3312429428100586
0.3564279556274414,0.3312429428100586
0.3606725692749023,0.3397510528564453
0.3606725692749023,0.3397510528564453
0.3530055999755859,0.3306215286254883
0.3530055999755859,0.3306215286254883
0.3620927810668945,0.3369375228881836
0.3620927810668945,0.3369375228881836
0.3547388076782226,0.3378656387329101
0.3547388076782226,0.3378656387329101
0.3571363449096679,0.3325939178466797
0.3571363449096679,0.3325939178466797
0.3614696502685547,0.3411306381225586
0.3608556747436523,0.3411306381225586
0.3537385940551758,0.3320520401000976
0.3537385940551758,0.3320520401000976
0.3627490997314453,0.3380521774291992
0.3627490997314453,0.3380521774291992
0.3553236007690430,0.3389860153198242
0.3553236007690430,0.3389860153198242
0.3577497482299805,0.3336931228637695
0.3577497482299805,0.3336931228637695
0.3619440078735351,0.3422510147094727
0.3619440078735351,0.3422510147094727
0.3542867660522461,0.3327947616577148
0.3542867660522461,0.3327947616577148
0.3632949829101562,0.3389974594116211
0.3632949829101562,0.3389974594116211
0.3557939529418945,0.3399381637573242
0.3557939529418945,0.3399381637573242
0.3582967758178711,0.3348026275634766
0.3582967758178711,0.3348026275634766
0.3624824523925781,0.3431196212768555
0.3624824523925781,0.3431196212768555
0.3548446655273437,0.3337760925292969
0.3548446655273437,0.3337760925292969
0.3637521743774414,0.3397985458374023
0.3637521743774414,0.3397985458374023
0.3565389633178711,0.3410722732543945
0.3565389633178711,0.3410722732543945
0.3588861465454101,0.3357742309570312
0.3588861465454101,0.3357742309570312
0.3629934310913086,0.3439870834350586
0.3629934310913086,0.3439870834350586
0.3557893753051758,0.3350858688354492
0.3557893753051758,0.3350858688354492
0.3645727157592774,0.3412656784057617
0.3645727157592774,0.3412656784057617
0.3572896957397461,0.3422121047973632
0.3572896957397461,0.3422121047973632
0.3595407485961914,0.3369804382324219
0.3595407485961914,0.3369804382324219
0.3636091232299805,0.3450399398803711
0.3636091232299805,0.3450399398803711
0.3562597274780273,0.3361003875732422
0.3562597274780273,0.3361003875732422
0.3649990081787109,0.3417491912841797
0.3649990081787109,0.3417491912841797
0.3573474884033203,0.3424467086791992
0.3573474884033203,0.3424467086791992
0.3594160079956055,0.3369123458862305
0.3594160079956055,0.3369123458862305
0.3631679534912109,0.3445438385009765
0.3631679534912109,0.3445438385009765
0.3555702209472656,0.3349142074584961
0.3555702209472656,0.3349142074584961
0.3640165328979492,0.3401847839355469
0.3640165328979492,0.3401847839355469
0.3561698913574219,0.3404663085937500
0.3561698913574219,0.3404663085937500
0.3582057952880859,0.3347316741943359
0.3582057952880859,0.3347316741943359
0.3617591857910156,0.3419780731201172
0.3617591857910156,0.3419780731201172
0.3540979385375976,0.3323020935058594
0.3540979385375976,0.3323020935058594
0.3625202178955078,0.3375606536865234
0.3625202178955078,0.3375606536865234
0.3547245025634765,0.3381471633911133
0.3547245025634765,0.3381471633911133
0.3568508148193359,0.3324005126953125
0.3568508148193359,0.3324005126953125
0.3606445312500000,0.3400468826293945
0.3606445312500000,0.3400468826293945
0.3532264709472656,0.3308658599853516
0.3532264709472656,0.3308658599853516
0.3618661880493164,0.3366228103637695
0.3618661880493164,0.3366228103637695
0.3543605804443359,0.3373775482177734
0.3543605804443359,0.3373775482177734
0.3566762924194336,0.3321447372436523
0.3566762924194336,0.3321447372436523
0.3609426498413086,0.3403936386108398
0.3609426498413086,0.3403936386108398
0.3531131744384766,0.3314517974853515
0.3531131744384766,0.3314517974853515
0.3622953414916992,0.3374496459960937
0.3622953414916992,0.3374496459960937
0.3547382354736328,0.3385311126708984
0.3547382354736328,0.3385311126708984
0.3574098587036132,0.3334156036376953
0.3574098587036132,0.3334156036376953
0.3616504669189453,0.3419826507568359
0.3616504669189453,0.3419826507568359
0.3538930892944336,0.3327695846557617
0.3538930892944336,0.3327695846557617
0.3630575180053711,0.3389350891113281
0.3630575180053711,0.3389350891113281
0.3555696487426758,0.3399456024169922
0.3555696487426758,0.3399456024169922
0.3582727432250977,0.3349445343017578
0.3582727432250977,0.3349445343017578
0.3624778747558594,0.3432134628295898
0.3619800567626953,0.3432134628295898
0.3546455383300781,0.3340787887573242
0.3546455383300781,0.3340787887573242
0.3638792037963867,0.3401899337768555
0.3638792037963867,0.3401899337768555
0.3561784744262695,0.3412496566772461
0.3561784744262695,0.3412496566772461
0.3589004516601562,0.3359722137451172
0.3589004516601562,0.3359722137451172
0.3630117416381836,0.3442325592041016
0.3630117416381836,0.3442325592041016
0.3552526473999023,0.3352186203002930
0.3552526473999023,0.3352186203002930
0.3643775939941406,0.3414241790771484
0.3643775939941406,0.3414241790771484
0.3568016052246094,0.3422384262084961
0.3568016052246094,0.3422384262084961
0.3594509124755859,0.3370651245117187
0.3594509124755859,0.3370651245117187
0.3636360168457031,0.3455646514892578
0.3636360168457031,0.3455646514892578
0.3559988021850586,0.3366107940673828
0.3559988021850586,0.3366107940673828
0.3651020050048828,0.3425491333007812
0.3651020050048828,0.3425491333007812
0.3575231552124024,0.3436140060424804
0.3575231552124024,0.3436140060424804
0.3602817535400391,0.3386209487915039
0.3602817535400391,0.3386209487915039
0.3644496917724609,0.3470964431762695
0.3644496917724609,0.3470964431762695
0.3567461013793945,0.3380510330200195
0.3567461013793945,0.3380510330200195
0.3659626007080078,0.3441719055175781
0.3659626007080078,0.3441719055175781
0.3583333969116211,0.3451738357543945
0.3583333969116211,0.3451738357543945
0.3611766815185547,0.3402271270751953
0.3611766815185547,0.3402271270751953
0.3651786804199219,0.3483873367309570
0.3651786804199219,0.3483873367309570
0.3573652267456054,0.3392778396606445
0.3573652267456054,0.3392778396606445
0.3664489746093750,0.3451572418212890
0.3664489746093750,0.3451572418212890
0.3586544036865234,0.3459537506103516
0.3667699813842774,0.3459537506103516
0.3611972808837891,0.3402500152587891
0.3611972808837891,0.3402500152587891
0.3650676727294922,0.3481355667114258
0.3650676727294922,0.3481355667114258
0.3570035934448242,0.3386301040649414
0.3570035934448242,0.3386301040649414
0.3658864974975586,0.3442028045654297
0.3658864974975586,0.3442028045654297
0.3578321456909180,0.3444093704223632
0.3578321456909180,0.3444093704223632
0.3602405548095703,0.3386318206787109
0.3602405548095703,0.3386318206787109
0.3640096664428711,0.3463502883911133
0.3640096664428711,0.3463502883911133
0.3558849334716797,0.3369272232055664
0.3558849334716797,0.3369272232055664
0.3648124694824219,0.3422000885009766
0.3648124694824219,0.3422000885009766
0.3567306518554688,0.3426258087158203
0.3567306518554688,0.3426258087158203
0.3593318939208984,0.3370771408081055
0.3593318939208984,0.3370771408081055
0.3631708145141602,0.3449729919433593
0.3631708145141602,0.3449729919433593
0.3552034378051758,0.3356065750122070
0.3552034378051758,0.3356065750122070
0.3642070770263672,0.3412467956542969
0.3642070770263672,0.3412467956542969
0.3563879013061523,0.3420301437377929
0.3563879013061523,0.3420301437377929
0.3591636657714843,0.3368293762207031
0.3591636657714843,0.3368293762207031
0.3631364822387695,0.3447521209716797
0.3631364822387695,0.3447521209716797
0.3553030014038086,0.3358360290527344
0.3553030014038086,0.3358360290527344
0.3644565582275390,0.3417892456054688
0.3644565582275390,0.3417892456054688
0.3568033218383789,0.3428283691406250
0.3568033218383789,0.3428283691406250
0.3596483230590820,0.3377105712890625
0.3596483230590820,0.3377105712890625
0.3637075424194336,0.3459440231323242
0.3637075424194336,0.3459440231323242
0.3560565948486328,0.3369947433471679
0.3560565948486328,0.3369947433471679
0.3652730941772461,0.3432409286499024
0.3652730941772461,0.3432409286499024
0.3574481964111328,0.3439664840698242
0.3574481964111328,0.3439664840698242
0.3604225158691406,0.3389905929565429
0.3604225158691406,0.3389905929565429
0.3643386840820312,0.3471725463867187
0.3643386840820312,0.3471725463867187
0.3566602706909179,0.3383199691772461
0.3566602706909179,0.3383199691772461
0.3659225463867187,0.3441661834716797
0.3579093933105469,0.3449071884155273
0.3579093933105469,0.3449071884155273
0.3610061645507812,0.3398838043212891
0.3610061645507812,0.3398838043212891
0.3648902893066406,0.3481733322143555
0.3648902893066406,0.3481733322143555
0.3571838378906250,0.3390094757080078
0.3571838378906250,0.3390094757080078
0.3663368225097656,0.3450239181518555
0.3663368225097656,0.3450239181518555
0.3584335327148437,0.3458702087402344
0.3584335327148437,0.3458702087402344
0.3614765167236328,0.3408491134643555
0.3614765167236328,0.3408491134643555
0.3653635025024414,0.3488857269287109
0.3653635025024414,0.3488857269287109
0.3576335906982422,0.3399026870727539
0.3576335906982422,0.3399026870727539
0.3668203353881836,0.3459640502929687
0.3668203353881836,0.3459640502929687
0.3588335037231445,0.3468452453613281
0.3588335037231445,0.3468452453613281
0.3619995117187500,0.3417617797851563
0.3619995117187500,0.3417617797851563
0.3659042358398437,0.3498956680297852
0.3659042358398437,0.3498956680297852
0.3582452774047851,0.3410619735717773
0.3582452774047851,0.3410619735717773
0.3674755096435547,0.3472394943237305
0.3674755096435547,0.3472394943237305
0.3594738006591797,0.3478683471679687
0.3594738006591797,0.3478683471679687
0.3626764297485351,0.3428495407104492
0.3626764297485351,0.3428495407104492
0.3664655685424805,0.3509845733642578
0.3664655685424805,0.3509845733642578
0.3587808609008789,0.3420307159423828
0.3587808609008789,0.3420307159423828
0.3678056716918945,0.3477064132690429
0.3678056716918945,0.3477064132690429
0.3596088409423828,0.3481172561645507
0.3596088409423828,0.3481172561645507
0.3626358032226563,0.3426824569702148
0.3626358032226563,0.3426824569702148
0.3661090850830078,0.3505468368530273
0.3661090850830078,0.3505468368530273
0.3582000732421875,0.3407375335693359
0.3582000732421875,0.3407375335693359
0.3669342041015625,0.3462747573852539
0.3669342041015625,0.3462747573852539
0.3584730148315430,0.3462295532226562
0.3584730148315430,0.3462295532226562
0.3614639282226562,0.3407649993896484
0.3614639282226562,0.3407649993896484
0.3648559570312500,0.3482151031494141
0.3648559570312500,0.3482151031494141
0.3568422317504883,0.3384962081909180
0.3568422317504883,0.3384962081909180
0.3658155441284179,0.3440883636474609
0.3658155441284179,0.3440883636474609
0.3573080062866211,0.3443412780761719
0.3657417297363281,0.3443412780761719
0.3603967666625976,0.3387651443481445
0.3603967666625976,0.3387651443481445
0.3638757705688476,0.3465236663818359
0.3638757705688476,0.3465236663818359
0.3560920715332031,0.3371469497680664
0.3560920715332031,0.3371469497680664
0.3650568008422851,0.3431493759155274
0.3650568008422851,0.3431493759155274
0.3568490982055664,0.3434171676635742
0.3568490982055664,0.3434171676635742
0.3600912094116211,0.3383274078369141
0.3600912094116211,0.3383274078369141
0.3637298583984375,0.3464910507202149
0.3637298583984375,0.3464910507202149
0.3562196731567382,0.3374816894531250
0.3612321853637695,0.3471359252929687
0.3653955459594727,0.3436002731323242
0.3584707260131836,0.3436002731323242
0.3572244644165039,0.3442600250244141
0.3572244644165039,0.3442600250244141
0.3607469558715820,0.3393602371215820
0.3607469558715820,0.3393602371215820
0.3644760131835937,0.3477870941162109
0.3644760131835937,0.3477870941162109
0.3569194793701172,0.3386180877685547
0.3569194793701172,0.3386180877685547
0.3661090850830078,0.3449695587158203
0.3661090850830078,0.3449695587158203
0.3579196929931641,0.3456155776977539
0.3579196929931641,0.3456155776977539
0.3615154266357422,0.3409080505371094
0.3615154266357422,0.3409080505371094
0.3651237487792969,0.3489343643188477
0.3651237487792969,0.3489343643188477
0.3575305938720703,0.3399765014648438
0.3575305938720703,0.3399765014648438
0.3668449401855469,0.3461420059204102
0.3668449401855469,0.3461420059204102
0.3585084915161132,0.3467267990112304
0.3672117233276367,0.3467267990112304
0.3620738983154297,0.3417360305786133
0.3620738983154297,0.3417360305786133
0.3656587600708008,0.3499185562133789
0.3656587600708008,0.3499185562133789
0.3581502914428711,0.3407896041870117
0.3581502914428711,0.3407896041870117
0.3673536300659180,0.3471456527709961
0.3673536300659180,0.3471456527709961
0.3588930130004883,0.3475061416625976
0.3588930130004883,0.3475061416625976
0.3625373840332031,0.3425863265991211
0.3625373840332031,0.3425863265991211
0.3661760330200195,0.3507585525512695
0.3661760330200195,0.3507585525512695
0.3585805892944336,0.3417972564697265
0.3585805892944336,0.3417972564697265
0.3678462982177734,0.3478614807128906
0.3678462982177734,0.3478614807128906
0.3594612121582031,0.3484199523925781
0.3594612121582031,0.3484199523925781
0.3631210327148438,0.3435991287231445
0.3631210327148438,0.3435991287231445
0.3667402267456055,0.3519521713256836
0.3667402267456055,0.3519521713256836
0.3591115951538086,0.3427848815917969
0.3591115951538086,0.3427848815917969
0.3683715820312500,0.3489973068237305
0.3683715820312500,0.3489973068237305
0.3601072311401367,0.3495695114135742
0.3601072311401367,0.3495695114135742
0.3637315750122070,0.3449747085571289
0.3637315750122070,0.3449747085571289
0.3673152923583984,0.3529518127441406
0.3673152923583984,0.3529518127441406
0.3598102569580078,0.3439790725708008
0.3598102569580078,0.3439790725708008
0.3690954208374023,0.3501937866210937
0.3690954208374023,0.3501937866210937
0.3606056213378906,0.3508163452148437
0.3606056213378906,0.3508163452148437
0.3642562866210937,0.3456590652465820
0.3642562866210937,0.3456590652465820
0.3676757812500000,0.3535881042480469
0.3676757812500000,0.3535881042480469
0.3600357055664062,0.3441547393798828
0.3600357055664062,0.3441547393798828
0.3690073013305664,0.3501983642578125
0.3690073013305664,0.3501983642578125
0.3602073669433594,0.3500066757202148
0.3602073669433594,0.3500066757202148
0.3636600494384766,0.3446084976196289
0.3636600494384766,0.3446084976196289
0.3668140411376953,0.3521999359130859
0.3668140411376953,0.3521999359130859
0.3590017318725586,0.3425817489624023
0.3590017318725586,0.3425817489624023
0.3679103851318359,0.3481212615966797
0.3679103851318359,0.3481212615966797
0.3590394973754883,0.3479490280151367
0.3590394973754883,0.3479490280151367
0.3625070571899414,0.3426601409912109
0.3625070571899414,0.3426601409912109
0.3657463073730469,0.3504072189331054
0.3657463073730469,0.3504072189331054
0.3580656051635742,0.3408416748046875
0.3580656051635742,0.3408416748046875
0.3670961380004883,0.3467531204223633
0.3670961380004883,0.3467531204223633
0.3583889007568359,0.3469453811645508
0.3583889007568359,0.3469453811645508
0.3621757507324219,0.3421760559082031
0.3621757507324219,0.3421760559082031
0.3654928207397461,0.3499614715576172
0.3654928207397461,0.3499614715576172
0.3580484390258789,0.3408262252807617
0.3580484390258789,0.3408262252807617
0.3673364639282227,0.3471445083618164
0.3673364639282227,0.3471445083618164
0.3586864471435547,0.3477029800415039
0.3586864471435547,0.3477029800415039
0.3626695632934570,0.3429342269897461
0.3626695632934570,0.3429342269897461
0.3661348342895508,0.3510972976684570
0.3661348342895508,0.3510972976684570
0.3586526870727539,0.3420879364013672
0.3586526870727539,0.3420879364013672
0.3679670333862304,0.3485933303833008
0.3679670333862304,0.3485933303833008
0.3594091415405273,0.3488405227661133
0.3594091415405273,0.3488405227661133
0.3634368896484375,0.3442708969116211
0.3634368896484375,0.3442708969116211
0.3668180465698242,0.3523761749267578
0.3668180465698242,0.3523761749267578
0.3594915390014649,0.3434114456176758
0.3594915390014649,0.3434114456176758
0.3686553955078125,0.3496204376220703
0.3686553955078125,0.3496204376220703
0.3598846435546875,0.3499317169189453
0.3598846435546875,0.3499317169189453
0.3639833450317383,0.3452339172363281
0.3639833450317383,0.3452339172363281
0.3673227310180664,0.3533981323242187
0.3675081253051758,0.3533981323242187
0.3598354339599609,0.3440654754638672
0.3598354339599609,0.3440654754638672
0.3691154479980469,0.3503597259521484
0.3691154479980469,0.3503597259521484
0.3603784561157227,0.3506137847900391
0.3603784561157227,0.3506137847900391
0.3643667221069336,0.3459886550903320
0.3643667221069336,0.3459886550903320
0.3676734924316406,0.3539485931396484
0.3676734924316406,0.3539485931396484
0.3602474212646484,0.3446754455566406
0.3602474212646484,0.3446754455566406
0.3693929672241211,0.3510446548461914
0.3693929672241211,0.3510446548461914
0.3606479644775391,0.3515550613403320
0.3606479644775391,0.3515550613403320
0.3647529602050781,0.3466501235961914
0.3647529602050781,0.3466501235961914
0.3680419921875000,0.3546804428100586
0.3680419921875000,0.3546804428100586
0.3605930328369141,0.3455669403076172
0.3605930328369141,0.3455669403076172
0.3697969436645508,0.3521289825439453
0.3697969436645508,0.3521289825439453
0.3610204696655273,0.3522474288940430
0.3610204696655273,0.3522474288940430
0.3652450561523438,0.3476045608520508
0.3652450561523438,0.3476045608520508
0.3685483932495117,0.3557687759399414
0.3685483932495117,0.3557687759399414
0.3611463546752929,0.3467119216918945
0.3611463546752929,0.3467119216918945
0.3704841613769531,0.3530977249145508
0.3704841613769531,0.3530977249145508
0.3616092681884766,0.3533311843872070
0.3616092681884766,0.3533311843872070
0.3659259796142578,0.3487283706665039
0.3659259796142578,0.3487283706665039
0.3689592361450195,0.3569904327392578
0.3689592361450195,0.3569904327392578
0.3617231369018555,0.3476177215576172
0.3617231369018555,0.3476177215576172
0.3708618164062500,0.3538461685180664
0.3708618164062500,0.3538461685180664
0.3619588851928711,0.3538696289062500
0.3619588851928711,0.3538696289062500
0.3660867691040039,0.3491884231567383
0.3660867691040039,0.3491884231567383
0.3690828323364257,0.3567300796508789
0.3690828323364257,0.3567300796508789
0.3613477706909179,0.3470838546752930
0.3613477706909179,0.3470838546752930
0.3704504013061523,0.3530319213867187
0.3704504013061523,0.3530319213867187
0.3612550735473632,0.3528482437133789
0.3612550735473632,0.3528482437133789
0.3652959823608398,0.3476543426513672
0.3652959823608398,0.3476543426513672
0.3680334091186523,0.3548955917358398
0.3680334091186523,0.3548955917358398
0.3604728698730469,0.3454833984375000
0.3604728698730469,0.3454833984375000
0.3695623397827149,0.3516454696655273
0.3695623397827149,0.3516454696655273
0.3603876113891601,0.3513198852539062
0.3603876113891601,0.3513198852539062
0.3645807266235351,0.3464595794677734
0.3645807266235351,0.3464595794677734
0.3675613403320312,0.3542879104614258
0.3675613403320312,0.3542879104614258
0.3601106643676757,0.3450445175170898
0.3601106643676757,0.3450445175170898
0.3693706512451172,0.3511539459228515
0.3693706512451172,0.3511539459228515
0.3603492736816406,0.3513656616210937
0.3603492736816406,0.3513656616210937
0.3647460937500000,0.3466638565063476
0.3647460937500000,0.3466638565063476
0.3678205490112305,0.3549413681030273
0.3678205490112305,0.3549413681030273
0.3604293823242187,0.3455686569213867
0.3604293823242187,0.3455686569213867
0.3698095321655273,0.3520093917846679
0.3698095321655273,0.3520093917846679
0.3609460830688476,0.3522445678710938
0.3609460830688476,0.3522445678710938
0.3653760910034179,0.3477190017700195
0.3653760910034179,0.3477190017700195
0.3682863235473633,0.3557733535766601
0.3682863235473633,0.3557733535766601
0.3610279083251953,0.3465545654296875
0.3610279083251953,0.3465545654296875
0.3703845977783203,0.3529832839965820
0.3703845977783203,0.3529832839965820
0.3613809585571289,0.3532945632934570
0.3613809585571289,0.3532945632934570
0.3659082412719726,0.3485338211059570
0.3659082412719726,0.3485338211059570
0.3688013076782227,0.3566499710083008
0.3688013076782227,0.3566499710083008
0.3615560531616211,0.3473682403564453
0.3615560531616211,0.3473682403564453
0.3707868576049805,0.3540161132812500
0.3707868576049805,0.3540161132812500
0.3617969512939453,0.3539257049560547
0.3617969512939453,0.3539257049560547
0.3662658691406250,0.3493246078491211
0.3662658691406250,0.3493246078491211
0.3691726684570312,0.3573972702026367
0.3691726684570312,0.3573972702026367
0.3619171142578125,0.3482980728149414
0.3619171142578125,0.3482980728149414
0.3711393356323242,0.3545505523681641
0.3711393356323242,0.3545505523681641
0.3621419906616211,0.3548131942749023
0.3621419906616211,0.3548131942749023
0.3667734146118164,0.3501600265502929
0.3667734146118164,0.3501600265502929
0.3696647644042969,0.3584684371948242
0.3696647644042969,0.3584684371948242
0.3623273849487305,0.3491369247436523
0.3623273849487305,0.3491369247436523
0.3716508865356445,0.3556011199951172
0.3716508865356445,0.3556011199951172
0.3626049041748047,0.3557590484619140
0.3626049041748047,0.3557590484619140
0.3673318862915039,0.3514709472656250
0.3673318862915039,0.3514709472656250
0.3701963424682617,0.3594623565673828
0.3701963424682617,0.3594623565673828
0.3630088806152343,0.3502223968505859
0.3630088806152343,0.3502223968505859
0.3723678588867188,0.3567878723144531
0.3723678588867188,0.3567878723144531
0.3633213043212891,0.3571472167968750
0.3633213043212891,0.3571472167968750
0.3679744720458984,0.3525329589843750
0.3679744720458984,0.3525329589843750
0.3708755493164063,0.3607126235961914
0.3708755493164063,0.3607126235961914
0.3637699127197265,0.3515132904052734
0.3637699127197265,0.3515132904052734
0.3730625152587890,0.3583557128906250
0.3730625152587890,0.3583557128906250
0.3639381408691406,0.3583253860473632
0.3639381408691406,0.3583253860473632
0.3686634063720703,0.3536533355712890
0.3686634063720703,0.3536533355712890
0.3714288711547851,0.3616756439208984
0.3714288711547851,0.3616756439208984
0.3640531539916992,0.3523681640625000
0.3640531539916992,0.3523681640625000
0.3731843948364258,0.3584569931030273
0.3731843948364258,0.3584569931030273
0.3638174057006836,0.3582080841064453
0.3638174057006836,0.3582080841064453
0.3683189392089843,0.3532155990600586
0.3683189392089843,0.3532155990600586
0.3708675384521484,0.3609764099121094
0.3708675384521484,0.3609764099121094
0.3634225845336914,0.3511837005615234
0.3634225845336914,0.3511837005615234
0.3724565505981445,0.3571477890014648
0.3654676437377929,0.3571477890014648
0.3629230499267578,0.3566757202148437
0.3629230499267578,0.3566757202148437
0.3674674987792969,0.3518417358398437
0.3674674987792969,0.3518417358398437
0.3700138092041015,0.3593427658081055
0.3700138092041015,0.3593427658081055
0.3665777206420898,0.3592535018920898
0.3665777206420898,0.3592535018920898
0.3665777206420898,0.3581359863281250
0.3645051956176757,0.3499671936035156
0.3645051956176757,0.3499671936035156
0.3713487625122070,0.3578453063964844
0.3713487625122070,0.3578453063964844
0.3614833831787109,0.3521347045898438
0.3614833831787109,0.3521347045898438
0.3700538635253906,0.3525455474853516
0.3700538635253906,0.3525455474853516
0.3663328170776367,0.3578046798706054
0.3663328170776367,0.3578046798706054
0.3643844604492187,0.3498281478881836
0.3643844604492187,0.3498281478881836
0.3713144302368164,0.3578681945800781
0.3713144302368164,0.3578681945800781
0.3616378784179687,0.3522565841674805
0.3616378784179687,0.3522565841674805
0.3702987670898437,0.3530605316162109
0.3702987670898437,0.3530605316162109
0.3665079116821289,0.3584300994873047
0.3665079116821289,0.3584300994873047
0.3646402359008789,0.3503837585449219
0.3646402359008789,0.3503837585449219
0.3718088150024414,0.3583734512329101
0.3718088150024414,0.3583734512329101
0.3621007919311524,0.3530931472778320
0.3621007919311524,0.3530931472778320
0.3707439422607422,0.3538341522216797
0.3707439422607422,0.3538341522216797
0.3668655395507812,0.3591024398803711
0.3668655395507812,0.3591024398803711
0.3651660919189453,0.3509525299072265
0.3625476837158203,0.3509525299072265
0.3720823287963867,0.3591854095458984
0.3720823287963867,0.3591854095458984
0.3623760223388672,0.3536590576171875
0.3623760223388672,0.3536590576171875
0.3710031509399414,0.3544366836547851
0.3710031509399414,0.3544366836547851
0.3671848297119141,0.3595813751220703
0.3671848297119141,0.3595813751220703
0.3654464721679687,0.3515350341796875
0.3654464721679687,0.3515350341796875
0.3724027633666992,0.3597627639770508
0.3682966232299805,0.3597627639770508
0.3626232147216797,0.3541534423828125
0.3626232147216797,0.3541534423828125
0.3713029861450195,0.3548538208007813
0.3713029861450195,0.3548538208007813
0.3674234390258789,0.3601289749145508
0.3674234390258789,0.3601289749145508
0.3656976699829101,0.3522937774658203
0.3656976699829101,0.3522937774658203
0.3725618362426757,0.3604070663452149
0.3725618362426757,0.3604070663452149
0.3630472183227539,0.3546936035156250
0.3630472183227539,0.3546936035156250
0.3717538833618164,0.3555896759033203
0.3717538833618164,0.3555896759033203
0.3678176879882812,0.3609123229980469
0.3678176879882812,0.3609123229980469
0.3660781860351562,0.3530347824096680
0.3660781860351562,0.3530347824096680
0.3731557846069336,0.3611806869506836
0.3691400527954101,0.3611806869506836
0.3634386062622070,0.3556468963623047
0.3634386062622070,0.3556468963623047
0.3722888946533203,0.3566362380981445
0.3722888946533203,0.3566362380981445
0.3682479858398438,0.3618827819824219
0.3682479858398438,0.3618827819824219
0.3667139053344726,0.3536865234375000
0.3667139053344726,0.3536865234375000
0.3735557556152344,0.3621168136596680
0.3735557556152344,0.3621168136596680
0.3638935089111328,0.3564771652221679
0.3638935089111328,0.3564771652221679
0.3725612640380859,0.3571918487548828
0.3725612640380859,0.3571918487548828
0.3684991836547851,0.3620933532714843
0.3684991836547851,0.3620933532714843
0.3666973114013672,0.3539474487304687
0.3666973114013672,0.3539474487304687
0.3734607696533203,0.3618587493896484
0.3734607696533203,0.3618587493896484
0.3635341644287109,0.3557310104370117
0.3635341644287109,0.3557310104370117
0.3720296859741211,0.3560096740722656
0.3720296859741211,0.3560096740722656
0.3675991058349609,0.3608562469482422
0.3675991058349609,0.3608562469482422
0.3658138275146484,0.3522777557373047
0.3658138275146484,0.3522777557373047
0.3722654342651367,0.3600688934326172
0.3722654342651367,0.3600688934326172
0.3625041961669922,0.3537460327148437
0.3625041961669922,0.3537460327148437
0.3709739685058593,0.3542970657348632
0.3709739685058593,0.3542970657348632
0.3666137695312500,0.3590229034423828
0.3666137695312500,0.3590229034423828
0.3647312164306640,0.3506584167480469
0.3647312164306640,0.3506584167480469
0.3714677810668945,0.3584129333496094
0.3714677810668945,0.3584129333496094
0.3616802215576172,0.3524848937988281
0.3616802215576172,0.3524848937988281
0.3703697204589844,0.3532562255859375
0.3703697204589844,0.3532562255859375
0.3660633087158203,0.3583156585693359
0.3660633087158203,0.3583156585693359
0.3645246505737305,0.3501760482788086
0.3645246505737305,0.3501760482788086
0.3713596343994141,0.3584255218505859
0.3713596343994141,0.3584255218505859
0.3617603302001953,0.3526399612426758
0.3617603302001953,0.3526399612426758
0.3704183578491211,0.3535783767700195
0.3704183578491211,0.3535783767700195
0.3663568496704102,0.3586200714111328
0.3663568496704102,0.3586200714111328
0.3649080276489258,0.3507986068725586
0.3649080276489258,0.3507986068725586
0.3718288421630859,0.3592369079589844
0.3718288421630859,0.3592369079589844
0.3622850418090820,0.3535537719726562
0.3622850418090820,0.3535537719726562
0.3712200164794922,0.3545230865478515
0.3712200164794922,0.3545230865478515
0.3669462203979492,0.3598875045776367
0.3669462203979492,0.3598875045776367
0.3655986785888672,0.3520133972167969
0.3655986785888672,0.3520133972167969
0.3724096298217773,0.3603446960449219
0.3724096298217773,0.3603446960449219
0.3628744125366211,0.3545705795288086
0.3628744125366211,0.3545705795288086
0.3717201232910156,0.3557086944580078
0.3717201232910156,0.3557086944580078
0.3673942565917969,0.3608602523803711
0.3673942565917969,0.3608602523803711
0.3659791946411133,0.3528499603271484
0.3659791946411133,0.3528499603271484
0.3728931427001953,0.3611658096313476
0.3728931427001953,0.3611658096313476
0.3633430480957031,0.3553476333618164
0.3633430480957031,0.3553476333618164
0.3720708847045898,0.3564662933349609
0.3720708847045898,0.3564662933349609
0.3677392959594726,0.3615875244140625
0.3677392959594726,0.3615875244140625
0.3664220809936523,0.3534107208251953
0.3664220809936523,0.3534107208251953
0.3732633590698242,0.3619503021240234
0.3732633590698242,0.3619503021240234
0.3638168334960937,0.3560771942138672
0.3638168334960937,0.3560771942138672
0.3724765777587891,0.3571151733398437
0.3724765777587891,0.3571151733398437
0.3682085037231445,0.3622215270996094
0.3682085037231445,0.3622215270996094
0.3667842864990234,0.3542970657348632
0.3667842864990234,0.3542970657348632
0.3736759185791015,0.3627473831176758
0.3736759185791015,0.3627473831176758
0.3640846252441406,0.3567787170410156
0.3640846252441406,0.3567787170410156
0.3730075836181641,0.3578063964843750
0.3730075836181641,0.3578063964843750
0.3685798645019531,0.3631101608276367
0.3685798645019531,0.3631101608276367
0.3673719406127929,0.3551828384399414
0.3673719406127929,0.3551828384399414
0.3741090774536133,0.3636783599853515
0.3741090774536133,0.3636783599853515
0.3646631240844727,0.3576124191284180
0.3646631240844727,0.3576124191284180
0.3735597610473633,0.3589845657348633
0.3735597610473633,0.3589845657348633
0.3691411972045898,0.3641527175903320
0.3691411972045898,0.3641527175903320
0.3678754806518554,0.3561189651489258
0.3678754806518554,0.3561189651489258
0.3746297836303711,0.3644365310668945
0.3746297836303711,0.3644365310668945
0.3651397705078125,0.3584712982177734
0.3651397705078125,0.3584712982177734
0.3739082336425781,0.3595676422119141
0.3739082336425781,0.3595676422119141
0.3692155838012695,0.3644388198852539
0.3692155838012695,0.3644388198852539
0.3678108215332031,0.3560279846191406
0.3678108215332031,0.3560279846191406
0.3744146347045899,0.3641658782958984
0.3744146347045899,0.3641658782958984
0.3646739959716797,0.3576828002929687
0.3729148864746094,0.3576828002929687
0.3730590820312500,0.3582784652709961
0.3730590820312500,0.3582784652709961
0.3683423995971680,0.3627977371215820
0.3683423995971680,0.3627977371215820
0.3668071746826172,0.3544229507446289
0.3668071746826172,0.3544229507446289
0.3733045578002930,0.3622724533081055
0.3733045578002930,0.3622724533081055
0.3634534835815429,0.3556325912475586
0.3634534835815429,0.3556325912475586
0.3721172332763672,0.3563089370727539
0.3721172332763672,0.3563089370727539
0.3673582077026367,0.3610965728759766
0.3673582077026367,0.3610965728759766
0.3659311294555664,0.3526943206787109
0.3659311294555664,0.3526943206787109
0.3724720001220703,0.3609226226806641
0.3724720001220703,0.3609226226806641
0.3629133224487305,0.3544269561767578
0.3629133224487305,0.3544269561767578
0.3716062545776367,0.3555135726928711
0.3716062545776367,0.3555135726928711
0.3669485092163086,0.3604740142822265
0.3669485092163086,0.3604740142822265
0.3656822204589844,0.3524568557739258
0.3656822204589844,0.3524568557739258
0.3724828720092773,0.3607761383056641
0.3724828720092773,0.3607761383056641
0.3629207611083984,0.3547422409057617
0.3629207611083984,0.3547422409057617
0.3717842102050781,0.3560291290283203
0.3717842102050781,0.3560291290283203
0.3671751022338867,0.3610353469848633
0.3671751022338867,0.3610353469848633
0.3661989212036132,0.3528934478759765
0.3661989212036132,0.3528934478759765
0.3728691101074219,0.3617523193359375
0.3728691101074219,0.3617523193359375
0.3634546279907226,0.3556674957275390
0.3634546279907226,0.3556674957275390
0.3723117828369141,0.3570144653320312
0.3642396926879883,0.3570144653320312
0.3677593231201172,0.3619623184204102
0.3677593231201172,0.3619623184204102
0.3667333602905273,0.3541574478149414
0.3667333602905273,0.3541574478149414
0.3735282897949219,0.3626873016357422
0.3735282897949219,0.3626873016357422
0.3639358520507812,0.3564588546752930
0.3639358520507812,0.3564588546752930
0.3727769851684570,0.3576009750366211
0.3727769851684570,0.3576009750366211
0.3681655883789062,0.3626535415649414
0.3681655883789062,0.3626535415649414
0.3671190261840820,0.3546735763549805
0.3671190261840820,0.3546735763549805
0.3737033843994140,0.3632326126098633
0.3737033843994140,0.3632326126098633
0.3642631530761719,0.3568508148193359
0.3642631530761719,0.3568508148193359
0.3729915618896484,0.3582738876342773
0.3729915618896484,0.3582738876342773
0.3684659957885742,0.3632280349731445
0.3684659957885742,0.3632280349731445
0.3672683715820312,0.3551845550537109
0.3672683715820312,0.3551845550537109
0.3740810394287109,0.3638305664062500
0.3740810394287109,0.3638305664062500
0.3647037506103515,0.3576038360595703
0.3647037506103515,0.3576038360595703
0.3734590530395508,0.3590360641479492
0.3734590530395508,0.3590360641479492
0.3687990188598633,0.3639421463012695
0.3687990188598633,0.3639421463012695
0.3677850723266601,0.3557962417602539
0.3643312454223633,0.3557962417602539
0.3744689941406250,0.3647397994995117
0.3744689941406250,0.3647397994995117
0.3651683807373047,0.3584907531738281
0.3651683807373047,0.3584907531738281
0.3738693237304687,0.3599109649658203
0.3738693237304687,0.3599109649658203
0.3692825317382812,0.3648588180541992
0.3692825317382812,0.3648588180541992
0.3682954788208008,0.3571735382080078
0.3682954788208008,0.3571735382080078
0.3750761032104492,0.3659809112548828
0.3715221405029297,0.3659809112548828
0.3657159805297852,0.3596014022827148
0.3657159805297852,0.3596014022827148
0.3746469497680664,0.3611423492431641
0.3746469497680664,0.3611423492431641
0.3699216842651367,0.3662160873413086
0.3699216842651367,0.3662160873413086
0.3690954208374023,0.3584741592407226
0.3690954208374023,0.3584741592407226
0.3755887985229492,0.3671831130981445
0.3755887985229492,0.3671831130981445
0.3663997650146484,0.3606840133666992
0.3744935989379883,0.3606840133666992
0.3751573562622070,0.3621591567993164
0.3751573562622070,0.3621591567993164
0.3762645721435547,0.3655569076538086
0.3762645721435547,0.3655569076538086
0.3762645721435547,0.3655351638793945
0.3663528442382812,0.3644920349121094
0.3663528442382812,0.3644920349121094
0.3718986511230469,0.3596420288085938
0.3718986511230469,0.3596420288085938
0.3728542327880859,0.3662012100219726
0.3728542327880859,0.3662012100219726
0.3655694961547851,0.3549339294433594
0.3655694961547851,0.3549339294433594
0.3736650466918945,0.3608499526977539
0.3736650466918945,0.3608499526977539
0.3632635116577148,0.3590143203735351
0.3730865478515625,0.3590143203735351
0.3687366485595703,0.3541597366333007
0.3687366485595703,0.3541597366333007
0.3699314117431641,0.3610393524169922
0.3699314117431641,0.3610393524169922
0.3633316040039062,0.3507305145263672
0.3633316040039062,0.3507305145263672
0.3718969345092774,0.3577074050903320
0.3718969345092774,0.3577074050903320
0.3619171142578125,0.3567558288574219
0.3619171142578125,0.3567558288574219
0.3676420211791992,0.3523069381713867
0.3676420211791992,0.3523069381713867
0.3693031311035156,0.3600002288818359
0.3693031311035156,0.3600002288818359
0.3629419326782227,0.3502864837646484
0.3629419326782227,0.3502864837646484
0.3718660354614258,0.3578544616699219
0.3718660354614258,0.3578544616699219
0.3621482849121094,0.3570436477661132
0.3621482849121094,0.3570436477661132
0.3680940628051758,0.3532430648803711
0.3680940628051758,0.3532430648803711
0.3698959350585938,0.3612693786621093
0.3698959350585938,0.3612693786621093
0.3637670516967773,0.3518823623657226
0.3637670516967773,0.3518823623657226
0.3727014541625976,0.3594017028808594
0.3727014541625976,0.3594017028808594
0.3631021499633789,0.3588237762451172
0.3631021499633789,0.3588237762451172
0.3691251754760742,0.3549945831298828
0.3691251754760742,0.3549945831298828
0.3707777023315429,0.3630947113037109
0.3707777023315429,0.3630947113037109
0.3646413803100586,0.3533798217773437
0.3646413803100586,0.3533798217773437
0.3736330032348633,0.3610044479370117
0.3736330032348633,0.3610044479370117
0.3639438629150391,0.3602411270141602
0.3639438629150391,0.3602411270141602
0.3699623107910156,0.3565452575683594
0.3699623107910156,0.3565452575683594
0.3715616226196289,0.3642751693725586
0.3715616226196289,0.3642751693725586
0.3654424667358399,0.3545305252075195
0.3654424667358399,0.3545305252075195
0.3741468429565429,0.3620229721069336
0.3741468429565429,0.3620229721069336
0.3644948959350586,0.3614444732666016
0.3644948959350586,0.3614444732666016
0.3705179214477539,0.3574882507324219
0.3705179214477539,0.3574882507324219
0.3720302581787109,0.3651741027832031
0.3720302581787109,0.3651741027832031
0.3658349990844726,0.3554294586181641
0.3688745498657227,0.3554294586181641
0.3745983123779297,0.3631193161010742
0.3745983123779297,0.3631193161010742
0.3648942947387695,0.3621185302734375
0.3648942947387695,0.3621185302734375
0.3710311889648437,0.3582893371582031
0.3710311889648437,0.3582893371582031
0.3724800109863281,0.3659608840942383
0.3724800109863281,0.3659608840942383
0.3662395477294922,0.3564474105834961
0.3662395477294922,0.3564474105834961
0.3751476287841797,0.3638917922973633
0.3751476287841797,0.3638917922973633
0.3653600692749023,0.3629957199096679
0.3653600692749023,0.3629957199096679
0.3714363098144531,0.3592203140258789
0.3714363098144531,0.3592203140258789
0.3729509353637695,0.3671991348266602
0.3729509353637695,0.3671991348266602
0.3668970108032226,0.3573148727416992
0.3668970108032226,0.3573148727416992
0.3757095336914062,0.3649641036987304
0.3757095336914062,0.3649641036987304
0.3659671783447265,0.3640743255615234
0.3659671783447265,0.3640743255615234
0.3720645904541016,0.3605718612670898
0.3720645904541016,0.3605718612670898
0.3736564636230469,0.3682491302490234
0.3736564636230469,0.3682491302490234
0.3675733566284179,0.3585422515869141
0.3675733566284179,0.3585422515869141
0.3762800216674805,0.3662338256835938
0.3699211120605468,0.3662338256835938
0.3666938781738281,0.3654453277587891
0.3666938781738281,0.3654453277587891
0.3727128982543945,0.3615423202514648
0.3662715911865234,0.3615423202514648
0.3741165161132812,0.3691532135009766
0.3741165161132812,0.3691532135009766
0.3680059432983399,0.3593152999877929
0.3680059432983399,0.3593152999877929
0.3766113281250000,0.3669548034667969
0.3766113281250000,0.3669548034667969
0.3667310714721679,0.3655220031738281
0.3667310714721679,0.3655220031738281
0.3724153518676758,0.3611068725585938
0.3724153518676758,0.3611068725585938
0.3734561920166016,0.3680580139160156
0.3734561920166016,0.3680580139160156
0.3669038772583008,0.3575420379638672
0.3669038772583008,0.3575420379638672
0.3751018524169922,0.3641921997070313
0.3751018524169922,0.3641921997070313
0.3650173187255859,0.3623456954956055
0.3650173187255859,0.3623456954956055
0.3706077575683593,0.3579694747924805
0.3706077575683593,0.3579694747924805
0.3717092514038086,0.3652559280395508
0.3717092514038086,0.3652559280395508
0.3655048370361328,0.3546947479248047
0.3655048370361328,0.3546947479248047
0.3739614486694336,0.3620344161987304
0.3739614486694336,0.3620344161987304
0.3639856338500976,0.3606204986572266
0.3639856338500976,0.3606204986572266
0.3698444366455078,0.3568347930908203
0.3698444366455078,0.3568347930908203
0.3711078643798828,0.3640319824218750
0.3711078643798828,0.3640319824218750
0.3651615142822265,0.3541122436523437
0.3651615142822265,0.3541122436523437
0.3736387252807617,0.3617906570434570
0.3736387252807617,0.3617906570434570
0.3639181137084961,0.3607143402099609
0.3740764617919922,0.3607143402099609
0.3700023651123047,0.3568416595458984
0.3700023651123047,0.3568416595458984
0.3713212966918945,0.3645606994628906
0.3713212966918945,0.3645606994628906
0.3654315948486328,0.3547496795654297
0.3654315948486328,0.3547496795654297
0.3740861892700195,0.3626071929931641
0.3740861892700195,0.3626071929931641
0.3643798828125000,0.3614192962646484
0.3643798828125000,0.3614192962646484
0.3705322265625000,0.3577634811401367
0.3705322265625000,0.3577634811401367
0.3719369888305664,0.3654951095581054
0.3719369888305664,0.3654951095581054
0.3660718917846680,0.3560091018676758
0.3660718917846680,0.3560091018676758
0.3746898651123047,0.3636703491210938
0.3746898651123047,0.3636703491210938
0.3650012969970703,0.3624406814575195
0.3650012969970703,0.3624406814575195
0.3711719512939453,0.3588798522949219
0.3711719512939453,0.3588798522949219
0.3724428176879883,0.3667516708374023
0.3724428176879883,0.3667516708374023
0.3666114807128906,0.3567632675170898
0.3666114807128906,0.3567632675170898
0.3751836776733398,0.3644937515258789
0.3751836776733398,0.3644937515258789
0.3654315948486328,0.3633012771606445
0.3654315948486328,0.3633012771606445
0.3715444564819336,0.3597936630249023
0.3715444564819336,0.3597936630249023
0.3727569580078125,0.3672489166259765
0.3727569580078125,0.3672489166259765
0.3668598175048828,0.3574401855468750
0.3668598175048828,0.3574401855468750
0.3754463195800781,0.3650911331176758
0.3754463195800781,0.3650911331176758
0.3658092498779297,0.3640439987182617
0.3658092498779297,0.3640439987182617
0.3718391418457031,0.3602245330810547
0.3718391418457031,0.3602245330810547
0.3731517791748047,0.3679407119750976
0.3731517791748047,0.3679407119750976
0.3673284530639648,0.3580850601196289
0.3673284530639648,0.3580850601196289
0.3758605957031250,0.3660884857177734
0.3758605957031250,0.3660884857177734
0.3662607192993164,0.3646047592163086
0.3662607192993164,0.3646047592163086
0.3723312377929687,0.3610393524169922
0.3723312377929687,0.3610393524169922
0.3735374450683593,0.3687692642211914
0.3735374450683593,0.3687692642211914
0.3678268432617187,0.3590921401977539
0.3678268432617187,0.3590921401977539
0.3763166427612304,0.3669342041015625
0.3763166427612304,0.3669342041015625
0.3667722702026367,0.3656576156616211
0.3667722702026367,0.3656576156616211
0.3728628158569336,0.3621883392333984
0.3728628158569336,0.3621883392333984
0.3740375518798828,0.3699497222900390
0.3740375518798828,0.3699497222900390
0.3683012008666992,0.3599086761474609
0.3683012008666992,0.3599086761474609
0.3768550872802734,0.3678194046020508
0.3768550872802734,0.3678194046020508
0.3671779632568359,0.3663139343261719
0.3671779632568359,0.3663139343261719
0.3731786727905274,0.3628211975097656
0.3731786727905274,0.3628211975097656
0.3740982055664062,0.3699783325195312
0.3740982055664062,0.3699783325195312
0.3682748794555664,0.3598445892333984
0.3682748794555664,0.3598445892333984
0.3765707015991211,0.3673049926757813
0.3765707015991211,0.3673049926757813
0.3664220809936523,0.3651346206665039
0.3664220809936523,0.3651346206665039
0.3720153808593750,0.3605266571044922
0.3720153808593750,0.3605266571044922
0.3725870132446289,0.3672809600830078
0.3725870132446289,0.3672809600830078
0.3664690017700195,0.3565469741821289
0.3664690017700195,0.3565469741821289
0.3744747161865234,0.3638906478881836
0.3744747161865234,0.3638906478881836
0.3645097732543945,0.3616201400756836
0.3645097732543945,0.3616201400756836
0.3703319549560547,0.3576112747192383
0.3703319549560547,0.3576112747192383
0.3711118698120117,0.3646259307861328
0.3711118698120117,0.3646259307861328
0.3652244567871094,0.3545104980468750
0.3652244567871094,0.3545104980468750
0.3734704971313477,0.3619960784912109
0.3734704971313477,0.3619960784912109
0.3636217117309570,0.3601455688476562
0.3736639022827148,0.3601455688476562
0.3696624755859375,0.3564365386962891
0.3696624755859375,0.3564365386962891
0.3706398010253906,0.3640136718750000
0.3706398010253906,0.3640136718750000
0.3649732589721680,0.3539909362792968
0.3649732589721680,0.3539909362792968
0.3734035491943359,0.3618455886840820
0.3734035491943359,0.3618455886840820
0.3638042449951172,0.3602903366088867
0.3638042449951172,0.3602903366088867
0.3699337005615234,0.3570213317871094
0.3699337005615234,0.3570213317871094
0.3710123062133789,0.3644920349121094
0.3710123062133789,0.3644920349121094
0.3653480529785156,0.3547182083129883
0.3653480529785156,0.3547182083129883
0.3738750457763672,0.3627874374389649
0.3738750457763672,0.3627874374389649
0.3643518447875976,0.3614850997924804
0.3643518447875976,0.3614850997924804
0.3704950332641602,0.3580244064331055
0.3704950332641602,0.3580244064331055
0.3715158462524414,0.3655672073364258
0.3715158462524414,0.3655672073364258
0.3660902023315429,0.3558437347412109
0.3660902023315429,0.3558437347412109
0.3745021820068359,0.3640634536743164
0.3745021820068359,0.3640634536743164
0.3649480819702148,0.3623743057250977
0.3649480819702148,0.3623743057250977
0.3710535049438476,0.3590091705322265
0.3710535049438476,0.3590091705322265
0.3720588684082031,0.3665536880493164
0.3720588684082031,0.3665536880493164
0.3664335250854492,0.3567798614501953
0.3664335250854492,0.3567798614501953
0.3748249053955078,0.3645933151245117
0.3748249053955078,0.3645933151245117
0.3652364730834961,0.3630208969116211
0.3652364730834961,0.3630208969116211
0.3713613510131836,0.3596031188964844
0.3713613510131836,0.3596031188964844
0.3723592758178711,0.3672145843505859
0.3723592758178711,0.3672145843505859
0.3668186187744141,0.3572027206420899
0.3668186187744141,0.3572027206420899
0.3750938415527343,0.3651832580566406
0.3750938415527343,0.3651832580566406
0.3655975341796875,0.3635622024536133
0.3655975341796875,0.3635622024536133
0.3716915130615234,0.3604139328002929
0.3716915130615234,0.3604139328002929
0.3726551055908203,0.3677095413208007
0.3726551055908203,0.3677095413208007
0.3694107055664063,0.3665496826171875
0.3694107055664063,0.3665496826171875
0.3691595077514648,0.3590131759643554
0.3651912689208984,0.3590131759643554
0.3752300262451172,0.3679962158203125
0.3752300262451172,0.3679962158203125
0.3664587020874023,0.3605844497680664
0.3664587020874023,0.3605844497680664
0.3748334884643554,0.3631164550781250
0.3748334884643554,0.3631164550781250
0.3698152542114257,0.3676054000854492
0.3698152542114257,0.3676054000854492
0.3696802139282226,0.3598566055297852
0.3696802139282226,0.3598566055297852
0.3757072448730469,0.3690118789672852
0.3757072448730469,0.3690118789672852
0.3669942855834961,0.3613054275512695
0.3669942855834961,0.3613054275512695
0.3753101348876953,0.3642803192138672
0.3753101348876953,0.3642803192138672
0.3704378128051758,0.3685003280639648
0.3704378128051758,0.3685003280639648
0.3700378417968750,0.3606794357299805
0.3700378417968750,0.3606794357299805
0.3760271072387695,0.3696287155151367
0.3760271072387695,0.3696287155151367
0.3673301696777344,0.3619462966918945
0.3673301696777344,0.3619462966918945
0.3754674911499024,0.3644159317016601
0.3754674911499024,0.3644159317016601
0.3698375701904297,0.3674343109130859
0.3698375701904297,0.3674343109130859
0.3685672760009766,0.3573743820190430
0.3685672760009766,0.3573743820190430
0.3730665206909179,0.3640039443969726
0.3730665206909179,0.3640039443969726
0.3629447937011719,0.3535743713378906
0.3629447937011719,0.3535743713378906
0.3697076797485351,0.3539966583251953
0.3697076797485351,0.3539966583251953
0.3638528823852539,0.3563610076904297
0.3638528823852539,0.3563610076904297
0.3629545211791992,0.3475690841674804
0.3629545211791992,0.3475690841674804
0.3684368133544922,0.3558048248291015
0.3684368133544922,0.3558048248291015
0.3593381881713867,0.3472475051879882
0.3593381881713867,0.3472475051879882
0.3672677993774414,0.3495323181152344
0.3680442810058593,0.3527074813842773
0.3616991043090820,0.3453523635864258
0.3616991043090820,0.3453523635864258
0.3674669265747070,0.3542936325073242
0.3674669265747070,0.3542936325073242
0.3589199066162109,0.3461677551269531
0.3589199066162109,0.3461677551269531
0.3671791076660156,0.3493194580078125
0.3671791076660156,0.3493194580078125
0.3620693206787109,0.3534725189208984
0.3620693206787109,0.3534725189208984
0.3618810653686523,0.3457637786865234
0.3618810653686523,0.3457637786865234
0.3680305480957031,0.3551187515258789
0.3680305480957031,0.3551187515258789
0.3594148635864258,0.3474575042724609
0.3594148635864258,0.3474575042724609
0.3680213928222656,0.3508501052856445
0.3680213928222656,0.3508501052856445
0.3629207611083984,0.3553070068359375
0.3629207611083984,0.3553070068359375
0.3630855560302734,0.3476303100585937
0.3630855560302734,0.3476303100585937
0.3691846847534180,0.3573606491088867
0.3691846847534180,0.3573606491088867
0.3607784271240234,0.3498693466186523
0.3607784271240234,0.3498693466186523
0.3690616607666016,0.3531555175781250
0.3690616607666016,0.3531555175781250
0.3642351150512695,0.3574985504150390
0.3642351150512695,0.3574985504150390
0.3643026351928711,0.3500925064086914
0.3643026351928711,0.3500925064086914
0.3703004837036133,0.3595956802368164
0.3703004837036133,0.3595956802368164
0.3617506027221680,0.3518354415893555
0.3617506027221680,0.3518354415893555
0.3702501296997070,0.3550947189331055
0.3702501296997070,0.3550947189331055
0.3652685165405273,0.3594337463378906
0.3652685165405273,0.3594337463378906
0.3652742385864258,0.3518989562988281
0.3652742385864258,0.3518989562988281
0.3711530685424805,0.3612636566162109
0.3711530685424805,0.3612636566162109
0.3627433776855469,0.3533317565917969
0.3627433776855469,0.3533317565917969
0.3710809707641601,0.3567764282226563
0.3710809707641601,0.3567764282226563
0.3660312652587890,0.3609197616577148
0.3660312652587890,0.3609197616577148
0.3659397125244140,0.3533506393432617
0.3659397125244140,0.3533506393432617
0.3719421386718750,0.3625688552856445
0.3719421386718750,0.3625688552856445
0.3634368896484375,0.3548578262329101
0.3634368896484375,0.3548578262329101
0.3717710494995117,0.3581726074218750
0.3717710494995117,0.3581726074218750
0.3666349411010742,0.3622083663940430
0.3666349411010742,0.3622083663940430
0.3666704177856445,0.3545190811157227
0.3666704177856445,0.3545190811157227
0.3726911544799805,0.3640171051025390
0.3726911544799805,0.3640171051025390
0.3642196655273438,0.3561355590820313
0.3642196655273438,0.3561355590820313
0.3724176406860352,0.3595487594604492
0.3724176406860352,0.3595487594604492
0.3673765182495117,0.3634906768798828
0.3673765182495117,0.3634906768798828
0.3675756454467773,0.3560943603515625
0.3675756454467773,0.3560943603515625
0.3734333038330078,0.3656787872314453
0.3734333038330078,0.3656787872314453
0.3650030136108398,0.3576564788818359
0.3650030136108398,0.3576564788818359
0.3733411788940429,0.3609031677246093
0.3733411788940429,0.3609031677246093
0.3682416915893554,0.3650939941406250
0.3682416915893554,0.3650939941406250
0.3682691574096680,0.3575975418090820
0.3682691574096680,0.3575975418090820
0.3741806030273437,0.3670228958129882
0.3741806030273437,0.3670228958129882
0.3657577514648437,0.3588666915893555
0.3657577514648437,0.3588666915893555
0.3739894866943359,0.3623989105224609
0.3739894866943359,0.3623989105224609
0.3688064575195312,0.3662544250488281
0.3688064575195312,0.3662544250488281
0.3687286376953125,0.3584278106689453
0.3645132064819336,0.3584278106689453
0.3744855880737304,0.3673965454101563
0.3744855880737304,0.3673965454101563
0.3658836364746094,0.3592185974121094
0.3658836364746094,0.3592185974121094
0.3738670349121094,0.3622192382812500
0.3738670349121094,0.3622192382812500
0.3684551239013672,0.3657039642333984
0.3684551239013672,0.3657039642333984
0.3683074951171875,0.3575483322143554
0.3683074951171875,0.3575483322143554
0.3738807678222656,0.3665645599365234
0.3738807678222656,0.3665645599365234
0.3651557922363281,0.3579437255859375
0.3651557922363281,0.3579437255859375
0.3730562210083008,0.3609214782714844
0.3730562210083008,0.3609214782714844
0.3677164077758789,0.3643140792846680
0.3677164077758789,0.3643140792846680
0.3675916671752930,0.3563896179199219
0.3675916671752930,0.3563896179199219
0.3732662200927734,0.3654870986938477
0.3732662200927734,0.3654870986938477
0.3645189285278320,0.3570728302001953
0.3714328765869140,0.3570728302001953
0.3727094650268555,0.3602222442626953
0.3727094650268555,0.3602222442626953
0.3674755096435547,0.3640193939208984
0.3674755096435547,0.3640193939208984
0.3674983978271484,0.3562746047973633
0.3674983978271484,0.3562746047973633
0.3732238769531250,0.3656192779541015
0.3732238769531250,0.3656192779541015
0.3647958755493164,0.3572067260742187
0.3647958755493164,0.3572067260742187
0.3729806900024414,0.3608442306518554
0.3729806900024414,0.3608442306518554
0.3678857803344727,0.3647226333618164
0.3678857803344727,0.3647226333618164
0.3679212570190429,0.3571420669555664
0.3679212570190429,0.3571420669555664
0.3737577438354492,0.3664592742919922
0.3737577438354492,0.3664592742919922
0.3654081344604492,0.3583122253417969
0.3654081344604492,0.3583122253417969
0.3735918045043945,0.3619194030761719
0.3735918045043945,0.3619194030761719
0.3683898925781250,0.3658166885375976
0.3683898925781250,0.3658166885375976
0.3685209274291992,0.3581468582153320
0.3685209274291992,0.3581468582153320
0.3743545532226563,0.3677101135253906
0.3743545532226563,0.3677101135253906
0.3658967971801758,0.3593502044677734
0.3658967971801758,0.3593502044677734
0.3741016387939453,0.3629859924316406
0.3741016387939453,0.3629859924316406
0.3688459396362305,0.3665685653686523
0.3688459396362305,0.3665685653686523
0.3689363479614258,0.3591384887695312
0.3689363479614258,0.3591384887695312
0.3747934341430664,0.3685054779052734
0.3747934341430664,0.3685054779052734
0.3662687301635742,0.3600780487060547
0.3662687301635742,0.3600780487060547
0.3744586944580078,0.3634809494018554
0.3744586944580078,0.3634809494018554
0.3691743850708007,0.3673896789550781
0.3691743850708007,0.3673896789550781
0.3693077087402344,0.3597450256347656
0.3693077087402344,0.3597450256347656
0.3749982833862305,0.3690891265869141
0.3722076416015625,0.3690891265869141
0.3665456771850586,0.3604940414428711
0.3665456771850586,0.3604940414428711
0.3747442245483398,0.3642894744873047
0.3747442245483398,0.3642894744873047
0.3694948196411132,0.3680648803710938
0.3694948196411132,0.3680648803710938
0.3695325851440430,0.3603057861328125
0.3695325851440430,0.3603057861328125
0.3754085540771484,0.3695823669433594
0.3754085540771484,0.3695823669433594
0.3669771194458007,0.3612676620483398
0.3669771194458007,0.3612676620483398
0.3751459121704102,0.3649795532226562
0.3751459121704102,0.3649795532226562
0.3698364257812500,0.3687057495117188
0.3698364257812500,0.3687057495117188
0.3699800491333008,0.3609786987304687
0.3699800491333008,0.3609786987304687
0.3757902145385742,0.3706037521362305
0.3757902145385742,0.3706037521362305
0.3674228668212891,0.3622140884399414
0.3674228668212891,0.3622140884399414
0.3755453109741211,0.3658956527709961
0.3755453109741211,0.3658956527709961
0.3703165054321289,0.3694547653198242
0.3703165054321289,0.3694547653198242
0.3705745697021484,0.3620286941528320
0.3705745697021484,0.3620286941528320
0.3762823104858398,0.3715335845947266
0.3762823104858398,0.3715335845947266
0.3677249908447265,0.3631359100341797
0.3677249908447265,0.3631359100341797
0.3761169433593750,0.3667825698852539
0.3761169433593750,0.3667825698852539
0.3707296371459961,0.3704772949218750
0.3707296371459961,0.3704772949218750
0.3709899902343750,0.3628944396972656
0.3709899902343750,0.3628944396972656
0.3765678405761719,0.3722831726074219
0.3765678405761719,0.3722831726074219
0.3680980682373047,0.3634277343750000
0.3748106002807617,0.3634277343750000
0.3762348175048828,0.3671802520751953
0.3762348175048828,0.3671802520751953
0.3708023071289062,0.3706335067749023
0.3708023071289062,0.3706335067749023
0.3707736968994140,0.3625219345092773
0.3707736968994140,0.3625219345092773
0.3763143539428711,0.3715856552124023
0.3763143539428711,0.3715856552124023
0.3676809310913086,0.3626701354980469
0.3676809310913086,0.3626701354980469
0.3756540298461914,0.3661628723144531
0.3756540298461914,0.3661628723144531
0.3699851989746094,0.3692573547363281
0.3699851989746094,0.3692573547363281
0.3700241088867187,0.3610090255737304
0.3700241088867187,0.3610090255737304
0.3755767822265625,0.3704624176025391
0.3755767822265625,0.3704624176025391
0.3668804168701172,0.3614004135131836
0.3668804168701172,0.3614004135131836
0.3749261856079101,0.3651140213012695
0.3669279098510742,0.3651140213012695
0.3693677902221680,0.3683246612548828
0.3693677902221680,0.3683246612548828
0.3696636199951172,0.3605409622192383
0.3696636199951172,0.3605409622192383
0.3752340316772461,0.3700069427490234
0.3752340316772461,0.3700069427490234
0.3667110443115234,0.3611829757690430
0.3667110443115234,0.3611829757690430
0.3749433517456054,0.3649927139282226
0.3749433517456054,0.3649927139282226
0.3695526123046875,0.3686594009399414
0.3695526123046875,0.3686594009399414
0.3697866439819336,0.3609546661376953
0.3697866439819336,0.3609546661376953
0.3755012512207031,0.3705585479736328
0.3755012512207031,0.3705585479736328
0.3669519424438477,0.3616378784179687
0.3669519424438477,0.3616378784179687
0.3752786636352539,0.3658246994018555
0.3752786636352539,0.3658246994018555
0.3764471054077148,0.3693803787231445
0.3704732894897461,0.3693803787231445
0.3668037414550781,0.3665674209594726
0.3668037414550781,0.3665674209594726
0.3732461929321289,0.3640279769897461
0.3732461929321289,0.3640279769897461
0.3736415863037109,0.3716382980346680
0.3736415863037109,0.3716382980346680
0.3684156417846680,0.3612728118896484
0.3684156417846680,0.3612728118896484
0.3767721176147461,0.3700813293457031
0.3767721176147461,0.3700813293457031
0.3670680999755859,0.3671825408935547
0.3670680999755859,0.3671825408935547
0.3736072540283203,0.3647775650024414
0.3736072540283203,0.3647775650024414
0.3739053726196289,0.3720605850219726
0.3739053726196289,0.3720605850219726
0.3687927246093750,0.3618724822998047
0.3687927246093750,0.3618724822998047
0.3770490646362304,0.3706626892089844
0.3770490646362304,0.3706626892089844
0.3673959732055664,0.3678554534912109
0.3673959732055664,0.3678554534912109
0.3738761901855469,0.3651666641235352
0.3738761901855469,0.3651666641235352
0.3741291046142578,0.3725606918334961
0.3741291046142578,0.3725606918334961
0.3691028594970703,0.3625087738037109
0.3691028594970703,0.3625087738037109
0.3773700714111328,0.3713390350341797
0.3773700714111328,0.3713390350341797
0.3677204132080078,0.3683578491210938
0.3677204132080078,0.3683578491210938
0.3741868972778320,0.3657331466674805
0.3741868972778320,0.3657331466674805
0.3744524002075195,0.3733068466186523
0.3744524002075195,0.3733068466186523
0.3694593429565430,0.3633012771606445
0.3694593429565430,0.3633012771606445
0.3777711868286133,0.3719547271728516
0.3777711868286133,0.3719547271728516
0.3681043624877929,0.3690645217895508
0.3681043624877929,0.3690645217895508
0.3746698379516601,0.3666126251220703
0.3746698379516601,0.3666126251220703
0.3748775482177734,0.3743116378784180
0.3748775482177734,0.3743116378784180
0.3699239730834961,0.3639970779418945
0.3699239730834961,0.3639970779418945
0.3781831741333008,0.3729148864746094
0.3781831741333008,0.3729148864746094
0.3686170578002930,0.3699645996093750
0.3686170578002930,0.3699645996093750
0.3750915527343750,0.3676763534545898
0.3750915527343750,0.3676763534545898
0.3753547668457031,0.3749467849731445
0.3778072357177734,0.3749467849731445
0.3702907562255859,0.3648754119873047
0.3702907562255859,0.3648754119873047
0.3786798477172851,0.3737583160400391
0.3786798477172851,0.3737583160400391
0.3690347671508789,0.3707576751708984
0.3690347671508789,0.3707576751708984
0.3753095626831054,0.3680906295776367
0.3753095626831054,0.3680906295776367
0.3754692077636719,0.3752803802490234
0.3754692077636719,0.3752803802490234
0.3703474044799804,0.3650373458862304
0.3703474044799804,0.3650373458862304
0.3784292221069336,0.3736129760742187
0.3784292221069336,0.3736129760742187
0.3685787200927734,0.3700916290283203
0.3685787200927734,0.3700916290283203
0.3749364852905273,0.3672014236450195
0.3749364852905273,0.3672014236450195
0.3749181747436524,0.3742532730102539
0.3771474838256836,0.3742532730102539
0.3696435928344726,0.3639089584350586
0.3713035583496094,0.3639089584350586
0.3776756286621094,0.3721401214599609
0.3715827941894531,0.3721401214599609
0.3678182601928711,0.3688144683837891
0.3778152465820312,0.3688144683837891
0.3741319656372070,0.3660163879394531
0.3676591873168945,0.3660163879394531
0.3741331100463867,0.3732421875000000
0.3765180587768555,0.3732421875000000
0.3689786911010742,0.3626369476318359
0.3707136154174804,0.3626369476318359
0.3770713806152344,0.3713207244873047
0.3770713806152344,0.3713207244873047
0.3673376083374023,0.3678983688354492
0.3673376083374023,0.3678983688354492
0.3737268447875977,0.3653755187988281
0.3737268447875977,0.3653755187988281
0.3738189697265625,0.3724559783935547
0.3738189697265625,0.3724559783935547
0.3686954498291016,0.3622106552124023
0.3686954498291016,0.3622106552124023
0.3768905639648437,0.3710294723510742
0.3768905639648437,0.3710294723510742
0.3672655105590820,0.3678686141967774
0.3672655105590820,0.3678686141967774
0.3737531661987304,0.3652959823608398
0.3737531661987304,0.3652959823608398
0.3738544464111328,0.3727220535278320
0.3738544464111328,0.3727220535278320
0.3689105987548828,0.3625802993774414
0.3689105987548828,0.3625802993774414
0.3771228790283203,0.3715684890747070
0.3771228790283203,0.3715684890747070
0.3675092697143554,0.3682239532470703
0.3675092697143554,0.3682239532470703
0.3740844726562500,0.3658905029296875
0.3740844726562500,0.3658905029296875
0.3742332458496094,0.3732433319091797
0.3742332458496094,0.3732433319091797
0.3692647933959961,0.3632303237915039
0.3692647933959961,0.3632303237915039
0.3773803710937500,0.3719495773315429
0.3773803710937500,0.3719495773315429
0.3678440093994140,0.3686685562133789
0.3678440093994140,0.3686685562133789
0.3743436813354492,0.3663024902343750
0.3743436813354492,0.3663024902343750
0.3743934631347656,0.3737995147705078
0.3743934631347656,0.3737995147705078
0.3693672180175781,0.3635604858398437
0.3693672180175781,0.3635604858398437
0.3776115417480468,0.3723300933837890
0.3776115417480468,0.3723300933837890
0.3679985046386718,0.3690982818603515
0.3679985046386718,0.3690982818603515
0.3744535446166992,0.3668924331665039
0.3744535446166992,0.3668924331665039
0.3745943069458008,0.3739843368530273
0.3745943069458008,0.3739843368530273
0.3696315765380859,0.3639072418212890
0.3696315765380859,0.3639072418212890
0.3778621673583984,0.3727340698242188
0.3778621673583984,0.3727340698242188
0.3681644439697265,0.3696104049682617
0.3681644439697265,0.3696104049682617
0.3746681213378906,0.3671339035034180
0.3746681213378906,0.3671339035034180
0.3748489379882812,0.3745708465576172
0.3748489379882812,0.3745708465576172
0.3699033737182617,0.3644914627075195
0.3699033737182617,0.3644914627075195
0.3781276702880859,0.3734418869018555
0.3781276702880859,0.3734418869018555
0.3685472488403320,0.3701528549194336
0.3685472488403320,0.3701528549194336
0.3749610900878906,0.3677352905273437
0.3749610900878906,0.3677352905273437
0.3751722335815429,0.3752002716064453
0.3751722335815429,0.3752002716064453
0.3702844619750976,0.3653726577758789
0.3702844619750976,0.3653726577758789
0.3785734176635742,0.3741205215454101
0.3726161956787109,0.3741205215454101
0.3689643859863281,0.3709344863891602
0.3689643859863281,0.3709344863891602
0.3755630493164062,0.3685838699340820
0.3755630493164062,0.3685838699340820
0.3755584716796875,0.3761896133422851
0.3755584716796875,0.3761896133422851
0.3705802917480469,0.3657794952392578
0.3705802917480469,0.3657794952392578
0.3787776947021484,0.3746515274047851
0.3787776947021484,0.3746515274047851
0.3689901351928711,0.3712263107299805
0.3689901351928711,0.3712263107299805
0.3755464553833008,0.3687852859497070
0.3755464553833008,0.3687852859497070
0.3753364562988281,0.3757181167602539
0.3753364562988281,0.3757181167602539
0.3702690124511719,0.3652267456054688
0.3702690124511719,0.3652267456054688
0.3782049179077148,0.3737302780151367
0.3782049179077148,0.3737302780151367
0.3682743072509765,0.3700040817260742
0.3682743072509765,0.3700040817260742
0.3745794296264648,0.3672328948974609
0.3745794296264648,0.3672328948974609
0.3744758605957031,0.3742475509643555
0.3744758605957031,0.3742475509643555
0.3693288803100586,0.3635885238647461
0.3693288803100586,0.3635885238647461
0.3773872375488281,0.3723117828369141
0.3773872375488281,0.3723117828369141
0.3674285888671875,0.3685512542724609
0.3674285888671875,0.3685512542724609
0.3738996505737305,0.3658189773559570
0.3738996505737305,0.3658189773559570
0.3738143920898437,0.3729600906372070
0.3738143920898437,0.3729600906372070
0.3686651229858398,0.3626535415649414
0.3686651229858398,0.3626535415649414
0.3768596649169922,0.3713773727416992
0.3768596649169922,0.3713773727416992
0.3670063018798828,0.3677352905273437
0.3670063018798828,0.3677352905273437
0.3736925125122070,0.3653160095214844
0.3736925125122070,0.3653160095214844
0.3736049652099609,0.3729537963867187
0.3736049652099609,0.3729537963867187
0.3684803009033203,0.3622941970825195
0.3684803009033203,0.3622941970825195
0.3769947052001953,0.3714706420898438
0.3769947052001953,0.3714706420898438
0.3670938491821289,0.3680311203002929
0.3670938491821289,0.3680311203002929
0.3739162445068359,0.3658945083618164
0.3739162445068359,0.3658945083618164
0.3738573074340820,0.3733491897583008
0.3738573074340820,0.3733491897583008
0.3688951492309570,0.3629859924316406
0.3688951492309570,0.3629859924316406
0.3774141311645507,0.3722293853759766
0.3774141311645507,0.3722293853759766
0.3674852371215820,0.3689786911010742
0.3674852371215820,0.3689786911010742
0.3742904663085938,0.3665056228637695
0.3676282882690430,0.3665056228637695
0.3743127822875976,0.3740930557250977
0.3743127822875976,0.3740930557250977
0.3692367553710937,0.3637241363525390
0.3692367553710937,0.3637241363525390
0.3777454376220703,0.3730350494384765
0.3777454376220703,0.3730350494384765
0.3678714752197266,0.3694467544555664
0.3678714752197266,0.3694467544555664
0.3746177673339844,0.3671253204345703
0.3746177673339844,0.3671253204345703
0.3745748519897461,0.3746526718139648
0.3745748519897461,0.3746526718139648
0.3695938110351563,0.3645412445068359
0.3695938110351563,0.3645412445068359
0.3780595779418945,0.3734401702880859
0.3780595779418945,0.3734401702880859
0.3682079315185547,0.3699239730834961
0.3682079315185547,0.3699239730834961
0.3748460769653320,0.3676500320434570
0.3748460769653320,0.3676500320434570
0.3748443603515625,0.3752637863159179
0.3748443603515625,0.3752637863159179
0.3699462890625000,0.3649183273315429
0.3699462890625000,0.3649183273315429
0.3781694412231445,0.3738595962524414
0.3781694412231445,0.3738595962524414
0.3685083389282227,0.3706214904785156
0.3685083389282227,0.3706214904785156
0.3751842498779297,0.3684677124023437
0.3751842498779297,0.3684677124023437
0.3752592086791992,0.3756586074829101
0.3752592086791992,0.3756586074829101
0.3703010559082031,0.3657033920288086
0.3703010559082031,0.3657033920288086
0.3785247802734375,0.3747545242309570
0.3785247802734375,0.3747545242309570
0.3691022872924805,0.3715112686157226
0.3691022872924805,0.3715112686157226
0.3756065368652344,0.3691343307495117
0.3756065368652344,0.3691343307495117
0.3756734848022461,0.3766073226928711
0.3756734848022461,0.3766073226928711
0.3708303451538086,0.3666091918945312
0.3708303451538086,0.3666091918945312
0.3790815353393555,0.3758113861083984
0.3790815353393555,0.3758113861083984
0.3695760726928711,0.3723535537719727
0.3695760726928711,0.3723535537719727
0.3760797500610352,0.3701007843017578
0.3760797500610352,0.3701007843017578
0.3761489868164062,0.3774650573730469
0.3761489868164062,0.3774650573730469
0.3712177276611328,0.3675407409667968
0.3712177276611328,0.3675407409667968
0.3793590545654297,0.3763051986694336
0.3793590545654297,0.3763051986694336
0.3698907852172851,0.3727741241455078
0.3698907852172851,0.3727741241455078
0.3762033462524414,0.3703599929809570
0.3762033462524414,0.3703599929809570
0.3761913299560547,0.3776132583618164
0.3761913299560547,0.3776132583618164
0.3711330413818359,0.3672082901000976
0.3711330413818359,0.3672082901000976
0.3790157318115234,0.3757118225097656
0.3790157318115234,0.3757118225097656
0.3694370269775391,0.3720256805419922
0.3694370269775391,0.3720256805419922
0.3755716323852539,0.3695514678955078
0.3755716323852539,0.3695514678955078
0.3754560470581055,0.3762748718261719
0.3754560470581055,0.3762748718261719
0.3720851898193359,0.3740358352661133
0.3720851898193359,0.3740358352661133
0.3680139541625976,0.3665491104125976
0.3680139541625976,0.3665491104125976
0.3774684906005859,0.3759481430053711
0.3774684906005859,0.3759481430053711
0.3691841125488281,0.3668031692504883
0.3691841125488281,0.3668031692504883
0.3772733688354492,0.3709865570068359
0.3772733688354492,0.3709865570068359
0.3717945098876953,0.3739110946655274
0.3717945098876953,0.3739110946655274
0.3721481323242187,0.3665840148925781
0.3721481323242187,0.3665840148925781
0.3772653579711914,0.3757650375366211
0.3772653579711914,0.3757650375366211
0.3692327499389648,0.3667533874511719
0.3692327499389648,0.3667533874511719
0.3772905349731445,0.3713939666748047
0.3772905349731445,0.3713939666748047
0.3719770431518555,0.3743385314941406
0.3719770431518555,0.3743385314941406
0.3724302291870117,0.3671161651611328
0.3724302291870117,0.3671161651611328
0.3776653289794922,0.3761798858642578
0.3776653289794922,0.3761798858642578
0.3697254180908203,0.3678211212158203
0.3756139755249023,0.3678211212158203
0.3777757644653320,0.3722877502441406
0.3777757644653320,0.3722877502441406
0.3723907470703125,0.3751201629638672
0.3723907470703125,0.3751201629638672
0.3729663848876953,0.3677930831909180
0.3729663848876953,0.3677930831909180
0.3781482696533203,0.3772218704223633
0.3781482696533203,0.3772218704223633
0.3701671600341797,0.3686965942382812
0.3701671600341797,0.3686965942382812
0.3781425476074219,0.3730813980102539
0.3781425476074219,0.3730813980102539
0.3728450775146484,0.3757450103759766
0.3728450775146484,0.3757450103759766
0.3733663558959961,0.3686651229858398
0.3733663558959961,0.3686651229858398
0.3784543991088867,0.3778959274291992
0.3784543991088867,0.3778959274291992
0.3703754425048828,0.3691555023193359
0.3703754425048828,0.3691555023193359
0.3784629821777344,0.3734012603759765
0.3784629821777344,0.3734012603759765
0.3731798171997070,0.3762891769409180
0.3731798171997070,0.3762891769409180
0.3735963821411133,0.3690593719482422
0.3735963821411133,0.3690593719482422
0.3785179138183594,0.3782913208007813
0.3785179138183594,0.3782913208007813
0.3705408096313477,0.3694015502929687
0.3705408096313477,0.3694015502929687
0.3786672592163086,0.3740381240844726
0.3786672592163086,0.3740381240844726
0.3732730865478516,0.3768465042114258
0.3732730865478516,0.3768465042114258
0.3737903594970703,0.3695400238037109
0.3737903594970703,0.3695400238037109
0.3788812637329101,0.3786346435546875
0.3788812637329101,0.3786346435546875
0.3709459304809570,0.3702026367187500
0.3709459304809570,0.3702026367187500
0.3790695190429688,0.3747356414794922
0.3711799621582031,0.3747356414794922
0.3736621856689453,0.3775016784667969
0.3736621856689453,0.3775016784667969
0.3741462707519531,0.3699829101562500
0.3741462707519531,0.3699829101562500
0.3792629241943359,0.3795524597167969
0.3792629241943359,0.3795524597167969
0.3713092803955078,0.3710002899169922
0.3713092803955078,0.3710002899169922
0.3793401718139648,0.3754360198974609
0.3793401718139648,0.3754360198974609
0.3740610122680664,0.3780927658081055
0.3740610122680664,0.3780927658081055
0.3745679855346680,0.3711175918579102
0.3745679855346680,0.3711175918579102
0.3796571731567382,0.3803598403930664
0.3796571731567382,0.3803598403930664
0.3717515945434570,0.3718111038208008
0.3717515945434570,0.3718111038208008
0.3797195434570312,0.3760190963745117
0.3797195434570312,0.3760190963745117
0.3745399475097656,0.3788658142089844
0.3745399475097656,0.3788658142089844
0.3748844146728516,0.3716697692871094
0.3748844146728516,0.3716697692871094
0.3798351287841797,0.3806402206420899
0.3798351287841797,0.3806402206420899
0.3717418670654297,0.3718248367309570
0.3776704788208008,0.3718248367309570
0.3797063827514648,0.3761552810668945
0.3797063827514648,0.3761552810668945
0.3742458343505859,0.3786695480346680
0.3742458343505859,0.3786695480346680
0.3744398117065429,0.3710781097412109
0.3744398117065429,0.3710781097412109
0.3793624877929687,0.3798494338989258
0.3793624877929687,0.3798494338989258
0.3713104248046875,0.3710466384887695
0.3713104248046875,0.3710466384887695
0.3791210174560547,0.3751842498779297
0.3791210174560547,0.3751842498779297
0.3735660552978515,0.3776470184326172
0.3735660552978515,0.3776470184326172
0.3739585876464844,0.3700756072998047
0.3739585876464844,0.3700756072998047
0.3787994384765625,0.3790540695190430
0.3787994384765625,0.3790540695190430
0.3708309173583984,0.3705047607421875
0.3708309173583984,0.3705047607421875
0.3786952972412109,0.3747035980224609
0.3786952972412109,0.3747035980224609
0.3734476089477539,0.3772521972656250
0.3734476089477539,0.3772521972656250
0.3738504409790039,0.3701797485351562
0.3738504409790039,0.3701797485351562
0.3789333343505859,0.3792537689208984
0.3789333343505859,0.3792537689208984
0.3709882736206054,0.3705986022949219
0.3709882736206054,0.3705986022949219
0.3789476394653320,0.3749336242675781
0.3789476394653320,0.3749336242675781
0.3737640380859375,0.3778850555419922
0.3737640380859375,0.3778850555419922
0.3741754531860351,0.3708904266357422
0.3741754531860351,0.3708904266357422
0.3792646408081055,0.3799375534057617
0.3792646408081055,0.3799375534057617
0.3713882446289062,0.3711679458618164
0.3713882446289062,0.3711679458618164
0.3794122695922851,0.3758743286132812
0.3794122695922851,0.3758743286132812
0.3741090774536133,0.3787473678588867
0.3741090774536133,0.3787473678588867
0.3745513916015625,0.3715438842773438
0.3745513916015625,0.3715438842773438
0.3796829223632812,0.3804410934448242
0.3796829223632812,0.3804410934448242
0.3717996597290039,0.3721326828002929
0.3717996597290039,0.3721326828002929
0.3797533035278320,0.3765403747558594
0.3797533035278320,0.3765403747558594
0.3744501113891601,0.3793201446533203
0.3809091567993164,0.3793201446533203
0.3748804092407226,0.3719650268554687
0.3748804092407226,0.3719650268554687
0.3800325393676758,0.3812295913696289
0.3800325393676758,0.3812295913696289
0.3720634460449219,0.3725206375122070
0.3720634460449219,0.3725206375122070
0.3798288345336914,0.3768081665039062
0.3798288345336914,0.3768081665039062
0.3746589660644531,0.3796279907226562
0.3746589660644531,0.3796279907226562
0.3750881195068359,0.3725200653076172
0.3750881195068359,0.3725200653076172
0.3802934646606445,0.3816667556762695
0.3802934646606445,0.3816667556762695
0.3722637176513672,0.3729978561401367
0.3722637176513672,0.3729978561401367
0.3801372528076172,0.3771938323974609
0.3727260589599609,0.3771938323974609
0.3748924255371094,0.3802820205688476
0.3748924255371094,0.3802820205688476
0.3753444671630859,0.3731225967407226
0.3753444671630859,0.3731225967407226
0.3804891586303711,0.3822732925415039
0.3804891586303711,0.3822732925415039
0.3725326538085937,0.3733560562133789
0.3725326538085937,0.3733560562133789
0.3804313659667969,0.3780029296875000
0.3804313659667969,0.3780029296875000
0.3752037048339844,0.3809246063232422
0.3752037048339844,0.3809246063232422
0.3756065368652344,0.3736707687377930
0.3756065368652344,0.3736707687377930
0.3809497833251953,0.3827545166015625
0.3809497833251953,0.3827545166015625
0.3730098724365234,0.3742876052856445
0.3730098724365234,0.3742876052856445
0.3808370590209961,0.3786512374877929
0.3808370590209961,0.3786512374877929
0.3755836486816406,0.3816925048828125
0.3755836486816406,0.3816925048828125
0.3760105133056640,0.3743957519531250
0.3760105133056640,0.3743957519531250
0.3812862396240234,0.3835641860961914
0.3812862396240234,0.3835641860961914
0.3733194351196289,0.3749834060668945
0.3733194351196289,0.3749834060668945
0.3809841156005859,0.3791530609130859
0.3809841156005859,0.3791530609130859
0.3758314132690430,0.3819082260131836
0.3758314132690430,0.3819082260131836
0.3761220932006836,0.3747156143188476
0.3761220932006836,0.3747156143188476
0.3812250137329101,0.3835613250732422
0.3812250137329101,0.3835613250732422
0.3731466293334961,0.3747030258178711
0.3731466293334961,0.3747030258178711
0.3806922912597656,0.3784749984741211
0.3806922912597656,0.3784749984741211
0.3753948211669922,0.3813171386718750
0.3753948211669922,0.3813171386718750
0.3755573272705078,0.3737119674682617
0.3755573272705078,0.3737119674682617
0.3804210662841797,0.3823791503906250
0.3804210662841797,0.3823791503906250
0.3723627090454101,0.3732828140258789
0.3723627090454101,0.3732828140258789
0.3798940658569336,0.3773403167724609
0.3798940658569336,0.3773403167724609
0.3745977401733399,0.3799713134765625
0.3745977401733399,0.3799713134765625
0.3747362136840820,0.3724285125732422
0.3747362136840820,0.3724285125732422
0.3798992156982422,0.3810991287231445
0.3798992156982422,0.3810991287231445
0.3718494415283203,0.3724164962768555
0.3718494415283203,0.3724164962768555
0.3794683456420898,0.3765581130981445
0.3794683456420898,0.3765581130981445
0.3742326736450195,0.3793338775634765
0.3742326736450195,0.3793338775634765
0.3744718551635742,0.3718729019165039
0.3744718551635742,0.3718729019165039
0.3797143936157226,0.3809989929199218
0.3797143936157226,0.3809989929199218
0.3717287063598633,0.3722064971923828
0.3717287063598633,0.3722064971923828
0.3793922424316406,0.3764665603637695
0.3793922424316406,0.3764665603637695
0.3742532730102539,0.3794013977050781
0.3742532730102539,0.3794013977050781
0.3745988845825195,0.3722276687622070
0.3745988845825195,0.3722276687622070
0.3798545837402343,0.3813869476318359
0.3798545837402343,0.3813869476318359
0.3718236923217773,0.3726305007934570
0.3718236923217773,0.3726305007934570
0.3797229766845703,0.3767154693603516
0.3797229766845703,0.3767154693603516
0.3745576858520508,0.3800170898437500
0.3745576858520508,0.3800170898437500
0.3748569488525391,0.3727151870727539
0.3748569488525391,0.3727151870727539
0.3800577163696289,0.3817720413208008
0.3800577163696289,0.3817720413208008
0.3720817565917969,0.3730424880981445
0.3720817565917969,0.3730424880981445
0.3799896240234375,0.3773826599121093
0.3799896240234375,0.3773826599121093
0.3747625350952148,0.3804531097412109
0.3747625350952148,0.3804531097412109
0.3750354766845703,0.3730533599853516
0.3750354766845703,0.3730533599853516
0.3803083419799805,0.3820055007934570
0.3803083419799805,0.3820055007934570
0.3722854614257812,0.3735202789306640
0.3722854614257812,0.3735202789306640
0.3801160812377929,0.3777975082397461
0.3801160812377929,0.3777975082397461
0.3747957229614258,0.3807209014892578
0.3747957229614258,0.3807209014892578
0.3752202987670898,0.3731712341308593
0.3709018707275391,0.3731712341308593
0.3804639816284179,0.3825130462646484
0.3804639816284179,0.3825130462646484
0.3724491119384766,0.3739540100097656
0.3724491119384766,0.3739540100097656
0.3802196502685547,0.3779886245727539
0.3802196502685547,0.3779886245727539
0.3750761032104492,0.3808982849121094
0.3750761032104492,0.3808982849121094
0.3754423141479492,0.3738321304321289
0.3754423141479492,0.3738321304321289
0.3806671142578125,0.3828929901123047
0.3806671142578125,0.3828929901123047
0.3727535247802734,0.3743797302246094
0.3727535247802734,0.3743797302246094
0.3806024551391601,0.3783857345581055
0.3806024551391601,0.3783857345581055
0.3753696441650390,0.3817319869995117
0.3753696441650390,0.3817319869995117
0.3757467269897461,0.3745239257812500
0.3757467269897461,0.3745239257812500
0.3810087203979492,0.3836076736450195
0.3810087203979492,0.3836076736450195
0.3730310440063476,0.3748100280761719
0.3730310440063476,0.3748100280761719
0.3809234619140625,0.3792417526245117
0.3809234619140625,0.3792417526245117
0.3757484436035156,0.3823963165283203
0.3821262359619140,0.3823963165283203
0.3718276977539062,0.3751132965087891
0.3727718353271484,0.3751132965087891
0.3813125610351563,0.3840351104736328
0.3813125610351563,0.3840351104736328
0.3732788085937500,0.3754611968994140
0.3732788085937500,0.3754611968994140
0.3810396194458008,0.3795330047607422
0.3810396194458008,0.3795330047607422
0.3757896423339844,0.3823883056640625
0.3757896423339844,0.3823883056640625
0.3759487152099609,0.3747287750244140
0.3716766357421875,0.3747287750244140
0.3810979843139649,0.3836500167846680
0.3810979843139649,0.3836500167846680
0.3728570938110352,0.3747013092041016
0.3728570938110352,0.3747013092041016
0.3803524017333984,0.3783639907836914
0.3803524017333984,0.3783639907836914
0.3749753952026367,0.3809463500976563
0.3749753952026367,0.3809463500976563
0.3750383377075195,0.3733308792114258
0.3750383377075195,0.3733308792114258
0.3801269531250000,0.3820598602294922
0.3801269531250000,0.3820598602294922
0.3717470169067383,0.3730562210083008
0.3717470169067383,0.3730562210083008
0.3794803619384766,0.3766628265380859
0.3794803619384766,0.3766628265380859
0.3741027832031250,0.3796279907226562
0.3741027832031250,0.3796279907226562
0.3742395401000976,0.3720108032226562
0.3742395401000976,0.3720108032226562
0.3794466018676758,0.3808353424072266
0.3794466018676758,0.3808353424072266
0.3712411880493164,0.3719232559204101
0.3712411880493164,0.3719232559204101
0.3790426254272461,0.3759189605712890
0.3790426254272461,0.3759189605712890
0.3738023757934570,0.3790409088134766
0.3738023757934570,0.3790409088134766
0.3739437103271484,0.3715862274169922
0.3739437103271484,0.3715862274169922
0.3792549133300781,0.3803043365478516
0.3792549133300781,0.3803043365478516
0.3712646484375000,0.3719324111938476
0.3712646484375000,0.3719324111938476
0.3790071487426758,0.3758920669555664
0.3790071487426758,0.3758920669555664
0.3738304138183594,0.3791873931884766
0.3738304138183594,0.3791873931884766
0.3741497039794922,0.3716669082641602
0.3741497039794922,0.3716669082641602
0.3795593261718750,0.3808914184570312
0.3795593261718750,0.3808914184570312
0.3714574813842773,0.3724885940551758
0.3714574813842773,0.3724885940551758
0.3792463302612304,0.3764900207519531
0.3792463302612304,0.3764900207519531
0.3742120742797851,0.3795392990112305
0.3742120742797851,0.3795392990112305
0.3744415283203125,0.3722866058349609
0.3744415283203125,0.3722866058349609
0.3798070907592773,0.3814624786376953
0.3798070907592773,0.3814624786376953
0.3716680526733399,0.3729372024536133
0.3716680526733399,0.3729372024536133
0.3795055389404297,0.3767309188842773
0.3795055389404297,0.3767309188842773
0.3743980407714844,0.3801446914672851
0.3743980407714844,0.3801446914672851
0.3746372222900390,0.3727655410766602
0.3746372222900390,0.3727655410766602
0.3799507141113281,0.3819076538085938
0.3799507141113281,0.3819076538085938
0.3719106674194336,0.3731563568115234
0.3719106674194336,0.3731563568115234
0.3796903610229492,0.3771783828735352
0.3796903610229492,0.3771783828735352
0.3745290756225586,0.3805578231811523
0.3745290756225586,0.3805578231811523
0.3747831344604492,0.3730550765991211
0.3747831344604492,0.3730550765991211
0.3802362442016601,0.3820735931396484
0.3802362442016601,0.3820735931396484
0.3721063613891601,0.3737113952636719
0.3721063613891601,0.3737113952636719
0.3799095153808594,0.3776527404785156
0.3799095153808594,0.3776527404785156
0.3747974395751953,0.3809320449829102
0.3747974395751953,0.3809320449829102
0.3750188827514648,0.3733314514160156
0.3750188827514648,0.3733314514160156
0.3804542541503906,0.3826801300048828
0.3804542541503906,0.3826801300048828
0.3722734451293945,0.3742710113525390
0.3722734451293945,0.3742710113525390
0.3801733016967773,0.3782066345214843
0.3801733016967773,0.3782066345214843
0.3750692367553711,0.3813995361328125
0.3750692367553711,0.3813995361328125
0.3753490447998047,0.3741788864135742
0.3753490447998047,0.3741788864135742
0.3808284759521484,0.3833679199218750
0.3808284759521484,0.3833679199218750
0.3726058959960937,0.3751035690307617
0.3789018630981445,0.3751035690307617
0.3805521011352539,0.3787874221801757
0.3805521011352539,0.3787874221801757
0.3755985260009765,0.3823396682739258
0.3755985260009765,0.3823396682739258
0.3757472991943359,0.3749570846557617
0.3757472991943359,0.3749570846557617
0.3811752319335938,0.3841690063476562
0.3811752319335938,0.3841690063476562
0.3731466293334961,0.3755533218383789
0.3731466293334961,0.3755533218383789
0.3808982849121094,0.3794672012329102
0.3808982849121094,0.3794672012329102
0.3758068084716797,0.3828294754028320
