REDsignal,IRsignal
0.3978218078613281,0.3184135437011719
0.3978218078613281,0.3184135437011719
0.3977548599243164,0.3166963577270508
0.3977548599243164,0.3166963577270508
0.3923292160034180,0.3123453140258789
0.3923292160034180,0.3123453140258789
0.3909639358520507,0.3085630416870117
0.3909639358520507,0.3085630416870117
0.3894533157348632,0.3076618194580078
0.3894533157348632,0.3076618194580078
0.3867319107055664,0.3021068572998047
0.3867319107055664,0.3021068572998047
0.3867187500000000,0.3014093399047851
0.3867187500000000,0.3014093399047851
0.3834274291992187,0.2998403549194336
0.3834274291992187,0.2998403549194336
0.3832849502563476,0.2976562500000000
0.3832849502563476,0.2976562500000000
0.3836397171020507,0.2989534378051757
0.3836397171020507,0.2989534378051757
0.3815671920776367,0.2955287933349609
0.3815671920776367,0.2955287933349609
0.3836505889892578,0.2979194641113281
0.3836505889892578,0.2979194641113281
0.3818916320800781,0.2979927062988281
0.3818916320800781,0.2979927062988281
0.3836162567138672,0.2976739883422851
0.3836162567138672,0.2976739883422851
0.3842491149902343,0.3005138397216797
0.3842491149902343,0.3005138397216797
0.3836208343505859,0.2988927841186523
0.3836208343505859,0.2988927841186523
0.3864847183227539,0.3020421981811524
0.3864847183227539,0.3020421981811524
0.3856658935546875,0.3029897689819336
0.3856658935546875,0.3029897689819336
0.3873167037963867,0.3033691406250000
0.3873167037963867,0.3033691406250000
0.3887220382690429,0.3071565628051758
0.3887220382690429,0.3071565628051758
0.3886985778808594,0.3062776565551757
0.3886985778808594,0.3062776565551757
0.3927652359008789,0.3102499008178711
0.3927652359008789,0.3102499008178711
0.3913066864013672,0.3114933013916015
0.3913066864013672,0.3114933013916015
0.3934890747070313,0.3126583099365234
0.3934890747070313,0.3126583099365234
0.3950632095336914,0.3163129806518555
0.3950632095336914,0.3163129806518555
0.3952136993408203,0.3151588439941406
0.3952136993408203,0.3151588439941406
0.3979385375976562,0.3183729171752930
0.3979385375976562,0.3183729171752930
0.3964519500732422,0.3194309234619140
0.3964519500732422,0.3194309234619140
0.3984443664550781,0.3197725296020508
0.3984443664550781,0.3197725296020508
0.3996522903442383,0.3224470138549805
0.3996522903442383,0.3224470138549805
0.3981473922729492,0.3196306228637695
0.3978109359741211,0.3196306228637695
0.4007028579711914,0.3222415924072266
0.4007028579711914,0.3222415924072266
0.3983596801757812,0.3219348907470703
0.3983596801757812,0.3219348907470703
0.3999246597290039,0.3209667205810547
0.3999246597290039,0.3209667205810547
0.3996419906616211,0.3225614547729492
0.3996419906616211,0.3225614547729492
0.3979734420776367,0.3194360733032227
0.3979734420776367,0.3194360733032227
0.4000888824462890,0.3215063095092773
0.4000888824462890,0.3215063095092773
0.3979047775268554,0.3206977844238281
0.3979047775268554,0.3206977844238281
0.3983139038085937,0.3192129135131836
0.3983139038085937,0.3192129135131836
0.3987258911132812,0.3218999862670898
0.3987258911132812,0.3218999862670898
0.3975225448608398,0.3192461013793945
0.3975225448608398,0.3192461013793945
0.4003807067871094,0.3214805603027344
0.4003807067871094,0.3214805603027344
0.3977439880371094,0.3209924697875977
0.3977439880371094,0.3209924697875977
0.3990102767944336,0.3206462860107422
0.3990102767944336,0.3206462860107422
0.3996706008911133,0.3232772827148437
0.3996706008911133,0.3232772827148437
0.3990222930908203,0.3209089279174804
0.3983871459960938,0.3209089279174804
0.4012178421020507,0.3231639862060547
0.4012178421020507,0.3231639862060547
0.3995115280151367,0.3239215850830078
0.3995115280151367,0.3239215850830078
0.4008527755737304,0.3233671188354492
0.4008527755737304,0.3233671188354492
0.4014701843261719,0.3248142242431640
0.4014701843261719,0.3248142242431640
0.3979053497314453,0.3189176559448242
0.3979053497314453,0.3189176559448242
0.3971317291259766,0.3164772033691406
0.3971317291259766,0.3164772033691406
0.3919847488403320,0.3120832443237305
0.3919847488403320,0.3120832443237305
0.3905485153198242,0.3073625564575195
0.3905485153198242,0.3073625564575195
0.3881578445434570,0.3055686950683594
0.3881578445434570,0.3055686950683594
0.3844797134399414,0.3002717971801758
0.3844797134399414,0.3002717971801758
0.3850919723510742,0.2995553970336914
0.3850919723510742,0.2995553970336914
0.3821725845336914,0.2979000091552734
0.3821725845336914,0.2979000091552734
0.3817119598388672,0.2956684112548828
0.3817119598388672,0.2956684112548828
0.3819282531738281,0.2976184844970703
0.3819282531738281,0.2976184844970703
0.3804296493530273,0.2950492858886719
0.3804296493530273,0.2950492858886719
0.3832569122314453,0.2969558715820312
0.3832569122314453,0.2969558715820312
0.3813154220581055,0.2973123550415039
0.3813154220581055,0.2973123550415039
0.3825021743774414,0.2972745895385742
0.3825021743774414,0.2972745895385742
0.3837078094482422,0.3002614974975586
0.3837078094482422,0.3002614974975586
0.3831047058105468,0.2984842300415039
0.3827144622802734,0.2984842300415039
0.3858736038208008,0.3010053634643555
0.3858736038208008,0.3010053634643555
0.3847040176391601,0.3023929595947266
0.3847040176391601,0.3023929595947266
0.3863531112670898,0.3026699066162109
0.3863531112670898,0.3026699066162109
0.3883769989013672,0.3062627792358398
0.3883769989013672,0.3062627792358398
0.3875020980834961,0.3050783157348633
0.3875020980834961,0.3050783157348633
0.3908523559570312,0.3086219787597656
0.3908523559570312,0.3086219787597656
0.3903018951416016,0.3106830596923828
0.3903018951416016,0.3106830596923828
0.3927057266235351,0.3114131927490234
0.3927057266235351,0.3114131927490234
0.3941116333007812,0.3150707244873047
0.3941116333007812,0.3150707244873047
0.3933294296264648,0.3140138626098632
0.3933294296264648,0.3140138626098632
0.3965137481689453,0.3166162490844727
0.3965137481689453,0.3166162490844727
0.3956193923950195,0.3175489425659180
0.3956193923950195,0.3175489425659180
0.3962293624877929,0.3167049407958984
0.3962293624877929,0.3167049407958984
0.3971019744873047,0.3193931579589844
0.3971019744873047,0.3193931579589844
0.3955095291137695,0.3169755935668945
0.3955095291137695,0.3169755935668945
0.3981279373168945,0.3181028366088867
0.3981279373168945,0.3181028366088867
0.3954145431518555,0.3175683975219726
0.3954145431518555,0.3175683975219726
0.3958906173706054,0.3163707733154297
0.3955198287963867,0.3163707733154297
0.3963386535644531,0.3182870864868164
0.3963386535644531,0.3182870864868164
0.3947467803955078,0.3153894424438476
0.3938833236694336,0.3153894424438476
0.3963764190673828,0.3160881042480468
0.3963764190673828,0.3160881042480468
0.3945430755615234,0.3167901992797851
0.3945430755615234,0.3167901992797851
0.3952617645263672,0.3158243179321289
0.3952617645263672,0.3158243179321289
0.3966184616088867,0.3182573318481445
0.3966184616088867,0.3182573318481445
0.3945322036743164,0.3155742645263672
0.3945322036743164,0.3155742645263672
0.3949213027954102,0.3159822463989257
0.3949213027954102,0.3159822463989257
0.3979888916015625,0.3187322616577148
0.3967008590698242,0.3187322616577148
0.3950077056884765,0.3184381484985351
0.3950077056884765,0.3184381484985351
0.3976278305053711,0.3194074630737305
0.3976278305053711,0.3194074630737305
0.3982589721679687,0.3226055145263672
0.3982589721679687,0.3226055145263672
0.3988677978515625,0.3222444534301758
0.3988677978515625,0.3222444534301758
0.4023302078247070,0.3267047882080078
0.4023302078247070,0.3267047882080078
0.4009712219238281,0.3278251647949219
0.4009712219238281,0.3278251647949219
0.4043460845947265,0.3293169021606445
0.4043460845947265,0.3293169021606445
0.4036880493164062,0.3295320510864257
0.4036880493164062,0.3295320510864257
0.3999824523925781,0.3220298767089844
0.3999824523925781,0.3220298767089844
0.3971551895141601,0.3168680191040039
0.3971551895141601,0.3168680191040039
0.3898561477661133,0.3102081298828125
0.3898561477661133,0.3102081298828125
0.3888988494873047,0.3059143066406250
0.3882076263427734,0.3059143066406250
0.3859331130981445,0.3041290283203125
0.3859331130981445,0.3041290283203125
0.3832180023193359,0.2989700317382812
0.3832180023193359,0.2989700317382812
0.3838331222534180,0.2993219375610351
0.3838331222534180,0.2993219375610351
0.3798442840576172,0.2964780807495117
0.3798442840576172,0.2964780807495117
0.3812009811401367,0.2956272125244140
0.3812009811401367,0.2956272125244140
0.3806133270263672,0.2966434478759766
0.3806133270263672,0.2966434478759766
0.3799306869506836,0.2945062637329102
0.3799306869506836,0.2945062637329102
0.3821273803710937,0.2972299575805664
0.3821273803710937,0.2972299575805664
0.3794740676879882,0.2963951110839844
0.3794740676879882,0.2963951110839844
0.3821165084838867,0.2969879150390625
0.3821165084838867,0.2969879150390625
0.3823905944824219,0.2995433807373047
0.3823905944824219,0.2995433807373047
0.3825433731079101,0.2980218887329101
0.3825433731079101,0.2980218887329101
0.3853420257568359,0.3016788482666016
0.3853420257568359,0.3016788482666016
0.3832557678222656,0.3016342163085937
0.3832557678222656,0.3016342163085937
0.3864492416381836,0.3031585693359375
0.3864492416381836,0.3031585693359375
0.3874677658081054,0.3065277099609375
0.3874677658081054,0.3065277099609375
0.3876634597778320,0.3056814193725586
0.3876634597778320,0.3056814193725586
0.3911476135253906,0.3101514816284179
0.3911476135253906,0.3101514816284179
0.3894390106201172,0.3110704421997070
0.3894390106201172,0.3110704421997070
0.3930250167846679,0.3124420166015625
0.3930250167846679,0.3124420166015625
0.3934610366821289,0.3155593872070312
0.3934610366821289,0.3155593872070312
0.3935176849365234,0.3139017105102539
0.3935176849365234,0.3139017105102539
0.3961961746215820,0.3172382354736328
0.3961961746215820,0.3172382354736328
0.3935119628906250,0.3163352966308594
0.3935119628906250,0.3163352966308594
0.3959489822387695,0.3165910720825195
0.3959489822387695,0.3165910720825195
0.3955970764160156,0.3183362960815430
0.3955970764160156,0.3183362960815430
0.3946489334106445,0.3155084609985351
0.3946489334106445,0.3155084609985351
0.3966510772705078,0.3177263259887695
0.3966510772705078,0.3177263259887695
0.3933580398559570,0.3160606384277344
0.3933580398559570,0.3160606384277344
0.3953430175781250,0.3159587860107422
0.3953430175781250,0.3159587860107422
0.3951450347900390,0.3181360244750976
0.3951450347900390,0.3181360244750976
0.3945093154907227,0.3155605316162109
0.3945093154907227,0.3155605316162109
0.3970504760742187,0.3183660507202148
0.3970504760742187,0.3183660507202148
0.3942729949951172,0.3175838470458984
0.3942729949951172,0.3175838470458984
0.3964593887329101,0.3176862716674805
0.3964593887329101,0.3176862716674805
0.3964239120483398,0.3196317672729492
0.3964239120483398,0.3196317672729492
0.3958099365234375,0.3174127578735351
0.3958099365234375,0.3174127578735351
0.3980907440185547,0.3199916839599609
0.3980907440185547,0.3199916839599609
0.3953533172607422,0.3192272186279297
0.3953533172607422,0.3192272186279297
0.3973474502563477,0.3192832946777344
0.3973474502563477,0.3192832946777344
0.3975488662719727,0.3216516494750977
0.3975488662719727,0.3216516494750977
0.3971815109252930,0.3196598052978515
0.3971815109252930,0.3196598052978515
0.3998050689697266,0.3229648590087891
0.3998050689697266,0.3229648590087891
0.3974521636962891,0.3223754882812500
0.3974521636962891,0.3223754882812500
0.3993839263916015,0.3217351913452148
0.3993839263916015,0.3217351913452148
0.3978446960449218,0.3208631515502929
0.3978446960449218,0.3208631515502929
0.3937437057495117,0.3137042999267578
0.3937437057495117,0.3137042999267578
0.3927091598510742,0.3116117477416992
0.3927091598510742,0.3116117477416992
0.3871376037597656,0.3068046569824219
0.3871376037597656,0.3068046569824219
0.3865482330322266,0.3033439636230469
0.3865482330322266,0.3033439636230469
0.3847091674804687,0.3026670455932617
0.3847091674804687,0.3026670455932617
0.3820541381835937,0.2976276397705078
0.3820541381835937,0.2976276397705078
0.3830938339233398,0.2984664916992187
0.3830938339233398,0.2984664916992187
0.3794403076171875,0.2962583541870117
0.3794403076171875,0.2962583541870117
0.3807191848754883,0.2954521179199219
0.3807191848754883,0.2954521179199219
0.3804468154907226,0.2970251083374023
0.3804468154907226,0.2970251083374023
0.3794855117797851,0.2940942764282227
0.3794855117797851,0.2940942764282227
0.3817485809326172,0.2967996597290039
0.3817485809326172,0.2967996597290039
0.3794517517089844,0.2963928222656250
0.3794517517089844,0.2963928222656250
0.3814435958862304,0.2964099884033203
0.3820793151855469,0.2964099884033203
0.3817914962768554,0.2988389968872070
0.3821382522583008,0.2988389968872070
0.3812307357788086,0.2966182708740234
0.3812307357788086,0.2966182708740234
0.3839693069458008,0.3000028610229492
0.3839693069458008,0.3000028610229492
0.3820283889770508,0.2998638153076172
0.3820283889770508,0.2998638153076172
0.3843761444091797,0.3006385803222656
0.3843761444091797,0.3006385803222656
0.3852098464965820,0.3036975860595703
0.3852098464965820,0.3036975860595703
0.3850456237792969,0.3024496078491211
0.3850456237792969,0.3024496078491211
0.3881383895874023,0.3062044143676758
0.3881383895874023,0.3062044143676758
0.3865510940551758,0.3068532943725586
0.3865510940551758,0.3068532943725586
0.3891340255737304,0.3077676773071289
0.3891340255737304,0.3077676773071289
0.3900363922119141,0.3108879089355469
0.3900363922119141,0.3108879089355469
0.3898183822631836,0.3090917587280274
0.3898183822631836,0.3090917587280274
0.3924030303955078,0.3119464874267578
0.3924030303955078,0.3119464874267578
0.3901874542236328,0.3115653991699219
0.3901874542236328,0.3115653991699219
0.3918645858764648,0.3113840103149414
0.3918645858764648,0.3113840103149414
0.3919933319091797,0.3132219314575195
0.3919933319091797,0.3132219314575195
0.3909622192382812,0.3104753494262695
0.3909622192382812,0.3104753494262695
0.3931348800659180,0.3128477096557617
0.3931348800659180,0.3128477096557617
0.3908208847045898,0.3127258300781250
0.3908208847045898,0.3127258300781250
0.3921792984008789,0.3119150161743164
0.3921792984008789,0.3119150161743164
0.3922462463378906,0.3134284973144531
0.3922010421752929,0.3134284973144531
0.3908952713012695,0.3104398727416992
0.3908952713012695,0.3104398727416992
0.3930799484252930,0.3130348205566406
0.3930799484252930,0.3130348205566406
0.3910709381103515,0.3128917694091797
0.3910709381103515,0.3128917694091797
0.3927503585815429,0.3130268096923828
0.3927503585815429,0.3130268096923828
0.3936819076538086,0.3157876968383789
0.3936819076538086,0.3157876968383789
0.3931909561157226,0.3141386032104492
0.3931909561157226,0.3141386032104492
0.3961618423461914,0.3178070068359375
0.3961618423461914,0.3178070068359375
0.3952016830444336,0.3192512512207031
0.3952016830444336,0.3192512512207031
0.3976747512817383,0.3205564498901367
0.3976747512817383,0.3205564498901367
0.3991235733032226,0.3244113922119141
0.3991235733032226,0.3244113922119141
0.3992471694946289,0.3232509613037109
0.3992471694946289,0.3232509613037109
0.4024297714233399,0.3267871856689453
0.4024297714233399,0.3267871856689453
0.4008893966674805,0.3274137496948242
0.4008893966674805,0.3274137496948242
0.4028457641601562,0.3278503417968750
0.4028457641601562,0.3278503417968750
0.4027828216552734,0.3287384033203125
0.4027828216552734,0.3287384033203125
0.3991458892822266,0.3213598251342774
0.3991458892822266,0.3213598251342774
0.3964857101440429,0.3163232803344727
0.3964857101440429,0.3163232803344727
0.3894641876220703,0.3098882675170898
0.3894641876220703,0.3098882675170898
0.3876256942749023,0.3049919128417969
0.3876256942749023,0.3049919128417969
0.3854381561279297,0.3036535263061523
0.3854381561279297,0.3036535263061523
0.3820587158203125,0.2977432250976562
0.3820587158203125,0.2977432250976562
0.3824941635131836,0.2978954315185547
0.3824941635131836,0.2978954315185547
0.3787588119506836,0.2954292297363281
0.3787588119506836,0.2954292297363281
0.3792514801025391,0.2937223434448242
0.3792514801025391,0.2937223434448242
0.3790117263793945,0.2950687408447266
0.3790117263793945,0.2950687408447266
0.3776956558227539,0.2919633865356445
0.3776956558227539,0.2919633865356445
0.3798185348510742,0.2941789627075195
0.3798185348510742,0.2941789627075195
0.3776996612548828,0.2938585281372070
0.3776996612548828,0.2938585281372070
0.3793087005615234,0.2937715530395508
0.3793087005615234,0.2937715530395508
0.3800365447998047,0.2967418670654297
0.3800365447998047,0.2967418670654297
0.3794294357299804,0.2945182800292969
0.3794294357299804,0.2945182800292969
0.3823562622070312,0.2976940155029297
0.3823562622070312,0.2976940155029297
0.3806133270263672,0.2980270385742188
0.3806133270263672,0.2980270385742188
0.3827436447143555,0.2989717483520508
0.3827436447143555,0.2989717483520508
0.3838354110717773,0.3021097183227539
0.3838354110717773,0.3021097183227539
0.3837656021118164,0.3004789352416992
0.3837656021118164,0.3004789352416992
0.3867038726806640,0.3042634963989257
0.3867038726806640,0.3042634963989257
0.3853403091430664,0.3050416946411132
0.3853403091430664,0.3050416946411132
0.3875690460205078,0.3056882858276367
0.3875690460205078,0.3056882858276367
0.3885932922363281,0.3089487075805664
0.3885932922363281,0.3089487075805664
0.3880588531494141,0.3071199417114258
0.3880588531494141,0.3071199417114258
0.3910120010375976,0.3102138519287109
0.3910120010375976,0.3102138519287109
0.3892038345336914,0.3105005264282226
0.3892038345336914,0.3105005264282226
0.3907556533813477,0.3104124069213867
0.3907556533813477,0.3104124069213867
0.3915086746215820,0.3129833221435547
0.3915086746215820,0.3129833221435547
0.3904832839965820,0.3103952407836914
0.3904832839965820,0.3103952407836914
0.3926565170288086,0.3125495910644531
0.3926565170288086,0.3125495910644531
0.3902275085449219,0.3118732452392578
0.3902275085449219,0.3118732452392578
0.3911670684814453,0.3109828948974609
0.3911670684814453,0.3109828948974609
0.3913255691528320,0.3129272460937500
0.3915063858032227,0.3129272460937500
0.3901033401489258,0.3100341796875000
0.3901033401489258,0.3100341796875000
0.3924053192138672,0.3121616363525391
0.3924053192138672,0.3121616363525391
0.3900941848754882,0.3118171691894531
0.3900941848754882,0.3118171691894531
0.3915040969848633,0.3117776870727539
0.3915040969848633,0.3117776870727539
0.3920213699340820,0.3139720916748047
0.3920213699340820,0.3139720916748047
0.3911590576171875,0.3116695404052734
0.3909536361694336,0.3116695404052734
0.3937362670898437,0.3143068313598633
0.3938587188720703,0.3143068313598633
0.3919881820678711,0.3147668838500977
0.3919881820678711,0.3147668838500977
0.3935182571411133,0.3146032333374023
0.3935182571411133,0.3146032333374023
0.3943273544311524,0.3173784255981445
0.3943273544311524,0.3173784255981445
0.3935794830322266,0.3150924682617187
0.3935794830322266,0.3150924682617187
0.3962224960327148,0.3180828094482422
0.3962224960327148,0.3180828094482422
0.3946100234985351,0.3186904907226563
0.3946100234985351,0.3186904907226563
0.3962139129638672,0.3185920715332031
0.3962139129638672,0.3185920715332031
0.3966081619262695,0.3203310012817382
0.3966081619262695,0.3203310012817382
0.3941139221191406,0.3155714035034179
0.3941139221191406,0.3155714035034179
0.3937425613403320,0.3135349273681641
0.3937425613403320,0.3135349273681641
0.3887929916381836,0.3093870162963867
0.3887929916381836,0.3093870162963867
0.3872886657714844,0.3050554275512695
0.3872886657714844,0.3050554275512695
0.3855382919311524,0.3041404724121093
0.3855382919311524,0.3041404724121093
0.3822841644287109,0.2988246917724609
0.3822841644287109,0.2988246917724609
0.3828460693359375,0.2983634948730469
0.3828460693359375,0.2983634948730469
0.3793230056762695,0.2965507507324219
0.3793230056762695,0.2965507507324219
0.3793945312500000,0.2940736770629883
0.3793945312500000,0.2940736770629883
0.3792177200317383,0.2956604003906250
0.3792177200317383,0.2956604003906250
0.3775726318359375,0.2924978256225586
0.3775726318359375,0.2924978256225586
0.3796411514282226,0.2940502166748047
0.3796411514282226,0.2940502166748047
0.3777042388916015,0.2943237304687500
0.3777042388916015,0.2943237304687500
0.3786306381225586,0.2936067581176758
0.3786306381225586,0.2936067581176758
0.3795770645141601,0.2960615158081055
0.3795770645141601,0.2960615158081055
0.3784132003784180,0.2935895919799805
0.3784132003784180,0.2935895919799805
0.3810710906982422,0.2963018417358398
0.3810710906982422,0.2963018417358398
0.3795175552368164,0.2969100952148437
0.3795175552368164,0.2969100952148437
0.3811151504516602,0.2968969345092773
0.3811151504516602,0.2968969345092773
0.3821800231933594,0.2998975753784179
0.3821800231933594,0.2998975753784179
0.3813486099243164,0.2982021331787109
0.3813486099243164,0.2982021331787109
0.3843915939331055,0.3012308120727539
0.3843915939331055,0.3012308120727539
0.3832969665527344,0.3023048400878906
0.3832969665527344,0.3023048400878906
0.3850238800048828,0.3026744842529297
0.3850238800048828,0.3026744842529297
0.3862237930297852,0.3058221817016601
0.3862237930297852,0.3058221817016601
0.3854764938354492,0.3040328979492187
0.3854764938354492,0.3040328979492187
0.3884250640869141,0.3069459915161133
0.3884250640869141,0.3069459915161133
0.3872291564941406,0.3079490661621094
0.3872291564941406,0.3079490661621094
0.3885000228881836,0.3080543518066406
0.3885000228881836,0.3080543518066406
0.3894550323486328,0.3102264404296875
0.3894550323486328,0.3102264404296875
0.3880313873291015,0.3076452255249023
0.3880313873291015,0.3076452255249023
0.3905216217041015,0.3095008850097656
0.3905216217041015,0.3095008850097656
0.3887483596801758,0.3099048614501953
0.3887483596801758,0.3099048614501953
0.3897611618041992,0.3094459533691406
0.3897611618041992,0.3094459533691406
0.3906909942626953,0.3120660781860352
0.3906909942626953,0.3120660781860352
0.3897199630737305,0.3102607727050781
0.3897199630737305,0.3102607727050781
0.3925558090209961,0.3129426956176758
0.3925558090209961,0.3129426956176758
0.3942998886108398,0.3142061233520508
0.3931102752685547,0.3145133972167969
0.3931102752685547,0.3145133972167969
0.3945493698120117,0.3177743911743164
0.3945493698120117,0.3177743911743164
0.3937814712524414,0.3164806365966797
0.3937814712524414,0.3164806365966797
0.3967712402343750,0.3190813064575195
0.3967712402343750,0.3190813064575195
0.3954729080200195,0.3198240280151367
0.3954729080200195,0.3198240280151367
0.3966699600219726,0.3195379257202148
0.3966699600219726,0.3195379257202148
0.3979373931884765,0.3228160858154297
0.3979373931884765,0.3228160858154297
0.3969297409057617,0.3209678649902344
0.3969297409057617,0.3209678649902344
0.3997936248779297,0.3234106063842773
0.3997936248779297,0.3234106063842773
0.3985691070556641,0.3245069503784180
0.3985691070556641,0.3245069503784180
0.3998056411743164,0.3242832183837890
0.3998056411743164,0.3242832183837890
0.4008115768432617,0.3268878936767578
0.4008115768432617,0.3268878936767578
0.3991498947143555,0.3239295959472656
0.3991498947143555,0.3239295959472656
0.3995779037475586,0.3220733642578125
0.3995779037475586,0.3220733642578125
0.3938810348510742,0.3162981033325195
0.3938810348510742,0.3162981033325195
0.3904438018798828,0.3095197677612305
0.3904438018798828,0.3095197677612305
0.3877264022827148,0.3073087692260742
0.3877264022827148,0.3073087692260742
0.3836408615112304,0.3012685775756836
0.3836408615112304,0.3012685775756836
0.3838840484619140,0.2999576568603515
0.3838840484619140,0.2999576568603515
0.3802053451538086,0.2973964691162109
0.3802053451538086,0.2973964691162109
0.3794506072998047,0.2943191528320312
0.3794506072998047,0.2943191528320312
0.3789459228515625,0.2950298309326172
0.3789459228515625,0.2950298309326172
0.3766839981079101,0.2916080474853516
0.3766839981079101,0.2916080474853516
0.3785419464111328,0.2927278518676757
0.3785419464111328,0.2927278518676757
0.3765541076660156,0.2925939559936523
0.3765541076660156,0.2925939559936523
0.3774621963500976,0.2916458129882812
0.3774621963500976,0.2916458129882812
0.3782186508178711,0.2942636489868164
0.3782186508178711,0.2942636489868164
0.3770090103149414,0.2920949935913086
0.3770090103149414,0.2920949935913086
0.3798940658569336,0.2944742202758789
0.3798940658569336,0.2944742202758789
0.3785631179809570,0.2951139450073242
0.3785631179809570,0.2951139450073242
0.3798854827880859,0.2953371047973632
0.3798854827880859,0.2953371047973632
0.3812204360961914,0.2984704971313477
0.3812204360961914,0.2984704971313477
0.3805269241333007,0.2971395492553711
0.3805269241333007,0.2971395492553711
0.3838502883911133,0.3003026962280274
0.3838502883911133,0.3003026962280274
0.3828872680664062,0.3018293380737305
0.3828872680664062,0.3018293380737305
0.3846765518188476,0.3020925521850586
0.3846765518188476,0.3020925521850586
0.3862443923950195,0.3058198928833007
0.3862443923950195,0.3058198928833007
0.3856653213500976,0.3045501708984375
0.3856653213500976,0.3045501708984375
0.3891002655029297,0.3076057434082031
0.3891002655029297,0.3076057434082031
0.3876302719116211,0.3084772109985351
0.3876302719116211,0.3084772109985351
0.3887872695922852,0.3078168869018554
0.3887872695922852,0.3078168869018554
0.3896100997924805,0.3103288650512695
0.3896100997924805,0.3103288650512695
0.3882282257080078,0.3081007003784180
0.3882282257080078,0.3081007003784180
0.3906314849853516,0.3096364974975586
0.3906314849853516,0.3096364974975586
0.3888113021850586,0.3098974227905273
0.3888113021850586,0.3098974227905273
0.3893943786621094,0.3087736129760742
0.3893943786621094,0.3087736129760742
0.3900426864624023,0.3109943389892578
0.3900426864624023,0.3109943389892578
0.3883129119873047,0.3086614608764648
0.3883129119873047,0.3086614608764648
0.3909450531005859,0.3103603363037109
0.3909450531005859,0.3103603363037109
0.3892742156982422,0.3107952117919922
0.3895677566528320,0.3107952117919922
0.3900226593017578,0.3099443435668945
0.3900226593017578,0.3099443435668945
0.3909879684448242,0.3123836517333984
0.3909879684448242,0.3123836517333984
0.3895797729492188,0.3103752136230469
0.3895797729492188,0.3103752136230469
0.3923423767089844,0.3123132705688477
0.3923423767089844,0.3123132705688477
0.3910886764526367,0.3134794235229492
0.3910886764526367,0.3134794235229492
0.3921146392822266,0.3130067825317382
0.3921146392822266,0.3130067825317382
0.3934890747070313,0.3164056777954101
0.3938627243041992,0.3164056777954101
0.3925489425659179,0.3151376724243164
0.3925489425659179,0.3151376724243164
0.3957166671752930,0.3178504943847656
0.3957166671752930,0.3178504943847656
0.3949642181396484,0.3194543838500977
0.3949642181396484,0.3194543838500977
0.3964765548706055,0.3198228836059570
0.3964765548706055,0.3198228836059570
0.3980535507202148,0.3234884262084961
0.3980535507202148,0.3234884262084961
0.3977331161499023,0.3228000640869140
0.3977331161499023,0.3228000640869140
0.4007440567016601,0.3247364044189453
0.4007440567016601,0.3247364044189453
0.3984781265258789,0.3235170364379883
0.3984781265258789,0.3235170364379883
0.3960617065429687,0.3175889968872070
0.3960617065429687,0.3175889968872070
0.3926410675048828,0.3136167526245117
0.3926410675048828,0.3136167526245117
0.3874111175537109,0.3068464279174805
0.3874111175537109,0.3068464279174805
0.3872137069702148,0.3044723510742187
0.3872137069702148,0.3044723510742187
0.3832895278930664,0.3017532348632813
0.3832895278930664,0.3017532348632813
0.3820140838623047,0.2981786727905273
0.3820140838623047,0.2981786727905273
0.3812976837158203,0.2983366012573242
0.3812976837158203,0.2983366012573242
0.3785573959350586,0.2946390151977539
0.3785573959350586,0.2946390151977539
0.3801286697387695,0.2946962356567382
0.3801286697387695,0.2946962356567382
0.3779067993164062,0.2944215774536132
0.3779067993164062,0.2944215774536132
0.3780344009399414,0.2927684783935547
0.3780344009399414,0.2927684783935547
0.3788652420043945,0.2949354171752930
0.3788652420043945,0.2949354171752930
0.3771034240722656,0.2926019668579101
0.3771034240722656,0.2926019668579101
0.3797372817993164,0.2942951202392578
0.3797372817993164,0.2942951202392578
0.3781711578369141,0.2950922012329101
0.3781711578369141,0.2950922012329101
0.3793275833129883,0.2946332931518554
0.3793275833129883,0.2946332931518554
0.3807598114013672,0.2976579666137695
0.3807598114013672,0.2976579666137695
0.3797653198242187,0.2965553283691406
0.3797653198242187,0.2965553283691406
0.3828580856323242,0.2987503051757812
0.3828580856323242,0.2987503051757812
0.3822887420654297,0.3006305694580078
0.3822887420654297,0.3006305694580078
0.3836809158325195,0.3009384155273437
0.3836809158325195,0.3009384155273437
0.3855846405029297,0.3047178268432617
0.3859685897827148,0.3047178268432617
0.3847612380981445,0.3039121627807617
0.3847612380981445,0.3039121627807617
0.3878580093383789,0.3058422088623047
0.3878580093383789,0.3058422088623047
0.3867982864379882,0.3074638366699219
0.3867982864379882,0.3074638366699219
0.3879993438720703,0.3073717117309570
0.3879993438720703,0.3073717117309570
0.3896507263183593,0.3103157043457031
0.3896507263183593,0.3103157043457031
0.3885326385498047,0.3092267990112305
0.3885326385498047,0.3092267990112305
0.3913507461547852,0.3108747482299805
0.3913507461547852,0.3108747482299805
0.3903184890747070,0.3124208450317383
0.3903184890747070,0.3124208450317383
0.3914285659790039,0.3121158599853516
0.3914285659790039,0.3121158599853516
0.3929042816162109,0.3151966094970703
0.3929042816162109,0.3151966094970703
0.3918783187866211,0.3140859603881836
0.3918783187866211,0.3140859603881836
0.3948480606079102,0.3160320281982422
0.3948480606079102,0.3160320281982422
0.3937116622924804,0.3173206329345703
0.3937116622924804,0.3173206329345703
0.3944446563720703,0.3164285659790039
0.3944446563720703,0.3164285659790039
0.3957023620605469,0.3189462661743164
0.3957023620605469,0.3189462661743164
0.3942323684692383,0.3175466537475586
0.3941934585571289,0.3177274703979492
0.3968204498291015,0.3188392639160156
0.3975997924804687,0.3188392639160156
0.3954196929931640,0.3197038650512695
0.3954196929931640,0.3197038650512695
0.3959535598754882,0.3188610076904297
0.3959535598754882,0.3188610076904297
0.3971557617187500,0.3216464996337891
0.3971557617187500,0.3216464996337891
0.3958883285522461,0.3201953887939453
0.3958883285522461,0.3201953887939453
0.3986595153808594,0.3217340469360351
0.3986595153808594,0.3217340469360351
0.3973875045776367,0.3228229522705078
0.3973875045776367,0.3228229522705078
0.3982252120971679,0.3222656250000000
0.3982252120971679,0.3222656250000000
0.3997821807861328,0.3253034591674804
0.3997821807861328,0.3253034591674804
0.3984186172485352,0.3237596511840820
0.3984186172485352,0.3237596511840820
0.4012292861938476,0.3253452301025391
0.4012292861938476,0.3253452301025391
0.3993776321411133,0.3254751205444336
0.3993776321411133,0.3254751205444336
0.3981433868408203,0.3209970474243164
0.3981433868408203,0.3209970474243164
0.3957870483398437,0.3180021286010742
0.3957870483398437,0.3180021286010742
0.3901668548583984,0.3106510162353516
0.3901668548583984,0.3106510162353516
0.3895643234252930,0.3077665328979492
0.3895643234252930,0.3077665328979492
0.3853191375732422,0.3048934936523438
0.3853191375732422,0.3048934936523438
0.3838600158691406,0.3006237030029297
0.3838600158691406,0.3006237030029297
0.3830228805541992,0.3003793716430664
0.3830228805541992,0.3003793716430664
0.3797801971435547,0.2962509155273437
0.3797801971435547,0.2962509155273437
0.3811380386352539,0.2959779739379882
0.3811380386352539,0.2959779739379882
0.3786008834838867,0.2953914642333984
0.3786008834838867,0.2953914642333984
0.3785350799560547,0.2933023452758789
0.3785350799560547,0.2933023452758789
0.3794282913208007,0.2955516815185547
0.3794282913208007,0.2955516815185547
0.3774112701416015,0.2933378219604492
0.3777614593505859,0.2933378219604492
0.3801120758056640,0.2948982238769531
0.3801120758056640,0.2948982238769531
0.3787691116333008,0.2958692550659179
0.3787691116333008,0.2958692550659179
0.3796789169311524,0.2951099395751953
0.3796789169311524,0.2951099395751953
0.3812530517578125,0.2982049942016601
0.3812530517578125,0.2982049942016601
0.3801790237426758,0.2971446990966797
0.3801790237426758,0.2971446990966797
0.3833496093750000,0.2993448257446289
0.3833496093750000,0.2993448257446289
0.3825960159301758,0.3015695571899414
0.3825960159301758,0.3015695571899414
0.3838926315307617,0.3010780334472656
0.3838926315307617,0.3010780334472656
0.3856452941894531,0.3044792175292969
0.3856452941894531,0.3044792175292969
0.3848150253295898,0.3039150238037109
0.3848150253295898,0.3039150238037109
0.3878980636596679,0.3060573577880859
0.3878980636596679,0.3060573577880859
0.3870409011840820,0.3077997207641601
0.3870409011840820,0.3077997207641601
0.3882173538208007,0.3073694229125977
0.3882173538208007,0.3073694229125977
0.3898429870605469,0.3105257034301758
0.3898429870605469,0.3105257034301758
0.3885114669799805,0.3093738555908203
0.3885114669799805,0.3093738555908203
0.3912597656250000,0.3108221054077148
0.3912597656250000,0.3108221054077148
0.3900289535522461,0.3118492126464844
0.3900289535522461,0.3118492126464844
0.3903820037841797,0.3103534698486328
0.3903820037841797,0.3103534698486328
0.3915430068969726,0.3126817703247070
0.3915430068969726,0.3126817703247070
0.3894281387329102,0.3105903625488281
0.3894281387329102,0.3105903625488281
0.3915653228759766,0.3111459732055664
0.3915653228759766,0.3111459732055664
0.3896942138671875,0.3112449645996094
0.3896942138671875,0.3112449645996094
0.3898675918579101,0.3099340438842773
0.3898675918579101,0.3099340438842773
0.3911682128906250,0.3123847961425781
0.3911682128906250,0.3123847961425781
0.3894138336181641,0.3107809066772461
0.3894138336181641,0.3107809066772461
0.3919080734252929,0.3118560791015625
0.3919080734252929,0.3118560791015625
0.3907258987426758,0.3133083343505859
0.3907258987426758,0.3133083343505859
0.3914651870727539,0.3123441696166992
0.3914651870727539,0.3123441696166992
0.3933568954467773,0.3156972885131836
0.3933568954467773,0.3156972885131836
0.3919652938842773,0.3147142410278320
0.3919652938842773,0.3147142410278320
0.3948657989501953,0.3165658950805664
0.3948657989501953,0.3165658950805664
0.3941602706909180,0.3182441711425781
0.3941602706909180,0.3182441711425781
0.3952342987060547,0.3180759429931641
0.3952342987060547,0.3180759429931641
0.3973989486694336,0.3216670989990234
0.3973989486694336,0.3216670989990234
0.3962099075317383,0.3212047576904297
0.3962099075317383,0.3212047576904297
0.3993467330932617,0.3230381011962891
0.3993467330932617,0.3230381011962891
0.3986709594726562,0.3247392654418945
0.3986709594726562,0.3247392654418945
0.3990537643432617,0.3230478286743164
0.3990537643432617,0.3230478286743164
0.3990503311157226,0.3230335235595703
0.3990503311157226,0.3230335235595703
0.3936899185180664,0.3157562255859375
0.3936899185180664,0.3157562255859375
0.3918760299682617,0.3108816146850586
0.3918760299682617,0.3108816146850586
0.3873229980468750,0.3073041915893555
0.3873229980468750,0.3073041915893555
0.3847812652587890,0.3021909713745117
0.3847812652587890,0.3021909713745117
0.3838354110717773,0.3012571334838867
0.3838354110717773,0.3012571334838867
0.3797847747802734,0.2965438842773437
0.3797847747802734,0.2965438842773437
0.3800966262817383,0.2948089599609375
0.3800966262817383,0.2948089599609375
0.3775033950805664,0.2939054489135742
0.3775033950805664,0.2939054489135742
0.3767498016357422,0.2910186767578125
0.3767498016357422,0.2910186767578125
0.3776275634765625,0.2927352905273438
0.3776275634765625,0.2927352905273438
0.3753158569335938,0.2907691955566406
0.3753158569335938,0.2907691955566406
0.3775760650634766,0.2914072036743164
0.3775760650634766,0.2914072036743164
0.3763263702392578,0.2922592163085938
0.3763263702392578,0.2922592163085938
0.3770404815673828,0.2915748596191406
0.3770404815673828,0.2915748596191406
0.3790843963623047,0.2948312759399414
0.3790843963623047,0.2948312759399414
0.3776235580444336,0.2940902709960938
0.3776235580444336,0.2940902709960938
0.3805629730224609,0.2957130432128906
0.3814882278442382,0.2957130432128906
0.3797693252563477,0.2973598480224609
0.3797693252563477,0.2973598480224609
0.3808284759521484,0.2971761703491211
0.3808284759521484,0.2971761703491211
0.3832981109619141,0.3010568618774414
0.3832981109619141,0.3010568618774414
0.3822755813598633,0.3007953643798828
0.3822755813598633,0.3007953643798828
0.3858020782470703,0.3032112121582031
0.3858020782470703,0.3032112121582031
0.3855417251586914,0.3056173324584961
0.3855417251586914,0.3056173324584961
0.3871170043945312,0.3061471939086914
0.3871170043945312,0.3061471939086914
0.3897663116455078,0.3106492996215820
0.3897663116455078,0.3106492996215820
0.3891660690307617,0.3109262466430664
0.3891660690307617,0.3109262466430664
0.3925117492675781,0.3130977630615234
0.3925117492675781,0.3130977630615234
0.3922348022460938,0.3155599594116211
0.3922348022460938,0.3155599594116211
0.3930770874023438,0.3147605895996093
0.3930770874023438,0.3147605895996093
0.3950563430786133,0.3175168991088867
0.3950563430786133,0.3175168991088867
0.3930358886718750,0.3159708023071289
0.3930358886718750,0.3159708023071289
0.3952457427978516,0.3167375564575195
0.3952457427978516,0.3167375564575195
0.3936996459960938,0.3169063568115234
0.3936996459960938,0.3169063568115234
0.3933145523071289,0.3149356842041016
0.3933145523071289,0.3149356842041016
0.3946329116821289,0.3169864654541015
0.3946329116821289,0.3169864654541015
0.3920562744140625,0.3150976181030273
0.3920562744140625,0.3150976181030273
0.3944217681884766,0.3156635284423828
0.3944217681884766,0.3156635284423828
0.3931400299072266,0.3166294097900391
0.3936281204223633,0.3166294097900391
0.3932899475097656,0.3151559829711914
0.3932899475097656,0.3151559829711914
0.3952365875244140,0.3180696487426758
0.3952365875244140,0.3180696487426758
0.3930885314941406,0.3167478561401367
0.3930885314941406,0.3167478561401367
0.3959712982177734,0.3177148818969727
0.3959712982177734,0.3177148818969727
0.3948989868164062,0.3193084716796875
0.3948989868164062,0.3193084716796875
0.3955513000488281,0.3183425903320312
0.3955513000488281,0.3183425903320312
0.3973937988281250,0.3211229324340820
0.3973937988281250,0.3211229324340820
0.3954391479492188,0.3199264526367188
0.3954391479492188,0.3199264526367188
0.3985273361206055,0.3212345123291016
0.3985273361206055,0.3212345123291016
0.3974544525146484,0.3230638504028320
0.3974544525146484,0.3230638504028320
0.3980609893798828,0.3218364715576172
0.3980609893798828,0.3218364715576172
0.3995372772216797,0.3236366271972656
0.3995372772216797,0.3236366271972656
0.3949951171875000,0.3182682037353515
0.3949951171875000,0.3182682037353515
0.3939949035644531,0.3138198852539062
0.3939949035644531,0.3138198852539062
0.3889560699462891,0.3097595214843750
0.3889560699462891,0.3097595214843750
0.3863033294677734,0.3041730880737304
0.3863033294677734,0.3041730880737304
0.3855663299560547,0.3031471252441406
0.3855663299560547,0.3031471252441406
0.3807661056518555,0.2982152938842773
0.3807661056518555,0.2982152938842773
0.3813508987426757,0.2962709426879883
0.3813508987426757,0.2962709426879883
0.3784543991088867,0.2949851989746093
0.3784543991088867,0.2949851989746093
0.3775251388549805,0.2917064666748047
0.3775251388549805,0.2917064666748047
0.3781517028808594,0.2931655883789062
0.3781517028808594,0.2931655883789062
0.3750257492065430,0.2905099868774414
0.3750257492065430,0.2905099868774414
0.3773872375488281,0.2909059524536133
0.3773872375488281,0.2909059524536133
0.3761243820190430,0.2916429519653320
0.3761243820190430,0.2916429519653320
0.3761369705200195,0.2903680801391602
0.3761369705200195,0.2903680801391602
0.3780595779418945,0.2931444168090820
0.3780595779418945,0.2931444168090820
0.3759475708007812,0.2916996002197266
0.3759475708007812,0.2916996002197266
0.3790386199951172,0.2931512832641601
0.3790386199951172,0.2931512832641601
0.3784812927246093,0.2952632904052734
0.3784812927246093,0.2952632904052734
0.3793127059936524,0.2949783325195313
0.3793127059936524,0.2949783325195313
0.3822229385375976,0.2987852096557617
0.3822229385375976,0.2987852096557617
0.3806447982788086,0.2985712051391601
0.3806447982788086,0.2985712051391601
0.3840751647949219,0.3008422851562500
0.3840751647949219,0.3008422851562500
0.3840116500854492,0.3034664154052734
0.3840116500854492,0.3034664154052734
0.3852149963378906,0.3034572601318359
0.3852149963378906,0.3034572601318359
0.3879770278930664,0.3072744369506836
0.3879770278930664,0.3072744369506836
0.3863187789916992,0.3068893432617187
0.3863187789916992,0.3068893432617187
0.3894115447998047,0.3081933975219727
0.3894115447998047,0.3081933975219727
0.3887346267700195,0.3100702285766602
0.3887346267700195,0.3100702285766602
0.3889377593994141,0.3083667755126953
0.3889377593994141,0.3083667755126953
0.3907716751098633,0.3111328125000000
0.3907716751098633,0.3111328125000000
0.3883684158325195,0.3094264984130859
0.3883684158325195,0.3094264984130859
0.3907682418823242,0.3100250244140625
0.3907682418823242,0.3100250244140625
0.3896884918212891,0.3113439559936523
0.3896884918212891,0.3113439559936523
0.3897417068481445,0.3099443435668945
0.3897417068481445,0.3099443435668945
0.3918577194213867,0.3126989364624023
0.3918577194213867,0.3126989364624023
0.3917987823486328,0.3122257232666015
0.3917987823486328,0.3122257232666015
0.3917987823486328,0.3134897232055664
0.3907493591308593,0.3115058898925781
0.3906034469604492,0.3115058898925781
0.3936389923095703,0.3141443252563477
0.3936389923095703,0.3141443252563477
0.3924568176269531,0.3147405624389648
0.3924568176269531,0.3147405624389648
0.3934455871582031,0.3142210006713867
0.3934455871582031,0.3142210006713867
0.3943668365478515,0.3173727035522461
0.3943668365478515,0.3173727035522461
0.3933797836303711,0.3152898788452148
0.3933797836303711,0.3152898788452148
0.3966001510620117,0.3178853988647461
0.3966001510620117,0.3178853988647461
0.3944715499877929,0.3182842254638672
0.3944715499877929,0.3182842254638672
0.3958271026611328,0.3182395935058593
0.3958271026611328,0.3182395935058593
0.3969429016113281,0.3209592819213867
0.3969429016113281,0.3209592819213867
0.3963644027709961,0.3191202163696289
0.3963644027709961,0.3191202163696289
0.3985170364379882,0.3212379455566406
0.3985170364379882,0.3212379455566406
0.3968748092651367,0.3218507766723633
0.3968748092651367,0.3218507766723633
0.3976610183715820,0.3204294204711914
0.3976610183715820,0.3204294204711914
0.3969062805175781,0.3194801330566406
0.3969062805175781,0.3194801330566406
0.3912649154663086,0.3108907699584961
0.3888587951660156,0.3108907699584961
0.3898630142211914,0.3078832626342773
0.3898630142211914,0.3078832626342773
0.3847921371459961,0.3035894393920898
0.3847921371459961,0.3035894393920898
0.3835824966430664,0.2990804672241211
0.3835824966430664,0.2990804672241211
0.3814550399780273,0.2975584030151367
0.3814550399780273,0.2975584030151367
0.3778707504272461,0.2923461914062500
0.3778707504272461,0.2923461914062500
0.3783594131469726,0.2916549682617187
0.3783594131469726,0.2916549682617187
0.3756019592285156,0.2902061462402344
0.3756019592285156,0.2902061462402344
0.3754703521728516,0.2878721237182617
0.3754703521728516,0.2878721237182617
0.3755012512207031,0.2896339416503906
0.3755012512207031,0.2896339416503906
0.3736387252807617,0.2867637634277344
0.3736387252807617,0.2867637634277344
0.3763652801513672,0.2884048461914062
0.3763652801513672,0.2884048461914062
0.3741640090942382,0.2885318756103515
0.3741640090942382,0.2885318756103515
0.3755344390869140,0.2886966705322265
0.3755344390869140,0.2886966705322265
0.3768716812133789,0.2918180465698242
0.3768716812133789,0.2918180465698242
0.3765043258666992,0.2903972625732422
0.3765043258666992,0.2903972625732422
0.3793962478637695,0.2932994842529297
0.3793962478637695,0.2932994842529297
0.3787582397460937,0.2952375411987305
0.3794620513916016,0.2952375411987305
0.3806316375732422,0.2960397720336914
0.3806316375732422,0.2960397720336914
0.3831047058105468,0.3002231597900391
0.3831047058105468,0.3002231597900391
0.3826629638671875,0.2996252059936523
0.3826629638671875,0.2996252059936523
0.3863691329956054,0.3035802841186523
0.3863691329956054,0.3035802841186523
0.3861780166625977,0.3060041427612304
0.3861780166625977,0.3060041427612304
0.3887586593627930,0.3070518493652344
0.3887586593627930,0.3070518493652344
0.3901742935180664,0.3107482910156250
0.3901742935180664,0.3107482910156250
0.3898349761962890,0.3102018356323242
0.3898349761962890,0.3102018356323242
0.3933511734008789,0.3134107589721680
0.3933511734008789,0.3134107589721680
0.3927051544189453,0.3146593093872070
0.3927051544189453,0.3146593093872070
0.3936573028564453,0.3146375656127929
0.3936573028564453,0.3146375656127929
0.3947639465332031,0.3174499511718750
0.3947639465332031,0.3174499511718750
0.3934484481811523,0.3153488159179688
0.3934484481811523,0.3153488159179688
0.3963575363159180,0.3169893264770507
0.3963575363159180,0.3169893264770507
0.3939605712890625,0.3167547225952148
0.3939605712890625,0.3167547225952148
0.3946981430053711,0.3157791137695312
0.3946981430053711,0.3157791137695312
0.3949905395507812,0.3176668167114258
0.3949905395507812,0.3176668167114258
0.3936349868774414,0.3148069381713867
0.3936349868774414,0.3148069381713867
0.3952800750732422,0.3157825469970703
0.3952800750732422,0.3157825469970703
0.3931743621826172,0.3156452178955078
0.3931743621826172,0.3156452178955078
0.3937145233154297,0.3147113800048828
0.3934152603149414,0.3147113800048828
0.3948068618774414,0.3169589996337890
0.3945447921752930,0.3169589996337890
0.3928642272949219,0.3143720626831055
0.3928642272949219,0.3143720626831055
0.3956222534179688,0.3167541503906250
0.3956222534179688,0.3167541503906250
0.3940177917480469,0.3173978805541992
0.3940177917480469,0.3173978805541992
0.3959775924682617,0.3171398162841797
0.3959775924682617,0.3171398162841797
0.3966133117675781,0.3201547622680664
0.3966133117675781,0.3201547622680664
0.3957881927490234,0.3187705993652344
0.3957881927490234,0.3187705993652344
0.3989730834960937,0.3219114303588867
0.3989730834960937,0.3219114303588867
0.3981473922729492,0.3230060577392578
0.3981473922729492,0.3230060577392578
0.3991035461425781,0.3224195480346679
0.3991035461425781,0.3224195480346679
0.3995075225830078,0.3240858078002929
0.3995075225830078,0.3240858078002929
0.3960313796997070,0.3178298950195312
0.3960313796997070,0.3178298950195312
0.3948314666748047,0.3136728286743164
0.3948314666748047,0.3136728286743164
0.3883918762207031,0.3077699661254883
0.3883918762207031,0.3077699661254883
0.3859090805053711,0.3025165557861328
0.3859090805053711,0.3025165557861328
0.3838851928710937,0.3009355545043945
0.3838851928710937,0.3009355545043945
0.3803558349609375,0.2951883316040039
0.3803558349609375,0.2951883316040039
0.3803546905517578,0.2937818527221679
0.3803546905517578,0.2937818527221679
0.3766571044921875,0.2918231964111328
0.3766571044921875,0.2918231964111328
0.3762096405029297,0.2889953613281250
0.3762096405029297,0.2889953613281250
0.3764087677001953,0.2901254653930664
0.3764087677001953,0.2901254653930664
0.3740283966064453,0.2868684768676757
0.3740283966064453,0.2868684768676757
0.3763109207153320,0.2886886596679688
0.3763109207153320,0.2886886596679688
0.3746915817260742,0.2891738891601562
0.3746915817260742,0.2891738891601562
0.3762416839599609,0.2886320114135742
0.3762416839599609,0.2886320114135742
0.3768745422363281,0.2912979125976562
0.3768745422363281,0.2912979125976562
0.3758571624755859,0.2898279190063476
0.3758571624755859,0.2898279190063476
0.3789110183715820,0.2923404693603516
0.3789110183715820,0.2923404693603516
0.3782712936401367,0.2937137603759766
0.3782712936401367,0.2937137603759766
0.3796068191528320,0.2937601089477539
0.3796068191528320,0.2937601089477539
0.3811843872070312,0.2976053237915039
0.3817691802978516,0.2976053237915039
0.3807609558105469,0.2967676162719726
0.3807609558105469,0.2967676162719726
0.3846239089965820,0.2999233245849609
0.3846239089965820,0.2999233245849609
0.3835865020751953,0.3016868591308594
0.3835865020751953,0.3016868591308594
0.3854175567626953,0.3025136947631836
0.3854175567626953,0.3025136947631836
0.3872829437255859,0.3063629150390625
0.3872829437255859,0.3063629150390625
0.3870929718017578,0.3053701400756836
0.3870929718017578,0.3053701400756836
0.3899345397949219,0.3079547882080078
0.3899345397949219,0.3079547882080078
0.3890104293823242,0.3095970153808594
0.3890104293823242,0.3095970153808594
0.3902166366577148,0.3095260620117187
0.3902166366577148,0.3095260620117187
0.3919263839721679,0.3124248504638672
0.3919263839721679,0.3124248504638672
0.3902229309082031,0.3103729248046875
0.3902229309082031,0.3103729248046875
0.3927120208740234,0.3121627807617187
0.3927120208740234,0.3121627807617187
0.3911647796630859,0.3125902175903320
0.3911647796630859,0.3125902175903320
0.3920631408691406,0.3113342285156250
0.3920631408691406,0.3113342285156250
0.3924688339233398,0.3133289337158203
0.3924688339233398,0.3133289337158203
0.3907762527465820,0.3112483978271484
0.3907762527465820,0.3112483978271484
0.3931337356567383,0.3125118255615234
0.3931337356567383,0.3125118255615234
0.3919755935668945,0.3130119323730469
0.3919755935668945,0.3130119323730469
0.3923103332519531,0.3120712280273437
0.3923131942749024,0.3120712280273437
0.3936275482177734,0.3152452468872070
0.3936275482177734,0.3152452468872070
0.3922748565673828,0.3135509490966797
0.3922748565673828,0.3135509490966797
0.3955484390258789,0.3156715393066406
0.3955484390258789,0.3156715393066406
0.3939102172851562,0.3166854858398437
0.3939102172851562,0.3166854858398437
0.3950563430786133,0.3165904998779297
0.3950563430786133,0.3165904998779297
0.3964342117309570,0.3197868347167969
0.3964342117309570,0.3197868347167969
0.3958356857299805,0.3184101104736328
0.3958356857299805,0.3184101104736328
0.3982006072998047,0.3202091217041015
0.3982006072998047,0.3202091217041015
0.3971345901489258,0.3216104507446289
0.3971345901489258,0.3216104507446289
0.3981668472290039,0.3210765838623047
0.3981668472290039,0.3210765838623047
0.3997518539428711,0.3235044479370117
0.3989662170410156,0.3235044479370117
0.3967494964599609,0.3192953109741211
0.3967494964599609,0.3192953109741211
0.3959924697875977,0.3157207489013672
0.3959924697875977,0.3157207489013672
0.3898813247680664,0.3098705291748047
0.3898813247680664,0.3098705291748047
0.3872486114501953,0.3036334991455078
0.3872486114501953,0.3036334991455078
0.3846708297729492,0.3015529632568359
0.3846708297729492,0.3015529632568359
0.3805635452270508,0.2958395004272461
0.3805635452270508,0.2958395004272461
0.3802963256835937,0.2937005996704101
0.3802963256835937,0.2937005996704101
0.3772270202636719,0.2916446685791015
0.3772270202636719,0.2916446685791015
0.3760826110839844,0.2884923934936524
0.3760826110839844,0.2884923934936524
0.3761964797973633,0.2897266387939453
0.3759258270263672,0.2897266387939453
0.3740758895874023,0.2873268127441406
0.3740758895874023,0.2873268127441406
0.3767858505249023,0.2884031295776367
0.3767858505249023,0.2884031295776367
0.3749416351318359,0.2889902114868164
0.3749416351318359,0.2889902114868164
0.3758811950683594,0.2887430191040039
0.3758811950683594,0.2887430191040039
0.3775726318359375,0.2919027328491211
0.3775726318359375,0.2919027328491211
0.3771549224853515,0.2911863327026367
0.3771549224853515,0.2911863327026367
0.3799386978149414,0.2933006286621094
0.3799386978149414,0.2933006286621094
0.3793899536132813,0.2954469680786133
0.3793899536132813,0.2954469680786133
0.3807312011718750,0.2955694198608398
0.3807312011718750,0.2955694198608398
0.3831361770629882,0.2994907379150391
0.3831361770629882,0.2994907379150391
0.3824192047119140,0.2991245269775391
0.3824192047119140,0.2991245269775391
0.3861637115478516,0.3026052474975586
0.3861637115478516,0.3026052474975586
0.3860218048095703,0.3053735733032226
0.3860218048095703,0.3053735733032226
0.3883821487426758,0.3063314437866211
0.3883821487426758,0.3063314437866211
0.3903236389160156,0.3104530334472656
0.3903236389160156,0.3104530334472656
0.3900861740112305,0.3104352951049805
0.3900861740112305,0.3104352951049805
0.3934444427490234,0.3131744384765625
0.3934444427490234,0.3131744384765625
0.3932676315307617,0.3151548385620117
0.3932676315307617,0.3151548385620117
0.3938226699829102,0.3141014099121094
0.3938226699829102,0.3141014099121094
0.3952966690063476,0.3167598724365234
0.3949819564819336,0.3167598724365234
0.3930273056030273,0.3143812179565429
0.3930273056030273,0.3143812179565429
0.3954071044921875,0.3147314071655273
0.3954071044921875,0.3147314071655273
0.3926794052124024,0.3141843795776367
0.3926794052124024,0.3141843795776367
0.3924030303955078,0.3121152877807617
0.3924030303955078,0.3121152877807617
0.3921501159667969,0.3113548278808594
0.3921501159667969,0.3113548278808594
0.3915956497192383,0.3128356933593750
0.3915956497192383,0.3128356933593750
0.3905382156372070,0.3099924087524414
0.3905382156372070,0.3099924087524414
0.3931068420410156,0.3130113601684570
0.3931068420410156,0.3130113601684570
0.3904083251953125,0.3121994018554687
0.3904083251953125,0.3121994018554687
0.3928556442260742,0.3125375747680664
0.3927761077880859,0.3125375747680664
0.3929340362548828,0.3149351119995117
0.3929340362548828,0.3149351119995117
0.3925014495849609,0.3129163742065429
0.3924167633056641,0.3129163742065429
0.3950540542602539,0.3158140182495117
0.3950540542602539,0.3158140182495117
0.3925678253173828,0.3151714324951172
0.3925678253173828,0.3151714324951172
0.3950054168701172,0.3155673980712890
0.3950054168701172,0.3155673980712890
0.3953018188476562,0.3183237075805664
0.3953018188476562,0.3183237075805664
0.3949659347534180,0.3163713455200195
0.3949659347534180,0.3163713455200195
0.3974824905395508,0.3197107315063477
0.3974824905395508,0.3197107315063477
0.3952194213867187,0.3190921783447265
0.3952194213867187,0.3190921783447265
0.3973623275756836,0.3189502716064453
0.3973623275756836,0.3189502716064453
0.3960159301757812,0.3185142517089843
0.3960159301757812,0.3185142517089843
0.3919704437255859,0.3106487274169922
0.3919704437255859,0.3106487274169922
0.3901548385620117,0.3077081680297851
0.3901548385620117,0.3077081680297851
0.3841026306152344,0.3019775390625000
0.3841026306152344,0.3019775390625000
0.3832386016845703,0.2979394912719727
0.3832386016845703,0.2979394912719727
0.3806968688964844,0.2964477539062500
0.3806968688964844,0.2964477539062500
0.3777460098266601,0.2908412933349609
0.3777460098266601,0.2908412933349609
0.3783239364624023,0.2911926269531250
0.3783239364624023,0.2911926269531250
0.3743848800659180,0.2884174346923828
0.3743848800659180,0.2884174346923828
0.3755533218383789,0.2871694564819336
0.3755533218383789,0.2871694564819336
0.3748083114624023,0.2884414672851562
0.3748083114624023,0.2884414672851562
0.3739511489868164,0.2857372283935547
0.3739511489868164,0.2857372283935547
0.3761243820190430,0.2883848190307617
0.3761243820190430,0.2883848190307617
0.3737171173095703,0.2877027511596680
0.3737171173095703,0.2877027511596680
0.3759738922119141,0.2881038665771484
0.3759738922119141,0.2881038665771484
0.3764642715454101,0.2908733367919922
0.3764642715454101,0.2908733367919922
0.3763458251953125,0.2891344070434570
0.3763458251953125,0.2891344070434570
0.3792057037353516,0.2927021026611328
0.3792057037353516,0.2927021026611328
0.3774112701416015,0.2928840637207031
0.3774112701416015,0.2928840637207031
0.3803215026855469,0.2942728042602539
0.3803215026855469,0.2942728042602539
0.3814796447753906,0.2980848312377929
0.3814796447753906,0.2980848312377929
0.3819454193115234,0.2974210739135742
0.3819454193115234,0.2974210739135742
0.3855382919311524,0.3019844055175781
0.3855382919311524,0.3019844055175781
0.3844116210937500,0.3033851623535156
0.3844116210937500,0.3033851623535156
0.3876508712768554,0.3052791595458984
0.3876508712768554,0.3052791595458984
0.3890733718872070,0.3092496871948242
0.3890733718872070,0.3092496871948242
0.3892015457153320,0.3080966949462891
0.3892015457153320,0.3080966949462891
0.3923933029174805,0.3118137359619140
0.3923933029174805,0.3118137359619140
0.3905982971191406,0.3117948532104492
0.3905982971191406,0.3117948532104492
0.3925106048583984,0.3118091583251953
0.3925106048583984,0.3118091583251953
0.3926067352294922,0.3137649536132812
0.3926067352294922,0.3137649536132812
0.3915349960327149,0.3109205245971680
0.3915349960327149,0.3109205245971680
0.3935428619384765,0.3128734588623047
0.3935428619384765,0.3128734588623047
0.3907825469970703,0.3118068695068359
0.3907825469970703,0.3118068695068359
0.3922204971313477,0.3111019134521484
0.3922204971313477,0.3111019134521484
0.3921106338500976,0.3130250930786133
0.3921106338500976,0.3130250930786133
0.3910703659057617,0.3101995468139648
0.3910703659057617,0.3101995468139648
0.3933425903320312,0.3126686096191406
0.3933425903320312,0.3126686096191406
0.3906377792358398,0.3117948532104492
0.3906377792358398,0.3117948532104492
0.3922536849975586,0.3114772796630859
0.3922536849975586,0.3114772796630859
0.3924018859863281,0.3135051727294922
0.3924018859863281,0.3135051727294922
0.3912591934204102,0.3105463027954101
0.3912591934204102,0.3105463027954101
0.3933437347412109,0.3129644393920898
0.3933437347412109,0.3129644393920898
0.3911190032958984,0.3124454498291016
0.3911190032958984,0.3124454498291016
0.3927263259887695,0.3122846603393555
0.3927263259887695,0.3122846603393555
0.3930633544921875,0.3143583297729492
0.3930633544921875,0.3143583297729492
0.3920299530029297,0.3120689392089844
0.3920299530029297,0.3120689392089844
0.3947811126708984,0.3152898788452148
0.3947811126708984,0.3152898788452148
0.3930421829223633,0.3154163360595703
0.3930421829223633,0.3154163360595703
0.3948566436767578,0.3151897430419922
0.3946426391601562,0.3151897430419922
0.3940492630004883,0.3150993347167969
0.3940492630004883,0.3150993347167969
0.3902847290039063,0.3083347320556640
0.3902847290039063,0.3083347320556640
0.3892684936523437,0.3060848236083984
0.3892684936523437,0.3060848236083984
0.3842084884643555,0.3016078948974609
0.3842084884643555,0.3016078948974609
0.3831224441528320,0.2977643966674804
0.3831224441528320,0.2977643966674804
0.3813457489013672,0.2969438552856445
0.3813457489013672,0.2969438552856445
0.3784057617187500,0.2914072036743164
0.3784057617187500,0.2914072036743164
0.3790895462036133,0.2916229248046875
0.3785396575927734,0.2916229248046875
0.3756534576416016,0.2895286560058594
0.3756534576416016,0.2895286560058594
0.3764688491821289,0.2883562088012695
0.3764688491821289,0.2883562088012695
0.3763006210327148,0.2898330688476562
0.3763006210327148,0.2898330688476562
0.3750205993652344,0.2866888046264648
0.3750205993652344,0.2866888046264648
0.3772556304931641,0.2890480041503906
0.3772556304931641,0.2890480041503906
0.3750171661376953,0.2888031005859375
0.3750171661376953,0.2888031005859375
0.3766347885131836,0.2883224487304688
0.3766347885131836,0.2883224487304688
0.3773197174072265,0.2913774490356445
0.3773197174072265,0.2913774490356445
0.3765953063964844,0.2890668869018554
0.3765953063964844,0.2890668869018554
0.3796566009521484,0.2925802230834961
0.3796566009521484,0.2925802230834961
0.3780035018920898,0.2930923461914062
0.3780035018920898,0.2930923461914062
0.3805423736572265,0.2941326141357422
0.3805423736572265,0.2941326141357422
0.3818115234375000,0.2978267669677734
0.3818115234375000,0.2978267669677734
0.3818950653076172,0.2969106674194336
0.3818950653076172,0.2969106674194336
0.3855440139770508,0.3010179519653320
0.3866403579711914,0.3010179519653320
0.3842096328735352,0.3023122787475586
0.3842096328735352,0.3023122787475586
0.3869939804077148,0.3036821365356445
0.3869939804077148,0.3036821365356445
0.3884450912475586,0.3075416564941406
0.3884450912475586,0.3075416564941406
0.3884119033813476,0.3058427810668945
0.3884119033813476,0.3058427810668945
0.3914142608642578,0.3091650009155273
0.3914142608642578,0.3091650009155273
0.3893039703369141,0.3093046188354492
0.3893039703369141,0.3093046188354492
0.3911121368408203,0.3089921951293945
0.3911121368408203,0.3089921951293945
0.3914348602294922,0.3112140655517578
0.3914348602294922,0.3112140655517578
0.3902996063232422,0.3080120086669922
0.3902996063232422,0.3080120086669922
0.3922182083129883,0.3101606369018555
0.3922182083129883,0.3101606369018555
0.3895797729492188,0.3092931747436523
0.3895797729492188,0.3092931747436523
0.3909158706665039,0.3086969375610352
0.3909158706665039,0.3086969375610352
0.3910737991333008,0.3106927871704102
0.3910737991333008,0.3106927871704102
0.3898155212402344,0.3077276229858398
0.3898155212402344,0.3077276229858398
0.3923761367797852,0.3102842330932617
0.3923761367797852,0.3102842330932617
0.3896724700927734,0.3095575332641601
0.3896724700927734,0.3095575332641601
0.3912986755371093,0.3092725753784180
0.3912986755371093,0.3092725753784180
0.3916019439697265,0.3115390777587890
0.3916019439697265,0.3115390777587890
0.3906360626220703,0.3089538574218750
0.3906360626220703,0.3089538574218750
0.3930582046508789,0.3115613937377930
0.3930582046508789,0.3115613937377930
0.3908380508422851,0.3111837387084961
0.3924968719482422,0.3111860275268555
0.3931543350219727,0.3140487670898438
0.3931543350219727,0.3140487670898438
0.3923309326171875,0.3114686965942383
0.3923309326171875,0.3114686965942383
0.3951324462890625,0.3146066665649414
0.3951324462890625,0.3146066665649414
0.3928516387939453,0.3144121170043945
0.3928516387939453,0.3144121170043945
0.3946535110473633,0.3141689300537109
0.3946535110473633,0.3141689300537109
0.3941053390502929,0.3146627426147461
0.3941053390502929,0.3146627426147461
0.3907985687255859,0.3081768035888672
0.3907985687255859,0.3081768035888672
0.3901588439941406,0.3063291549682617
0.3901588439941406,0.3063291549682617
0.3848321914672851,0.3019054412841797
0.3848321914672851,0.3019054412841797
0.3836494445800781,0.2975217819213867
0.3836494445800781,0.2975217819213867
0.3816198348999023,0.2963024139404297
0.3816198348999023,0.2963024139404297
0.3782426834106445,0.2902885437011719
0.3782426834106445,0.2902885437011719
0.3788160324096679,0.2903720855712891
0.3788160324096679,0.2903720855712891
0.3752180099487304,0.2880455017089844
0.3752180099487304,0.2880455017089844
0.3756259918212890,0.2863019943237304
0.3756259918212890,0.2863019943237304
0.3752557754516602,0.2875328063964844
0.3752557754516602,0.2875328063964844
0.3737377166748047,0.2842672348022461
0.3737377166748047,0.2842672348022461
0.3760368347167969,0.2863328933715820
0.3760368347167969,0.2863328933715820
0.3739465713500976,0.2863288879394531
0.3739465713500976,0.2863288879394531
0.3755338668823242,0.2862281799316406
0.3755338668823242,0.2862281799316406
0.3765529632568359,0.2893323898315430
0.3765529632568359,0.2893323898315430
0.3759979248046875,0.2874155044555664
0.3759979248046875,0.2874155044555664
0.3790689468383789,0.2907091140747070
0.3795049667358398,0.2907091140747070
0.3776687622070312,0.2917797088623047
0.3776687622070312,0.2917797088623047
0.3798339843750000,0.2926414489746094
0.3798339843750000,0.2926414489746094
0.3814882278442382,0.2962686538696289
0.3814882278442382,0.2962686538696289
0.3811597824096680,0.2951179504394531
0.3811597824096680,0.2951179504394531
0.3847103118896484,0.2989849090576172
0.3847103118896484,0.2989849090576172
0.3838199615478515,0.3006643295288086
0.3838199615478515,0.3006643295288086
0.3859302520751953,0.3016170501708984
0.3859302520751953,0.3016170501708984
0.3877132415771484,0.3052139282226562
0.3877132415771484,0.3052139282226562
0.3873029708862304,0.3038303375244141
0.3873029708862304,0.3038303375244141
0.3903636932373047,0.3070936203002930
0.3903636932373047,0.3070936203002930
0.3889423370361328,0.3077121734619140
0.3889423370361328,0.3077121734619140
0.3904644012451172,0.3077510833740234
0.3904644012451172,0.3077510833740234
0.3911287307739258,0.3100736618041992
0.3911287307739258,0.3100736618041992
0.3899883270263672,0.3076383590698242
0.3899883270263672,0.3076383590698242
0.3921638488769531,0.3096153259277344
0.3921638488769531,0.3096153259277344
0.3918600082397461,0.3101285934448242
0.3917209625244141,0.3101285934448242
0.3893074035644531,0.3083129882812500
0.3892679214477539,0.3083129882812500
0.3914194107055664,0.3085493087768554
0.3914194107055664,0.3085493087768554
0.3906377792358398,0.3094562530517578
0.3906377792358398,0.3094562530517578
0.3900203704833984,0.3074020385742187
0.3900203704833984,0.3074020385742187
0.3918651580810547,0.3100971221923828
0.3918651580810547,0.3100971221923828
0.3895162582397461,0.3086505889892578
0.3895162582397461,0.3086505889892578
0.3924562454223633,0.3093246459960937
0.3924562454223633,0.3093246459960937
0.3911664962768555,0.3108421325683594
0.3911664962768555,0.3108421325683594
0.3914697647094726,0.3101234436035156
0.3914697647094726,0.3101234436035156
0.3938209533691406,0.3129741668701172
0.3938209533691406,0.3129741668701172
0.3919601440429688,0.3119951248168945
0.3916660308837890,0.3119951248168945
0.3942157745361328,0.3124940872192383
0.3942157745361328,0.3124940872192383
0.3934862136840820,0.3146787643432617
0.3934862136840820,0.3146787643432617
0.3938037872314453,0.3136127471923828
0.3938037872314453,0.3136127471923828
0.3966945648193359,0.3169017791748047
0.3966945648193359,0.3169017791748047
0.3940790176391601,0.3156858444213867
0.3940790176391601,0.3156858444213867
0.3964633941650391,0.3156217575073242
0.3964633941650391,0.3156217575073242
0.3935937881469727,0.3135927200317383
0.3935937881469727,0.3135927200317383
0.3905061721801757,0.3068927764892578
0.3905061721801757,0.3068927764892578
0.3888467788696289,0.3046566009521484
0.3888467788696289,0.3046566009521484
0.3835504531860351,0.2994632720947266
0.3835504531860351,0.2994632720947266
0.3836019515991211,0.2965559005737304
0.3836019515991211,0.2965559005737304
0.3808593750000000,0.2945852279663086
0.3798717498779297,0.2945852279663086
0.3784235000610351,0.2899280548095703
0.3784235000610351,0.2899280548095703
0.3787485122680664,0.2905735015869140
0.3787485122680664,0.2905735015869140
0.3750949859619140,0.2874441146850586
0.3750949859619140,0.2874441146850586
0.3773712158203125,0.2870664596557617
0.3773712158203125,0.2870664596557617
0.3754686355590820,0.2875442504882812
0.3754686355590820,0.2875442504882812
0.3754268646240234,0.2862396240234375
0.3754268646240234,0.2862396240234375
0.3775588989257813,0.2890542984008789
0.3775588989257813,0.2890542984008789
0.3756877899169922,0.2879859924316406
0.3756877899169922,0.2879859924316406
0.3783742904663086,0.2890680313110351
0.3783742904663086,0.2890680313110351
0.3779085159301758,0.2914987564086914
0.3779085159301758,0.2914987564086914
0.3785940170288086,0.2908441543579102
0.3785940170288086,0.2908441543579102
0.3818470001220703,0.2946556091308594
0.3818470001220703,0.2946556091308594
0.3796354293823242,0.2941663742065430
0.3796354293823242,0.2941663742065430
0.3834257125854492,0.2965101242065429
0.3834257125854492,0.2965101242065429
0.3836872100830078,0.2997728347778320
0.3836872100830078,0.2997728347778320
0.3852624893188477,0.2998374938964843
0.3852624893188477,0.2998374938964843
0.3882762908935547,0.3039533615112305
0.3882762908935547,0.3039533615112305
0.3864389419555664,0.3041851043701172
0.3864389419555664,0.3041851043701172
0.3902664184570312,0.3063365936279297
0.3902664184570312,0.3063365936279297
0.3905324935913086,0.3089189529418945
0.3905324935913086,0.3089189529418945
0.3908454895019531,0.3081075668334961
0.3908454895019531,0.3081075668334961
0.3935268402099609,0.3117948532104492
0.3935268402099609,0.3117948532104492
0.3910726547241211,0.3105171203613281
0.3910726547241211,0.3105171203613281
0.3944732666015625,0.3115516662597656
0.3944732666015625,0.3115516662597656
0.3930456161499024,0.3128345489501953
0.3930456161499024,0.3128345489501953
0.3927480697631836,0.3109622955322265
0.3927480697631836,0.3109622955322265
0.3946374893188476,0.3134714126586914
0.3946374893188476,0.3134714126586914
0.3918754577636719,0.3112998962402344
0.3918754577636719,0.3112998962402344
0.3940973281860352,0.3114315032958984
0.3940973281860352,0.3114315032958984
0.3926410675048828,0.3124872207641601
0.3926410675048828,0.3124872207641601
0.3922325134277344,0.3103219985961914
0.3922325134277344,0.3103219985961914
0.3944355010986328,0.3125547409057617
0.3944355010986328,0.3125547409057617
0.3910383224487304,0.3106023788452149
0.3910383224487304,0.3106023788452149
0.3938730239868164,0.3114944458007812
0.3938730239868164,0.3114944458007812
0.3931148529052734,0.3130954742431640
0.3931148529052734,0.3130954742431640
0.3933734893798828,0.3111694335937500
0.3933734893798828,0.3111694335937500
0.3948451995849609,0.3134010314941406
0.3948451995849609,0.3134010314941406
0.3920402526855469,0.3122509002685547
0.3920402526855469,0.3122509002685547
0.3948949813842773,0.3132184982299804
0.3948949813842773,0.3132184982299804
0.3948348999023437,0.3151308059692383
0.3948348999023437,0.3151308059692383
0.3945974349975586,0.3137878417968750
0.3948858261108398,0.3137878417968750
0.3971729278564453,0.3173326492309570
0.3971729278564453,0.3173326492309570
0.3947616577148437,0.3163244247436524
0.3950666427612304,0.3163244247436524
0.3976512908935547,0.3165475845336914
0.3976512908935547,0.3165475845336914
0.3947708129882813,0.3146455764770508
0.3947708129882813,0.3146455764770508
0.3911705017089844,0.3075576782226562
0.3911705017089844,0.3075576782226562
0.3895534515380859,0.3049512863159179
0.3895534515380859,0.3049512863159179
0.3841054916381836,0.2989591598510742
0.3841054916381836,0.2989591598510742
0.3832208633422852,0.2953382492065429
0.3832208633422852,0.2953382492065429
0.3801017761230469,0.2936044692993164
0.3801017761230469,0.2936044692993164
0.3778312683105469,0.2891098022460937
0.3778312683105469,0.2891098022460937
0.3790403366088867,0.2896945953369141
0.3790403366088867,0.2896945953369141
0.3748249053955078,0.2868673324584961
0.3747694015502930,0.2868673324584961
0.3768201828002929,0.2867574691772461
0.3768201828002929,0.2867574691772461
0.3760110855102539,0.2880678176879883
0.3760110855102539,0.2880678176879883
0.3761981964111328,0.2863277435302734
0.3761981964111328,0.2863277435302734
0.3781768798828125,0.2891235351562500
0.3781768798828125,0.2891235351562500
0.3758731842041015,0.2884288787841797
0.3758731842041015,0.2884288787841797
0.3788148880004883,0.2897626876831055
0.3788148880004883,0.2897626876831055
0.3792188644409180,0.2921087265014649
0.3792188644409180,0.2921087265014649
0.3790884017944336,0.2910221099853516
0.3790884017944336,0.2910221099853516
0.3821851730346680,0.2949811935424805
0.3821851730346680,0.2949811935424805
0.3802122116088867,0.2948701858520508
0.3802122116088867,0.2948701858520508
0.3842771530151367,0.2967235565185547
0.3842771530151367,0.2967235565185547
0.3840900421142578,0.2995674133300781
0.3840900421142578,0.2995674133300781
0.3848997116088867,0.2994976043701172
0.3848997116088867,0.2994976043701172
0.3882768630981445,0.3038492202758789
0.3882768630981445,0.3038492202758789
0.3868509292602539,0.3039916992187500
0.3868509292602539,0.3039916992187500
0.3896684646606445,0.3054971694946289
0.3896684646606445,0.3054971694946289
0.3900970458984375,0.3084909439086914
0.3900970458984375,0.3084909439086914
0.3906068801879883,0.3076200485229492
0.3906068801879883,0.3076200485229492
0.3935840606689453,0.3108512878417969
0.3935840606689453,0.3108512878417969
0.3905307769775391,0.3096296310424805
0.3905307769775391,0.3096296310424805
0.3930084228515625,0.3100576400756836
0.3930084228515625,0.3100576400756836
0.3922554016113281,0.3111373901367188
0.3922554016113281,0.3111373901367188
0.3917798995971680,0.3084348678588867
0.3917798995971680,0.3084348678588867
0.3928956985473633,0.3098802566528320
0.3928956985473633,0.3098802566528320
0.3893697738647461,0.3077785491943359
0.3893697738647461,0.3077785491943359
0.3909461975097656,0.3071187973022461
0.3909461975097656,0.3071187973022461
0.3903865814208984,0.3080600738525390
0.3903865814208984,0.3080600738525390
0.3894012451171875,0.3056070327758789
0.3894012451171875,0.3056070327758789
0.3914886474609375,0.3081693649291992
0.3914886474609375,0.3081693649291992
0.3886837005615234,0.3068550109863281
0.3886837005615234,0.3068550109863281
0.3911945343017578,0.3067680358886719
0.3911945343017578,0.3067680358886719
0.3902921676635742,0.3081888198852539
0.3902921676635742,0.3081888198852539
0.3900329589843750,0.3068647384643555
0.3900329589843750,0.3068647384643555
0.3926027297973633,0.3099918365478516
0.3926027297973633,0.3099918365478516
0.3908523559570312,0.3095169067382812
0.3908523559570312,0.3095169067382812
0.3932682037353515,0.3108415603637695
0.3932682037353515,0.3108415603637695
0.3940046310424805,0.3141838073730469
0.3940046310424805,0.3141838073730469
0.3950300216674805,0.3138874053955078
0.3950300216674805,0.3138874053955078
0.3985897064208984,0.3185520172119141
0.3985897064208984,0.3185520172119141
0.3966453552246094,0.3191310882568359
0.3966453552246094,0.3191310882568359
0.4002359390258789,0.3211938858032227
0.4002359390258789,0.3211938858032227
0.4001546859741211,0.3227216720581055
0.4001546859741211,0.3227216720581055
0.3980672836303711,0.3165538787841797
0.3980672836303711,0.3165538787841797
0.3952795028686523,0.3116930007934570
0.3952795028686523,0.3116930007934570
0.3874683380126953,0.3040798187255859
0.3874683380126953,0.3040798187255859
0.3862049102783203,0.2996658325195312
0.3862049102783203,0.2996658325195312
0.3834033966064453,0.2973518371582031
0.3834033966064453,0.2973518371582031
0.3803066253662109,0.2918123245239257
0.3792732238769531,0.2918123245239257
0.3807077407836914,0.2922105789184570
0.3799095153808594,0.2922105789184570
0.3763681411743164,0.2890216827392578
0.3784114837646484,0.2890216827392578
0.3782598495483399,0.2880712509155273
0.3782598495483399,0.2880712509155273
0.3768505096435547,0.2887979507446289
0.3768505096435547,0.2887979507446289
0.3762548446655273,0.2862602233886719
0.3762548446655273,0.2862602233886719
0.3781225204467774,0.2888557434082031
0.3780807495117187,0.2888557434082031
0.3758090972900390,0.2877714157104492
0.3758090972900390,0.2877714157104492
0.3781728744506836,0.2883001327514648
0.3781728744506836,0.2883001327514648
0.3781723022460937,0.2910015106201172
0.3781723022460937,0.2910015106201172
0.3784114837646484,0.2894279479980469
0.3784114837646484,0.2894279479980469
0.3815071105957031,0.2930099487304688
0.3815071105957031,0.2930099487304688
0.3788904190063476,0.2925996780395508
0.3788904190063476,0.2925996780395508
0.3822383880615234,0.2943214416503906
0.3822383880615234,0.2943214416503906
0.3828105926513672,0.2975017547607422
0.3828105926513672,0.2975017547607422
0.3836322784423828,0.2967441558837891
0.3836322784423828,0.2967441558837891
0.3866592407226562,0.3009263992309570
0.3866592407226562,0.3009263992309570
0.3847452163696289,0.3014036178588867
0.3847452163696289,0.3014036178588867
0.3883489608764648,0.3033021926879882
0.3883489608764648,0.3033021926879882
0.3892593383789062,0.3065036773681640
0.3892593383789062,0.3065036773681640
0.3891992568969727,0.3051641464233398
0.3891992568969727,0.3051641464233398
0.3920345306396484,0.3091157913208007
0.3920345306396484,0.3091157913208007
0.3895214080810547,0.3083066940307617
0.3895214080810547,0.3083066940307617
0.3926610946655273,0.3089183807373047
0.3926610946655273,0.3089183807373047
0.3920082092285156,0.3106321334838867
0.3920082092285156,0.3106321334838867
0.3913043975830078,0.3081230163574218
0.3913043975830078,0.3081230163574218
0.3918743133544922,0.3086231231689453
0.3906137466430664,0.3086231231689453
0.3926994323730469,0.3107992172241211
0.3926994323730469,0.3107992172241211
0.3907287597656250,0.3082798004150391
0.3907287597656250,0.3082798004150391
0.3930238723754882,0.3092668533325195
0.3930238723754882,0.3092668533325195
0.3909210205078125,0.3092187881469726
0.3909210205078125,0.3092187881469726
0.3912403106689453,0.3076887130737305
0.3912403106689453,0.3076887130737305
0.3920528411865234,0.3099420547485351
0.3920528411865234,0.3099420547485351
0.3903676986694336,0.3079690933227539
0.3903676986694336,0.3079690933227539
0.3931011199951172,0.3093973159790039
0.3931011199951172,0.3093973159790039
0.3915040969848633,0.3100421905517578
0.3915040969848633,0.3100421905517578
0.3922754287719726,0.3091455459594726
0.3922754287719726,0.3091455459594726
0.3935262680053711,0.3120477676391601
0.3935262680053711,0.3120477676391601
0.3920642852783203,0.3104404449462890
0.3920642852783203,0.3104404449462890
0.3949985504150391,0.3122600555419922
0.3949985504150391,0.3122600555419922
0.3934839248657226,0.3132385253906250
0.3934839248657226,0.3132385253906250
0.3944692611694336,0.3126256942749023
0.3944692611694336,0.3126256942749023
0.3958848953247070,0.3154895782470703
0.3964015960693359,0.3154895782470703
0.3943593978881836,0.3132917404174805
0.3943593978881836,0.3132917404174805
0.3959083557128906,0.3130176544189453
0.3959083557128906,0.3130176544189453
0.3918205261230469,0.3099266052246094
0.3918205261230469,0.3099266052246094
0.3893972396850586,0.3043956756591797
0.3893972396850586,0.3043956756591797
0.3876789093017578,0.3029188156127929
0.3876789093017578,0.3029188156127929
0.3835418701171875,0.2975240707397461
0.3835418701171875,0.2975240707397461
0.3838714599609375,0.2957914352416992
0.3838714599609375,0.2957914352416992
0.3804239273071289,0.2937309265136719
0.3804239273071289,0.2937309265136719
0.3793933868408203,0.2903635025024414
0.3793933868408203,0.2903635025024414
0.3789682388305664,0.2910409927368164
0.3789682388305664,0.2910409927368164
0.3766902923583984,0.2879053115844726
0.3766902923583984,0.2879053115844726
0.3784704208374023,0.2883064270019531
0.3784704208374023,0.2883064270019531
0.3766822814941406,0.2887178421020508
0.3766822814941406,0.2887178421020508
0.3770954132080078,0.2872123718261719
0.3770954132080078,0.2872123718261719
0.3783067703247070,0.2900184631347656
0.3783067703247070,0.2900184631347656
0.3768236160278320,0.2885107040405273
0.3768236160278320,0.2885107040405273
0.3798259735107422,0.2903297424316406
0.3798259735107422,0.2903297424316406
0.3787570953369140,0.2915662765502929
0.3787570953369140,0.2915662765502929
0.3796720504760742,0.2911027908325195
0.3796720504760742,0.2911027908325195
0.3814916610717773,0.2942745208740234
0.3814916610717773,0.2942745208740234
0.3804176330566406,0.2934173583984375
0.3804176330566406,0.2934173583984375
0.3836019515991211,0.2955024719238281
0.3836019515991211,0.2955024719238281
0.3828552246093750,0.2976219177246094
0.3828552246093750,0.2976219177246094
0.3842302322387695,0.2975034713745117
0.3842302322387695,0.2975034713745117
0.3862106323242188,0.3010648727416992
0.3862106323242188,0.3010648727416992
0.3851045608520507,0.3001613616943359
0.3851045608520507,0.3001613616943359
0.3881212234497070,0.3023305892944336
0.3881212234497070,0.3023305892944336
0.3871107101440430,0.3037874221801758
0.3871107101440430,0.3037874221801758
0.3880004882812500,0.3031505584716797
0.3880004882812500,0.3031505584716797
0.3896490097045898,0.3056980133056640
0.3896490097045898,0.3056980133056640
0.3880062103271484,0.3042903900146484
0.3880062103271484,0.3042903900146484
0.3905462265014648,0.3056854248046875
0.3905462265014648,0.3056854248046875
0.3892330169677734,0.3066759109497070
0.3892330169677734,0.3066759109497070
0.3897274017333984,0.3053398132324219
0.3897274017333984,0.3053398132324219
0.3907751083374023,0.3076137542724609
0.3907751083374023,0.3076137542724609
0.3887798309326172,0.3054622650146484
0.3887798309326172,0.3054622650146484
0.3910823822021484,0.3064619064331054
0.3910823822021484,0.3064619064331054
0.3896490097045898,0.3073162078857422
0.3896490097045898,0.3073162078857422
0.3900987625122070,0.3064069747924805
0.3900987625122070,0.3064069747924805
0.3917478561401367,0.3091300964355468
0.3917478561401367,0.3091300964355468
0.3905324935913086,0.3080474853515625
0.3905324935913086,0.3080474853515625
0.3932476043701172,0.3098962783813476
0.3932476043701172,0.3098962783813476
0.3924728393554687,0.3119573593139648
0.3924728393554687,0.3119573593139648
0.3938552856445313,0.3119625091552734
0.3938552856445313,0.3119625091552734
0.3960124969482422,0.3157241821289062
0.3960124969482422,0.3157241821289062
0.3950082778930664,0.3151582717895507
0.3950082778930664,0.3151582717895507
0.3984157562255859,0.3177721023559570
0.3984157562255859,0.3177721023559570
0.3976867675781250,0.3196117401123047
0.3976867675781250,0.3196117401123047
0.3988460540771484,0.3194314956665039
0.3988460540771484,0.3194314956665039
0.4007966995239258,0.3230106353759766
0.4011674880981445,0.3230106353759766
0.3996740341186523,0.3221231460571289
0.3996740341186523,0.3221231460571289
0.4022884368896484,0.3232252120971680
0.4022884368896484,0.3232252120971680
0.3999389648437500,0.3221042633056641
0.3999389648437500,0.3221042633056641
0.3972993850708008,0.3155570983886719
0.3972993850708008,0.3155570983886719
0.3937540054321289,0.3109823226928711
0.3937540054321289,0.3109823226928711
0.3876823425292968,0.3032615661621094
0.3876823425292968,0.3032615661621094
0.3870895385742187,0.2999805450439453
0.3870895385742187,0.2999805450439453
0.3826515197753906,0.2969701766967773
0.3826515197753906,0.2969701766967773
0.3810081481933594,0.2926368713378906
0.3810081481933594,0.2926368713378906
0.3805709838867187,0.2925321578979492
0.3805709838867187,0.2925321578979492
0.3774421691894531,0.2890033721923828
0.3774421691894531,0.2890033721923828
0.3788801193237304,0.2887762069702148
0.3788801193237304,0.2887762069702148
0.3768310546875000,0.2890737533569336
0.3768310546875000,0.2890737533569336
0.3771280288696289,0.2872655868530273
0.3771280288696289,0.2872655868530273
0.3784166336059570,0.2898427963256836
0.3784166336059570,0.2898427963256836
0.3767171859741211,0.2881536483764648
0.3767171859741211,0.2881536483764648
0.3797378540039062,0.2901134490966797
0.3797378540039062,0.2901134490966797
0.3784023284912109,0.2910942077636718
0.3784023284912109,0.2910942077636718
0.3793756484985352,0.2903789520263672
0.3793756484985352,0.2903789520263672
0.3812759399414062,0.2937475204467773
0.3812759399414062,0.2937475204467773
0.3799856185913086,0.2928703308105469
0.3799856185913086,0.2928703308105469
0.3833959579467773,0.2952461242675781
0.3833959579467773,0.2952461242675781
0.3824993133544922,0.2971429824829102
0.3824993133544922,0.2971429824829102
0.3839269638061523,0.2969181060791016
0.3839269638061523,0.2969181060791016
0.3860670089721679,0.3009813308715820
0.3860670089721679,0.3009813308715820
0.3850965499877930,0.3004611968994140
0.3850965499877930,0.3004611968994140
0.3887054443359375,0.3031608581542969
0.3887054443359375,0.3031608581542969
0.3879959106445313,0.3049283981323242
0.3879959106445313,0.3049283981323242
0.3890487670898438,0.3045873641967773
0.3890487670898438,0.3045873641967773
0.3909250259399414,0.3079994201660156
0.3909250259399414,0.3079994201660156
0.3895528793334961,0.3067319869995117
0.3895528793334961,0.3067319869995117
0.3923360824584961,0.3081310272216797
0.3923360824584961,0.3081310272216797
0.3904512405395508,0.3084085464477539
0.3904512405395508,0.3084085464477539
0.3905839920043945,0.3065254211425781
0.3905839920043945,0.3065254211425781
0.3915962219238281,0.3086448669433594
0.3915962219238281,0.3086448669433594
0.3891775131225586,0.3062530517578125
0.3891775131225586,0.3062530517578125
0.3914806365966797,0.3070535659790039
0.3914806365966797,0.3070535659790039
0.3897417068481445,0.3073780059814453
0.3897417068481445,0.3073780059814453
0.3899929046630859,0.3057672500610352
0.3899929046630859,0.3057672500610352
0.3912294387817383,0.3082403182983398
0.3912294387817383,0.3082403182983398
0.3892879486083984,0.3066970825195313
0.3892879486083984,0.3066970825195313
0.3920408248901367,0.3079336166381836
0.3920408248901367,0.3079336166381836
0.3908843994140625,0.3094367980957031
0.3908843994140625,0.3094367980957031
0.3914388656616211,0.3079925537109375
0.3914388656616211,0.3079925537109375
0.3932659149169922,0.3111660003662109
0.3932659149169922,0.3111660003662109
0.3915109634399414,0.3100095748901367
0.3915109634399414,0.3100095748901367
0.3945327758789062,0.3114549636840820
0.3945327758789062,0.3114549636840820
0.3934684753417969,0.3129106521606445
0.3934684753417969,0.3129106521606445
0.3941574096679688,0.3124534606933594
0.3941574096679688,0.3124534606933594
0.3963615417480469,0.3158975601196289
0.3963615417480469,0.3158975601196289
0.3948446273803711,0.3152790069580078
0.3948446273803711,0.3152790069580078
0.3979991912841797,0.3170299530029297
0.3979991912841797,0.3170299530029297
0.3970682144165039,0.3184404373168945
0.3974882125854492,0.3184404373168945
0.3966791152954102,0.3152790069580078
0.3966791152954102,0.3152790069580078
0.3956514358520508,0.3135435104370117
0.3956514358520508,0.3135435104370117
0.3896953582763672,0.3065042495727539
0.3896953582763672,0.3065042495727539
0.3887535095214844,0.3029829025268554
0.3887535095214844,0.3029829025268554
0.3850044250488281,0.2999588012695312
0.3850044250488281,0.2999588012695312
0.3830915451049804,0.2954664230346680
0.3830915451049804,0.2954664230346680
0.3827396392822265,0.2953182220458984
0.3827396392822265,0.2953182220458984
0.3790672302246094,0.2916887283325195
0.3790672302246094,0.2916887283325195
0.3803964614868164,0.2907840728759766
0.3803964614868164,0.2907840728759766
0.3783617019653320,0.2903348922729492
0.3783617019653320,0.2903348922729492
0.3780555725097656,0.2883275985717773
0.3780555725097656,0.2883275985717773
0.3791959762573242,0.2904132843017578
0.3791959762573242,0.2904132843017578
0.3769105911254882,0.2885335922241211
0.3769105911254882,0.2885335922241211
0.3794723510742187,0.2893850326538086
0.3794723510742187,0.2893850326538086
0.3782741546630859,0.2902547836303711
0.3782741546630859,0.2902547836303711
0.3785654067993164,0.2892591476440430
0.3785654067993164,0.2892591476440430
0.3805612564086914,0.2922523498535156
0.3805612564086914,0.2922523498535156
0.3787096023559570,0.2912137985229492
0.3787096023559570,0.2912137985229492
0.3817417144775391,0.2927839279174805
0.3817417144775391,0.2927839279174805
0.3810819625854492,0.2947397232055664
0.3810819625854492,0.2947397232055664
0.3821325302124023,0.2943866729736328
0.3821325302124023,0.2943866729736328
0.3847028732299805,0.2982461929321289
0.3847028732299805,0.2982461929321289
0.3831172943115234,0.2977163314819336
0.3831172943115234,0.2977163314819336
0.3867547988891601,0.2999010086059570
0.3867547988891601,0.2999010086059570
0.3865413665771484,0.3025291442871094
0.3865413665771484,0.3025291442871094
0.3875988006591797,0.3020290374755859
0.3875988006591797,0.3020290374755859
0.3898756027221680,0.3057151794433594
0.3898756027221680,0.3057151794433594
0.3879833221435547,0.3045158386230469
0.3879833221435547,0.3045158386230469
0.3907035827636718,0.3057437896728515
0.3907035827636718,0.3057437896728515
0.3898292541503906,0.3067411422729492
0.3916013717651367,0.3067411422729492
0.3917158126831055,0.3067646026611328
0.3917158126831055,0.3067646026611328
0.3909976959228516,0.3064430236816406
0.3909976959228516,0.3064430236816406
0.3919635772705078,0.3093252182006836
0.3919635772705078,0.3093252182006836
0.3906949996948242,0.3066524505615234
0.3906949996948242,0.3066524505615234
0.3934324264526367,0.3098447799682617
0.3934324264526367,0.3098447799682617
0.3918342590332031,0.3106498718261719
0.3918342590332031,0.3106498718261719
0.3942718505859375,0.3111408233642578
0.3942718505859375,0.3111408233642578
0.3949790954589844,0.3142141342163086
0.3949790954589844,0.3142141342163086
0.3945545196533203,0.3125633239746093
0.3945545196533203,0.3125633239746093
0.3973199844360352,0.3155467987060547
0.3973199844360352,0.3155467987060547
0.3957538604736328,0.3156938552856445
0.3957538604736328,0.3156938552856445
0.3970870971679688,0.3154684066772461
0.3970870971679688,0.3154684066772461
0.3978452682495117,0.3182802200317383
0.3978452682495117,0.3182802200317383
0.3969491958618164,0.3162220001220703
0.3969491958618164,0.3162220001220703
0.4000316619873047,0.3191402435302734
0.4000316619873047,0.3191402435302734
0.3977405548095703,0.3191717147827148
0.3977405548095703,0.3191717147827148
0.3995893478393555,0.3195865631103516
0.3995893478393555,0.3195865631103516
0.4004762649536133,0.3225603103637695
0.4004762649536133,0.3225603103637695
0.4002611160278320,0.3207349777221680
0.4002611160278320,0.3207349777221680
0.4026489257812500,0.3232852935791016
0.4026489257812500,0.3232852935791016
0.3997690200805664,0.3220779418945313
0.3997690200805664,0.3220779418945313
0.3991756439208984,0.3176639556884766
0.3991756439208984,0.3176639556884766
0.3958179473876953,0.3133867263793945
0.3933277130126953,0.3133867263793945
0.3898624420166015,0.3044242858886719
0.3898624420166015,0.3044242858886719
0.3890281677246094,0.3025165557861328
0.3890281677246094,0.3025165557861328
0.3839916229248047,0.2986078262329102
0.3839916229248047,0.2986078262329102
0.3838153839111328,0.2949874877929687
0.3838153839111328,0.2949874877929687
0.3820707321166992,0.2946882247924805
0.3820707321166992,0.2946882247924805
0.3793607711791992,0.2902410507202148
0.3793607711791992,0.2902410507202148
0.3810121536254883,0.2913682937622070
0.3810121536254883,0.2913682937622070
0.3785064697265625,0.2903314590454101
0.3785556793212890,0.2903314590454101
0.3795215606689453,0.2893787384033203
0.3795215606689453,0.2893787384033203
0.3799341201782226,0.2921464920043945
0.3799341201782226,0.2921464920043945
0.3790334701538086,0.2897993087768554
0.3790334701538086,0.2897993087768554
0.3824083328247070,0.2928668975830078
0.3824083328247070,0.2928668975830078
0.3801538467407227,0.2932680130004883
0.3801538467407227,0.2932680130004883
0.3824289321899414,0.2939580917358398
0.3824289321899414,0.2939580917358398
0.3838497161865234,0.2977197647094726
0.3838497161865234,0.2977197647094726
0.3839309692382812,0.2965398788452148
0.3839309692382812,0.2965398788452148
0.3872629165649414,0.3004371643066406
0.3872629165649414,0.3004371643066406
0.3865213394165039,0.3027065277099609
0.3865213394165039,0.3027065277099609
0.3895843505859375,0.3046073913574219
0.3895843505859375,0.3046073913574219
0.3923601150512695,0.3098711013793945
0.3923601150512695,0.3098711013793945
0.3925065994262695,0.3094001770019531
0.3925065994262695,0.3094001770019531
0.3962619781494141,0.3137214660644531
0.3962619781494141,0.3137214660644531
0.3949235916137695,0.3149471282958984
0.3949235916137695,0.3149471282958984
0.3972621917724609,0.3153379440307617
0.3972621917724609,0.3153379440307617
0.3975677490234375,0.3174745559692383
0.3975677490234375,0.3174745559692383
0.3960296630859375,0.3146827697753906
0.3960296630859375,0.3146827697753906
0.3980792999267578,0.3161418914794922
0.3980792999267578,0.3161418914794922
0.3958797454833984,0.3150815963745117
0.3952262878417969,0.3150815963745117
0.3954700469970703,0.3126388549804687
0.3954700469970703,0.3126388549804687
0.3950471878051758,0.3136865615844727
0.3950471878051758,0.3136865615844727
0.3927824020385742,0.3096502304077148
0.3927824020385742,0.3096502304077148
0.3946924209594727,0.3104782104492188
0.3946924209594727,0.3104782104492188
0.3915281295776367,0.3093572616577148
0.3915281295776367,0.3093572616577148
0.3920585632324219,0.3081584930419922
0.3920585632324219,0.3081584930419922
0.3923463821411133,0.3099060058593750
0.3923463821411133,0.3099060058593750
0.3911035537719726,0.3070976257324219
0.3911035537719726,0.3070976257324219
0.3931251525878906,0.3088245391845703
0.3931251525878906,0.3088245391845703
0.3912328720092773,0.3092033386230469
0.3912328720092773,0.3092033386230469
0.3924402236938476,0.3089876174926758
0.3924402236938476,0.3089876174926758
0.3940177917480469,0.3118486404418945
0.3940177917480469,0.3118486404418945
0.3925672531127929,0.3098699569702149
0.3925672531127929,0.3098699569702149
0.3955587387084961,0.3129283905029297
0.3955587387084961,0.3129283905029297
0.3945276260375977,0.3144327163696289
0.3945276260375977,0.3144327163696289
0.3968090057373047,0.3146953582763672
0.3968090057373047,0.3146953582763672
0.3980924606323242,0.3184020996093750
0.3980924606323242,0.3184020996093750
0.3976644515991211,0.3176937103271484
0.3976644515991211,0.3176937103271484
0.4010427474975586,0.3210960388183594
0.4010427474975586,0.3210960388183594
0.4003646850585937,0.3220344543457031
0.4003646850585937,0.3220344543457031
0.4007423400878906,0.3200077056884765
0.3997426986694336,0.3200077056884765
0.3990062713623047,0.3185222625732422
0.3990062713623047,0.3185222625732422
0.3931640625000000,0.3096828460693359
0.3931640625000000,0.3096828460693359
0.3921060562133789,0.3058267593383789
0.3921060562133789,0.3058267593383789
0.3865591049194336,0.3014425277709961
0.3865591049194336,0.3014425277709961
0.3850576400756836,0.2973575592041016
0.3850576400756836,0.2973575592041016
0.3836082458496093,0.2966714859008789
0.3836082458496093,0.2966714859008789
0.3806150436401367,0.2914569854736328
0.3806150436401367,0.2914569854736328
0.3810636520385742,0.2910181045532226
0.3810636520385742,0.2910181045532226
0.3781425476074219,0.2898988723754883
0.3781425476074219,0.2898988723754883
0.3782661437988281,0.2878686904907227
0.3782661437988281,0.2878686904907227
0.3789007186889649,0.2895687103271484
0.3789007186889649,0.2895687103271484
0.3766359329223632,0.2865600585937500
0.3766359329223632,0.2865600585937500
0.3790803909301758,0.2884197235107422
0.3790803909301758,0.2884197235107422
0.3772842407226563,0.2888191223144531
0.3772842407226563,0.2888191223144531
0.3788337707519531,0.2881439208984375
0.3788337707519531,0.2881439208984375
0.3794540405273437,0.2906948089599609
0.3794540405273437,0.2906948089599609
0.3785139083862304,0.2891595840454101
0.3785139083862304,0.2891595840454101
0.3817113876342773,0.2922735214233398
0.3817113876342773,0.2922735214233398
0.3811660766601562,0.2938985824584961
0.3811660766601562,0.2938985824584961
0.3824913024902344,0.2938007354736328
0.3824913024902344,0.2938007354736328
0.3841089248657226,0.2976934432983399
0.3841089248657226,0.2976934432983399
0.3835441589355469,0.2966142654418945
0.3835441589355469,0.2966142654418945
0.3874563217163086,0.3000846862792969
0.3874563217163086,0.3000846862792969
0.3863245010375976,0.3017789840698242
0.3863245010375976,0.3017789840698242
0.3881830215454101,0.3022676467895508
0.3881830215454101,0.3022676467895508
0.3899087905883789,0.3061426162719726
0.3899087905883789,0.3061426162719726
0.3897628784179688,0.3049930572509765
0.3897628784179688,0.3049930572509765
0.3925992965698242,0.3078386306762695
0.3925992965698242,0.3078386306762695
0.3919441223144531,0.3099386215209961
0.3919441223144531,0.3099386215209961
0.3936790466308593,0.3104730606079101
0.3936790466308593,0.3104730606079101
0.3959850311279297,0.3141454696655273
0.3959850311279297,0.3141454696655273
0.3946140289306641,0.3125061035156250
0.3946140289306641,0.3125061035156250
0.3974006652832031,0.3149911880493164
0.3974006652832031,0.3149911880493164
0.3959438323974609,0.3156005859375000
0.3959438323974609,0.3156005859375000
0.3973400115966797,0.3148761749267578
0.3973400115966797,0.3148761749267578
0.3977376937866211,0.3171890258789062
0.3977376937866211,0.3171890258789062
0.3962551116943359,0.3151514053344727
0.3962551116943359,0.3151514053344727
0.3988082885742187,0.3168817520141601
0.3987184524536133,0.3168817520141601
0.3972215652465820,0.3172336578369140
0.3972215652465820,0.3172336578369140
0.3978263854980469,0.3160663604736328
0.3978263854980469,0.3160663604736328
0.3982692718505859,0.3187276840209961
0.3982692718505859,0.3187276840209961
0.3970327377319336,0.3166236877441406
0.3970327377319336,0.3166236877441406
0.4003103256225586,0.3187402725219726
0.4003103256225586,0.3187402725219726
0.3980775833129883,0.3190114974975586
0.3980775833129883,0.3190114974975586
0.3993404388427734,0.3187345504760742
0.3991052627563477,0.3187345504760742
0.4004510879516601,0.3216716766357422
0.4004510879516601,0.3216716766357422
0.3996540069580078,0.3199825286865234
0.3996540069580078,0.3199825286865234
0.4023141860961914,0.3221883773803711
0.4023141860961914,0.3221883773803711
0.4006319046020508,0.3233402252197266
0.4006319046020508,0.3233402252197266
0.4019165039062500,0.3222656250000000
0.4010799407958984,0.3222656250000000
0.4018283843994140,0.3223663330078125
0.4018283843994140,0.3223663330078125
0.3965326309204101,0.3143342971801757
0.3965326309204101,0.3143342971801757
0.3943874359130859,0.3095100402832031
0.3943874359130859,0.3095100402832031
0.3885143280029297,0.3044042587280273
0.3885143280029297,0.3044042587280273
0.3868829727172852,0.2993202209472656
0.3868829727172852,0.2993202209472656
0.3846708297729492,0.2980407714843750
0.3846708297729492,0.2980407714843750
0.3809789657592773,0.2927627563476562
0.3809789657592773,0.2927627563476562
0.3818355560302734,0.2922351837158203
0.3818355560302734,0.2922351837158203
0.3786231994628906,0.2905838012695313
0.3786231994628906,0.2905838012695313
0.3783651351928711,0.2879259109497070
0.3783651351928711,0.2879259109497070
0.3785219192504883,0.2898805618286133
0.3785219192504883,0.2898805618286133
0.3765930175781250,0.2870836257934570
0.3765930175781250,0.2870836257934570
0.3794666290283203,0.2887968063354492
0.3794666290283203,0.2887968063354492
0.3770971298217773,0.2889175415039062
0.3770971298217773,0.2889175415039062
0.3782461166381836,0.2884346008300781
0.3782461166381836,0.2884346008300781
0.3796846389770508,0.2916698455810547
0.3796846389770508,0.2916698455810547
0.3789138793945312,0.2900207519531250
0.3789138793945312,0.2900207519531250
0.3817508697509766,0.2922855377197265
0.3817508697509766,0.2922855377197265
0.3804199218750000,0.2937623977661133
0.3804199218750000,0.2937623977661133
0.3820907592773438,0.2940416336059570
0.3820907592773438,0.2940416336059570
0.3842943191528320,0.2977855682373047
0.3845031738281250,0.2977855682373047
0.3831985473632812,0.2967355728149414
0.3831985473632812,0.2967355728149414
0.3868978500366211,0.3001167297363281
0.3868978500366211,0.3001167297363281
0.3862220764160156,0.3021343231201172
0.3862220764160156,0.3021343231201172
0.3882356643676758,0.3024261474609375
0.3882356643676758,0.3024261474609375
0.3895860671997070,0.3058399200439453
0.3895860671997070,0.3058399200439453
0.3886877059936523,0.3048614501953125
0.3886877059936523,0.3048614501953125
0.3897743225097656,0.3070392608642578
0.3897743225097656,0.3071353912353516
0.3906320571899414,0.3076360702514648
0.3907012939453125,0.3076360702514648
0.3909942626953125,0.3065277099609375
0.3909942626953125,0.3065277099609375
0.3919275283813476,0.3090728759765625
0.3919275283813476,0.3090728759765625
0.3903087615966797,0.3068029403686524
0.3903087615966797,0.3068029403686524
0.3930616378784180,0.3080972671508789
0.3930616378784180,0.3080972671508789
0.3906658172607422,0.3080881118774414
0.3906658172607422,0.3080881118774414
0.3912448883056641,0.3071273803710937
0.3912448883056641,0.3071273803710937
0.3925483703613281,0.3098384857177734
0.3925483703613281,0.3098384857177734
0.3911687850952149,0.3079622268676758
0.3911687850952149,0.3079622268676758
0.3935909271240234,0.3095890045166015
0.3935909271240234,0.3095890045166015
0.3923721313476562,0.3109016418457031
0.3923721313476562,0.3109016418457031
0.3931606292724609,0.3102790832519531
0.3931606292724609,0.3102790832519531
0.3951730728149414,0.3134445190429687
0.3951730728149414,0.3134445190429687
0.3933832168579102,0.3117788314819336
0.3933832168579102,0.3117788314819336
0.3963838577270508,0.3140110015869140
0.3963838577270508,0.3140110015869140
0.3953498840332031,0.3155027389526367
0.3953498840332031,0.3155027389526367
0.3967466354370117,0.3149648666381836
0.3967466354370117,0.3149648666381836
0.3979780197143555,0.3181079864501953
0.3979780197143555,0.3181079864501953
0.3968410491943359,0.3171867370605468
0.3968410491943359,0.3171867370605468
0.3999572753906250,0.3194309234619140
0.3999572753906250,0.3194309234619140
0.3993495941162109,0.3210113525390625
0.3993495941162109,0.3210113525390625
0.3998977661132813,0.3200351715087891
0.3998977661132813,0.3200351715087891
0.4008430480957031,0.3221654891967773
0.4008430480957031,0.3221654891967773
0.3976026535034179,0.3170373916625976
0.3976026535034179,0.3170373916625976
0.3966693878173828,0.3124151229858398
0.3898263931274414,0.3063428878784180
0.3898263931274414,0.3063428878784180
0.3867856979370117,0.3005052566528320
0.3867856979370117,0.3005052566528320
0.3850582122802734,0.2990140914916992
0.3850582122802734,0.2990140914916992
0.3813428878784180,0.2934980392456055
0.3813428878784180,0.2934980392456055
0.3810098648071289,0.2914964675903320
0.3810098648071289,0.2914964675903320
0.3776453018188476,0.2899497985839843
0.3776453018188476,0.2899497985839843
0.3766468048095703,0.2866436004638672
0.3766468048095703,0.2866436004638672
0.3771160125732422,0.2877605438232422
0.3771160125732422,0.2877605438232422
0.3742177963256836,0.2845556259155274
0.3742177963256836,0.2845556259155274
0.3761255264282227,0.2854860305786133
0.3761255264282227,0.2854860305786133
0.3747236251831055,0.2862682342529297
0.3747236251831055,0.2862682342529297
0.3755796432495117,0.2850625991821289
0.3755796432495117,0.2850625991821289
0.3765604019165039,0.2877490997314453
0.3765604019165039,0.2877490997314453
0.3750995635986328,0.2864152908325195
0.3750995635986328,0.2864152908325195
0.3780847549438476,0.2884963989257812
0.3780847549438476,0.2884963989257812
0.3778558731079101,0.2906524658203125
0.3778558731079101,0.2906524658203125
0.3789207458496094,0.2902685165405273
0.3789207458496094,0.2902685165405273
0.3812255859375000,0.2947477340698242
0.3812255859375000,0.2947477340698242
0.3808261871337891,0.2948730468750000
0.3808261871337891,0.2948730468750000
0.3851526260375976,0.2982038497924804
0.3851526260375976,0.2982038497924804
0.3849946975708008,0.3014253616333007
0.3849946975708008,0.3014253616333007
0.3874940872192383,0.3030956268310547
0.3874940872192383,0.3030956268310547
0.3905879974365234,0.3082397460937500
0.3905879974365234,0.3082397460937500
0.3910989761352539,0.3090322494506836
0.3910989761352539,0.3090322494506836
0.3946741104125976,0.3119665145874023
0.3946741104125976,0.3119665145874023
0.3941928863525391,0.3144126892089844
0.3941928863525391,0.3144126892089844
0.3954065322875976,0.3141506195068359
0.3954065322875976,0.3141506195068359
0.3974979400634766,0.3172262191772461
0.3974979400634766,0.3172262191772461
0.3954483032226562,0.3152658462524414
0.3954483032226562,0.3152658462524414
0.3977594375610352,0.3164531707763672
0.3977594375610352,0.3164531707763672
0.3958648681640625,0.3168210983276367
0.3958648681640625,0.3168210983276367
0.3963644027709961,0.3147520065307617
0.3963644027709961,0.3147520065307617
0.3968170166015625,0.3166666030883789
0.3968170166015625,0.3166666030883789
0.3944818496704102,0.3144475936889649
0.3944818496704102,0.3144475936889649
0.3967975616455078,0.3152830123901367
0.3967975616455078,0.3152830123901367
0.3951850891113281,0.3155513763427734
0.3951850891113281,0.3155513763427734
0.3954053878784179,0.3139652252197265
0.3954053878784179,0.3139652252197265
0.3966665267944336,0.3167100906372070
0.3966665267944336,0.3167100906372070
0.3949378967285156,0.3153848648071289
0.3949378967285156,0.3153848648071289
0.3982824325561523,0.3169795989990234
0.3982824325561523,0.3169795989990234
0.3964193344116211,0.3179626464843750
0.3964193344116211,0.3179626464843750
0.3972644805908203,0.3174402236938477
0.3972644805908203,0.3174402236938477
0.3992460250854492,0.3206588745117188
0.3992460250854492,0.3206588745117188
0.3982830047607422,0.3195482254028320
0.3982830047607422,0.3195482254028320
0.4010513305664062,0.3215166091918945
0.4010513305664062,0.3215166091918945
0.3998462677001953,0.3232177734375000
0.3998462677001953,0.3232177734375000
0.4010078430175781,0.3225391387939453
0.4010078430175781,0.3225391387939453
0.4029275894165039,0.3256256103515625
0.4029275894165039,0.3256256103515625
0.4000768661499023,0.3219675064086914
0.4000768661499023,0.3219675064086914
0.4002267837524414,0.3192832946777344
0.3978578567504883,0.3192832946777344
0.3938123703002930,0.3128934860229492
0.3938123703002930,0.3128934860229492
0.3898830413818359,0.3048889160156250
0.3898830413818359,0.3048889160156250
0.3869876861572266,0.3023700714111328
0.3869876861572266,0.3023700714111328
0.3822446823120117,0.2966571807861328
0.3822446823120117,0.2966571807861328
0.3824581146240234,0.2946075439453125
0.3824581146240234,0.2946075439453125
0.3788898468017578,0.2923421859741211
0.3788898468017578,0.2923421859741211
0.3773054122924804,0.2882617950439453
0.3773054122924804,0.2882617950439453
0.3774370193481445,0.2893615722656250
0.3774370193481445,0.2893615722656250
0.3744569778442383,0.2862865447998047
0.3744569778442383,0.2862865447998047
0.3767955780029297,0.2866189956665039
0.3767955780029297,0.2866189956665039
0.3740438461303711,0.2865451812744140
0.3740438461303711,0.2865451812744140
0.3744575500488281,0.2850334167480469
0.3744575500488281,0.2850334167480469
0.3760488510131836,0.2880706787109375
0.3760488510131836,0.2880706787109375
0.3747882843017578,0.2868524551391601
0.3747882843017578,0.2868524551391601
0.3775405883789062,0.2884683609008789
0.3775405883789062,0.2884683609008789
0.3766908645629883,0.2904653549194336
0.3766908645629883,0.2904653549194336
0.3779880523681641,0.2902256011962890
0.3779880523681641,0.2902256011962890
0.3807329177856445,0.2942201614379883
0.3807329177856445,0.2942201614379883
0.3793132781982422,0.2937761306762695
0.3793132781982422,0.2937761306762695
0.3829845428466797,0.2967435836791992
0.3829845428466797,0.2967435836791992
0.3827676773071289,0.2996017456054688
0.3827676773071289,0.2996017456054688
0.3848487854003906,0.2995811462402344
0.3848487854003906,0.2995811462402344
0.3870180130004883,0.3034103393554687
0.3870180130004883,0.3034103393554687
0.3859125137329101,0.3032421112060547
0.3859125137329101,0.3032421112060547
0.3892347335815430,0.3053844451904297
0.3892347335815430,0.3053844451904297
0.3888124465942382,0.3071748733520508
0.3888124465942382,0.3071748733520508
0.3892387390136718,0.3061792373657227
0.3892387390136718,0.3061792373657227
0.3910154342651367,0.3095438003540039
0.3910154342651367,0.3095438003540039
0.3895442962646484,0.3084119796752929
0.3895442962646484,0.3084119796752929
0.3926736831665039,0.3098642349243164
0.3926736831665039,0.3098642349243164
0.3911064147949219,0.3108598709106445
0.3911064147949219,0.3108598709106445
0.3917112350463867,0.3099809646606445
0.3917112350463867,0.3099809646606445
0.3934049606323242,0.3127864837646484
0.3934049606323242,0.3127864837646484
0.3919401168823242,0.3116546630859375
0.3919401168823242,0.3116546630859375
0.3942209243774414,0.3125741958618164
0.3942209243774414,0.3125741958618164
0.3931348800659180,0.3139240264892578
0.3931348800659180,0.3139240264892578
0.3935766220092773,0.3127286911010742
0.3935766220092773,0.3127286911010742
0.3958276748657226,0.3156875610351562
0.3958276748657226,0.3156875610351562
0.3936876296997070,0.3142890930175781
0.3936876296997070,0.3142890930175781
0.3963815689086914,0.3158008575439453
0.3963815689086914,0.3158008575439453
0.3951524734497070,0.3168697357177734
0.3951524734497070,0.3168697357177734
0.3961509704589843,0.3159513473510742
0.3961509704589843,0.3159513473510742
0.3976987838745117,0.3188489913940429
0.3976987838745117,0.3188489913940429
0.3959180831909180,0.3181697845458984
0.3959180831909180,0.3181697845458984
0.3990446090698242,0.3199659347534179
0.3990446090698242,0.3199659347534179
0.3987539291381836,0.3219274520874023
0.3987539291381836,0.3219274520874023
0.3992288589477539,0.3212242126464844
0.3992288589477539,0.3212242126464844
0.4015039443969726,0.3249366760253906
0.4015039443969726,0.3249366760253906
0.3993209838867187,0.3229288101196289
0.3993209838867187,0.3229288101196289
0.4007646560668945,0.3207973480224609
0.4007646560668945,0.3207973480224609
0.3949756622314453,0.3147417068481445
0.3949756622314453,0.3147417068481445
0.3892587661743164,0.3053512573242188
0.3892587661743164,0.3053512573242188
0.3862209320068359,0.3017887115478515
0.3842628479003906,0.3017887115478515
0.3808822631835938,0.2954841613769531
0.3808822631835938,0.2954841613769531
0.3802900314331055,0.2924926757812500
0.3802900314331055,0.2924926757812500
0.3769689559936523,0.2906255722045898
0.3769689559936523,0.2906255722045898
0.3751213073730469,0.2866081237792968
0.3751213073730469,0.2866081237792968
0.3754863739013672,0.2871259689331054
0.3754863739013672,0.2871259689331054
0.3717567443847656,0.2838438034057617
0.3717567443847656,0.2838438034057617
0.3735980987548828,0.2838615417480468
0.3735116958618164,0.2838615417480468
0.3722957611083984,0.2847089767456055
0.3722957611083984,0.2847089767456055
0.3728279113769531,0.2833196640014649
0.3728279113769531,0.2833196640014649
0.3745405197143555,0.2863454818725586
0.3745405197143555,0.2863454818725586
0.3727134704589843,0.2857761383056641
0.3727134704589843,0.2857761383056641
0.3760963439941406,0.2875482559204102
0.3760963439941406,0.2875482559204102
0.3761713027954102,0.2898639678955078
0.3761713027954102,0.2898639678955078
0.3769706726074218,0.2898897171020507
0.3769706726074218,0.2898897171020507
0.3799764633178711,0.2946287155151367
0.3799764633178711,0.2946287155151367
0.3791078567504882,0.2950252532958984
0.3791078567504882,0.2950252532958984
0.3837444305419922,0.2980705261230469
0.3837444305419922,0.2980705261230469
0.3837627410888672,0.3014402389526367
0.3837627410888672,0.3014402389526367
0.3856824874877929,0.3024164199829101
0.3856824874877929,0.3024164199829101
0.3890190124511719,0.3075387954711914
0.3890190124511719,0.3075387954711914
0.3887157440185547,0.3083988189697265
0.3887157440185547,0.3083988189697265
0.3913461685180664,0.3118864059448242
0.3913461685180664,0.3118864059448242
0.3913461685180664,0.3107946395874023
0.3949092864990234,0.3148916244506836
0.3949092864990234,0.3148916244506836
0.3937345504760742,0.3159753799438477
0.3937345504760742,0.3159753799438477
0.3957715988159179,0.3162254333496093
0.3957715988159179,0.3162254333496093
0.3963672637939453,0.3187208175659180
0.3963672637939453,0.3187208175659180
0.3950586318969727,0.3157945632934570
0.3950586318969727,0.3157945632934570
0.3972061157226562,0.3175655364990234
0.3972061157226562,0.3175655364990234
0.3942552566528320,0.3161968231201172
0.3942552566528320,0.3161968231201172
0.3947954177856445,0.3145002365112304
0.3947954177856445,0.3145002365112304
0.3944355010986328,0.3160909652709961
0.3944355010986328,0.3160909652709961
0.3927017211914062,0.3121793746948242
0.3927017211914062,0.3121793746948242
0.3946758270263672,0.3139034271240234
0.3946758270263672,0.3139034271240234
0.3917346954345703,0.3130800247192383
0.3917346954345703,0.3130800247192383
0.3930341720581055,0.3125192642211914
0.3930341720581055,0.3125192642211914
0.3934885025024414,0.3147823333740234
0.3934885025024414,0.3147823333740234
0.3923028945922851,0.3122406005859375
0.3923028945922851,0.3122406005859375
0.3951770782470703,0.3149957656860352
0.3951770782470703,0.3149957656860352
0.3931291580200195,0.3153808593750000
0.3931291580200195,0.3153808593750000
0.3952697753906250,0.3155124664306641
0.3952697753906250,0.3155124664306641
0.3962808609008789,0.3191699981689453
0.3962808609008789,0.3191699981689453
0.3955575942993164,0.3172079086303711
0.3955575942993164,0.3172079086303711
0.3988878250122070,0.3208076477050781
0.3988878250122070,0.3208076477050781
0.3972724914550781,0.3215183258056640
0.3972724914550781,0.3215183258056640
0.3993232727050781,0.3216224670410156
0.3993232727050781,0.3216224670410156
0.3998125076293945,0.3234689712524414
0.3998125076293945,0.3234689712524414
0.3964353561401367,0.3174024581909179
0.3964353561401367,0.3174024581909179
0.3949396133422852,0.3133152008056641
0.3949396133422852,0.3133152008056641
0.3876789093017578,0.3060951232910156
0.3858226776123047,0.3060951232910156
0.3849060058593750,0.3001424789428711
0.3849060058593750,0.3001424789428711
0.3822938919067383,0.2984745025634766
0.3822938919067383,0.2984745025634766
0.3784549713134766,0.2921018600463867
0.3784549713134766,0.2921018600463867
0.3787794113159180,0.2911222457885742
0.3787794113159180,0.2911222457885742
0.3745880126953125,0.2884872436523437
0.3745880126953125,0.2884872436523437
0.3743751525878906,0.2861377716064453
0.3743751525878906,0.2861377716064453
0.3741085052490234,0.2871877670288086
0.3741085052490234,0.2871877670288086
0.3721464157104492,0.2839439392089844
0.3721464157104492,0.2839439392089844
0.3745244979858398,0.2859809875488281
0.3745244979858398,0.2859809875488281
0.3725183486938476,0.2860227584838867
0.3725183486938476,0.2860227584838867
0.3739185333251953,0.2858041763305664
0.3743482589721679,0.2858041763305664
0.3751384735107422,0.2887086868286133
0.3751384735107422,0.2887086868286133
0.3741611480712890,0.2869909286499023
0.3741611480712890,0.2869909286499023
0.3773483276367187,0.2900304794311523
0.3773483276367187,0.2900304794311523
0.3762308120727539,0.2912870407104492
0.3762308120727539,0.2912870407104492
0.3781785964965820,0.2915937423706055
0.3781785964965820,0.2915937423706055
0.3798746109008789,0.2954051971435547
0.3798746109008789,0.2954051971435547
0.3793985366821289,0.2944456100463867
0.3793985366821289,0.2944456100463867
0.3829719543457031,0.2980258941650391
0.3839429855346679,0.2980258941650391
0.3823213577270508,0.2999879837036133
0.3823213577270508,0.2999879837036133
0.3844665527343750,0.3007032394409180
0.3844665527343750,0.3007032394409180
0.3864103317260742,0.3050445556640625
0.3864103317260742,0.3050445556640625
0.3860933303833008,0.3041507720947266
0.3860933303833008,0.3041507720947266
0.3896100997924805,0.3075181961059570
0.3896100997924805,0.3075181961059570
0.3887626647949219,0.3089744567871094
0.3887626647949219,0.3089744567871094
0.3903894424438477,0.3094310760498047
0.3903894424438477,0.3094310760498047
0.3917736053466797,0.3125581741333008
0.3917736053466797,0.3125581741333008
0.3909559249877930,0.3107837677001953
0.3909559249877930,0.3107837677001953
0.3936309814453125,0.3130508422851562
0.3936309814453125,0.3130508422851562
0.3920087814331055,0.3135709762573242
0.3920087814331055,0.3135709762573242
0.3929306030273437,0.3128591537475586
0.3929306030273437,0.3128591537475586
0.3935268402099609,0.3149757385253906
0.3935268402099609,0.3149757385253906
0.3919223785400390,0.3121982574462890
0.3919223785400390,0.3121982574462890
0.3941568374633789,0.3136150360107422
0.3941568374633789,0.3136150360107422
0.3920345306396484,0.3132282257080078
0.3920345306396484,0.3132282257080078
0.3925340652465820,0.3119281768798828
0.3925340652465820,0.3119281768798828
0.3929529190063477,0.3139263153076172
0.3929529190063477,0.3139263153076172
0.3909994125366211,0.3113353729248047
0.3909994125366211,0.3113353729248047
0.3935548782348633,0.3130577087402344
0.3935548782348633,0.3130577087402344
0.3919795989990234,0.3135229110717773
0.3919795989990234,0.3135229110717773
0.3930067062377929,0.3129106521606445
0.3930067062377929,0.3129106521606445
0.3939388275146484,0.3158678054809570
0.3939388275146484,0.3158678054809570
0.3929660797119141,0.3139337539672851
0.3929660797119141,0.3139337539672851
0.3956783294677734,0.3162654876708984
0.3956783294677734,0.3162654876708984
0.3943685531616211,0.3172668457031250
0.3943685531616211,0.3172668457031250
0.3955078125000000,0.3168514251708984
0.3955078125000000,0.3168514251708984
0.3963438034057617,0.3186956405639648
0.3963438034057617,0.3186956405639648
0.3934902191162109,0.3138547897338867
0.3934902191162109,0.3138547897338867
0.3924545288085937,0.3103334426879883
0.3924545288085937,0.3103334426879883
0.3864240646362305,0.3047561645507812
0.3864240646362305,0.3047561645507812
0.3835847854614258,0.2987640380859375
0.3835847854614258,0.2987640380859375
0.3813777923583984,0.2969272613525391
0.3813777923583984,0.2969272613525391
0.3772338867187500,0.2913642883300781
0.3759899139404297,0.2913642883300781
0.3775548934936523,0.2902193069458008
0.3775548934936523,0.2902193069458008
0.3743774414062500,0.2884105682373047
0.3743774414062500,0.2884105682373047
0.3739751815795898,0.2858499526977539
0.3739751815795898,0.2858499526977539
0.3737674713134765,0.2870435714721680
0.3737674713134765,0.2870435714721680
0.3718505859375000,0.2843524932861328
0.3718505859375000,0.2843524932861328
0.3742727279663086,0.2856176376342773
0.3742727279663086,0.2856176376342773
0.3727317810058594,0.2862579345703125
0.3727317810058594,0.2862579345703125
0.3737474441528320,0.2857349395751953
0.3737474441528320,0.2857349395751953
0.3748208999633789,0.2888643264770508
0.3748208999633789,0.2888643264770508
0.3742172241210938,0.2875207901000976
0.3742172241210938,0.2875207901000976
0.3773746490478516,0.2901025772094726
0.3773746490478516,0.2901025772094726
0.3763521194458008,0.2913574218750000
0.3763521194458008,0.2913574218750000
0.3779857635498047,0.2919015884399414
0.3779857635498047,0.2919015884399414
0.3798912048339844,0.2958583831787109
0.3798912048339844,0.2958583831787109
0.3795003890991211,0.2952695846557617
0.3795003890991211,0.2952695846557617
0.3832712173461914,0.2988018035888672
0.3832712173461914,0.2988018035888672
0.3828861236572266,0.3010477066040039
0.3828861236572266,0.3010477066040039
0.3850227355957031,0.3019701004028320
0.3850227355957031,0.3019701004028320
0.3871747970581055,0.3063343048095703
0.3871747970581055,0.3063343048095703
0.3866209030151367,0.3058021545410156
0.3866209030151367,0.3058021545410156
0.3902343750000000,0.3090654373168945
0.3902343750000000,0.3090654373168945
0.3893938064575195,0.3103769302368164
0.3893938064575195,0.3103769302368164
0.3908632278442383,0.3102149963378906
0.3908632278442383,0.3102149963378906
0.3917781829833984,0.3131772994995117
0.3917781829833984,0.3131772994995117
0.3907127380371094,0.3110652923583984
0.3907127380371094,0.3110652923583984
0.3934421539306641,0.3128580093383789
0.3934421539306641,0.3128580093383789
0.3913272857666015,0.3128660202026367
0.3913272857666015,0.3128660202026367
0.3919635772705078,0.3114612579345703
0.3919635772705078,0.3114612579345703
0.3919910430908203,0.3133672714233398
0.3919910430908203,0.3133672714233398
0.3902561187744141,0.3103998184204101
0.3902561187744141,0.3103998184204101
0.3927400588989258,0.3120065689086914
0.3927400588989258,0.3120065689086914
0.3903579711914062,0.3118434906005859
0.3903579711914062,0.3118434906005859
0.3913312911987304,0.3109754562377929
0.3913312911987304,0.3109754562377929
0.3924619674682617,0.3138204574584961
0.3924619674682617,0.3138204574584961
0.3912420272827148,0.3119985580444336
0.3912420272827148,0.3119985580444336
0.3943902969360352,0.3144287109375000
0.3943902969360352,0.3144287109375000
0.3924837112426758,0.3153264999389648
0.3924837112426758,0.3153264999389648
0.3940761566162109,0.3148635864257812
0.3940761566162109,0.3148635864257812
0.3955816268920898,0.3181663513183594
0.3955816268920898,0.3181663513183594
0.3941608428955078,0.3163049697875976
0.3941608428955078,0.3163049697875976
0.3969875335693359,0.3184553146362304
0.3969875335693359,0.3184553146362304
0.3952674865722656,0.3190212249755859
0.3952674865722656,0.3190212249755859
0.3964433670043945,0.3182579040527344
0.3964433670043945,0.3182579040527344
0.3972913742065430,0.3205656051635742
0.3972913742065430,0.3205656051635742
0.3945562362670899,0.3163433074951172
0.3945562362670899,0.3163433074951172
0.3940710067749023,0.3128299713134766
0.3940710067749023,0.3128299713134766
0.3876485824584961,0.3064916610717773
0.3876485824584961,0.3064916610717773
0.3842794418334961,0.3001356124877930
0.3842794418334961,0.3001356124877930
0.3821851730346680,0.2985660552978516
0.3821851730346680,0.2985660552978516
0.3781734466552734,0.2929252624511718
0.3781734466552734,0.2929252624511718
0.3786489486694336,0.2915262222290039
0.3786489486694336,0.2915262222290039
0.3749914169311523,0.2894325256347656
0.3749914169311523,0.2894325256347656
0.3741188049316406,0.2863483428955078
0.3741188049316406,0.2863483428955078
0.3739826202392578,0.2876094818115234
0.3739826202392578,0.2876094818115234
0.3719244003295898,0.2845338821411132
0.3719244003295898,0.2845338821411132
0.3740255355834961,0.2854574203491211
0.3740255355834961,0.2854574203491211
0.3720211029052734,0.2857355117797851
0.3720211029052734,0.2857355117797851
0.3728004455566406,0.2846700668334961
0.3728004455566406,0.2846700668334961
0.3740901947021484,0.2874715805053711
0.3740901947021484,0.2874715805053711
0.3727643966674805,0.2857755661010742
