REDsignal,IRsignal
0.5708032608032226,0.7462783813476562
0.5708032608032226,0.7462783813476562
0.5802234649658203,0.7624929428100585
0.5802234649658203,0.7624929428100585
0.5677774429321288,0.7528970718383788
0.5677774429321288,0.7528970718383788
0.5828790664672852,0.7577751159667968
0.5828790664672852,0.7577751159667968
0.5750833511352539,0.7651222229003906
0.5750833511352539,0.7651222229003906
0.5739841461181641,0.7550182342529297
0.5739841461181641,0.7550182342529297
0.5849790573120117,0.7715938568115234
0.5849790573120117,0.7715938568115234
0.5725284576416015,0.7618446350097656
0.5725284576416015,0.7618446350097656
0.5856994628906250,0.7658037185668946
0.5856994628906250,0.7658037185668946
0.5786613464355469,0.7737745285034180
0.5786613464355469,0.7737745285034180
0.5778047561645507,0.7632368087768554
0.5778047561645507,0.7632368087768554
0.5900493621826172,0.7791589736938477
0.5900493621826172,0.7791589736938477
0.5753866195678711,0.7681509017944336
0.5753866195678711,0.7681509017944336
0.5890308380126953,0.7728549957275390
0.5890308380126953,0.7728549957275390
0.5816528320312500,0.7791933059692383
0.5816528320312500,0.7791933059692383
0.5805810928344727,0.7698406219482422
0.5805810928344727,0.7698406219482422
0.5900922775268554,0.7817893981933594
0.5900922775268554,0.7817893981933594
0.5772691726684570,0.7721637725830078
0.5772691726684570,0.7721637725830078
0.5895097732543945,0.7751243591308593
0.5895097732543945,0.7751243591308593
0.5876655578613281,0.7810386657714844
0.5876655578613281,0.7810386657714844
0.5818971633911133,0.7716304779052734
0.5818971633911133,0.7716304779052734
0.5917047500610352,0.7852575302124023
0.5917047500610352,0.7852575302124023
0.5798812866210937,0.7749910354614258
0.5798812866210937,0.7749910354614258
0.5925395965576171,0.7786880493164062
0.5925395965576171,0.7786880493164062
0.5838329315185546,0.7831066131591796
0.5838329315185546,0.7831066131591796
0.5831771850585937,0.7739370346069335
0.5831771850585937,0.7739370346069335
0.5901638031005859,0.7846595764160156
0.5901638031005859,0.7846595764160156
0.5827068328857422,0.7780448913574218
0.5827068328857422,0.7780448913574218
0.5893192291259766,0.7806690216064452
0.5893192291259766,0.7806690216064452
0.5861234664916992,0.7823541641235351
0.5861234664916992,0.7823541641235351
0.5850271224975586,0.7804687499999999
0.5850271224975586,0.7804687499999999
0.5896327972412109,0.7815353393554687
0.5896327972412109,0.7815353393554687
0.5849842071533203,0.7815244674682617
0.5849842071533203,0.7815244674682617
0.5862173080444336,0.7808744430541992
0.5862173080444336,0.7808744430541992
0.5854104995727539,0.7833915710449219
0.5854104995727539,0.7833915710449219
0.5863334655761718,0.7785598754882812
0.5863334655761718,0.7785598754882812
0.5885250091552734,0.7834774017333984
0.5885250091552734,0.7834774017333984
0.5809930801391602,0.7776460647583008
0.5809930801391602,0.7776460647583008
0.5885221481323242,0.7789730072021485
0.5885221481323242,0.7789730072021485
0.5825139999389648,0.7765405654907226
0.5825139999389648,0.7765405654907226
0.5794870376586914,0.7648572921752930
0.5794870376586914,0.7648572921752930
0.5803115844726562,0.7636487960815429
0.5803115844726562,0.7636487960815429
0.5721725463867188,0.7529554367065430
0.5721725463867188,0.7529554367065430
0.5762025833129882,0.7486604690551758
0.5762025833129882,0.7486604690551758
0.5693332672119140,0.7449371337890625
0.5693332672119140,0.7449371337890625
0.5678392410278320,0.7378486633300781
0.5678392410278320,0.7378486633300781
0.5712055206298828,0.7418380737304687
0.5712055206298828,0.7418380737304687
0.5640443801879883,0.7330135345458985
0.5640443801879883,0.7330135345458985
0.5706991195678711,0.7344137191772461
0.5706991195678711,0.7344137191772461
0.5665815353393554,0.7362030029296874
0.5665815353393554,0.7362030029296874
0.5658348083496093,0.7338621139526367
0.5658348083496093,0.7338621139526367
0.5704908370971680,0.7354242324829101
0.5704908370971680,0.7354242324829101
0.5665838241577148,0.7356124877929687
0.5665838241577148,0.7356124877929687
0.5678346633911132,0.7357526779174804
0.5678346633911132,0.7357526779174804
0.5691650390624999,0.7395240783691406
0.5691650390624999,0.7395240783691406
0.5694494247436523,0.7383733749389648
0.5694494247436523,0.7383733749389648
0.5719768524169921,0.7407978057861327
0.5719768524169921,0.7407978057861327
0.5691398620605469,0.7426740646362304
0.5691398620605469,0.7426740646362304
0.5710378646850586,0.7433681488037109
0.5710378646850586,0.7433681488037109
0.5731687545776367,0.7474885940551758
0.5731687545776367,0.7474885940551758
0.5712347030639648,0.7457273483276367
0.5712347030639648,0.7457273483276367
0.5754999160766602,0.7509532928466797
0.5754999160766602,0.7509532928466797
0.5726732254028321,0.7517560958862305
0.5726732254028321,0.7517560958862305
0.5766105651855469,0.7524456024169922
0.5766105651855469,0.7524456024169922
0.5752069473266601,0.7551887512207031
0.5752069473266601,0.7551887512207031
0.5741884231567382,0.7539876937866211
0.5741884231567382,0.7539876937866211
0.5782190322875976,0.7578632354736328
0.5782190322875976,0.7578632354736328
0.5767501831054688,0.7579708099365234
0.5767501831054688,0.7579708099365234
0.5775695800781250,0.7576755523681641
0.5775695800781250,0.7576755523681641
0.5779987335205078,0.7616889953613281
0.5779987335205078,0.7616889953613281
0.5776245117187500,0.7599340438842773
0.5776245117187500,0.7599340438842773
0.5827491760253906,0.7632064819335938
0.5827491760253906,0.7632064819335938
0.5781492233276367,0.7621055603027344
0.5781492233276367,0.7621055603027344
0.5803945541381835,0.7631057739257813
0.5803945541381835,0.7631057739257813
0.5787746429443359,0.7656326293945312
0.5787746429443359,0.7656326293945312
0.5798669815063476,0.7620529174804688
0.5798669815063476,0.7620529174804688
0.5821815490722656,0.7662878036499023
0.5821815490722656,0.7662878036499023
0.5771118164062500,0.7643039703369140
0.5771118164062500,0.7643039703369140
0.5815120697021484,0.7658592224121094
0.5815120697021484,0.7658592224121094
0.5815773010253906,0.7687894821166992
0.5815773010253906,0.7687894821166992
0.5800809860229492,0.7657133102416992
0.5791076660156250,0.7657133102416992
0.5836744308471680,0.7697364807128906
0.5836744308471680,0.7697364807128906
0.5811046600341797,0.7696340560913085
0.5811046600341797,0.7696340560913085
0.5843044281005859,0.7694154739379883
0.5843044281005859,0.7694154739379883
0.5830049514770508,0.7709959030151367
0.5830049514770508,0.7709959030151367
0.5816848754882812,0.7686561584472656
0.5816848754882812,0.7686561584472656
0.5844846725463867,0.7704545974731445
0.5844846725463867,0.7704545974731445
0.5813438415527343,0.7666608810424804
0.5813438415527343,0.7666608810424804
0.5790893554687500,0.7595077514648437
0.5790893554687500,0.7595077514648437
0.5756200790405274,0.7544694900512695
0.5756200790405274,0.7544694900512695
0.5710985183715820,0.7430728912353516
0.5710985183715820,0.7430728912353516
0.5728797912597656,0.7388711929321289
0.5728797912597656,0.7388711929321289
0.5651012420654297,0.7307310104370117
0.5651012420654297,0.7307310104370117
0.5653764724731445,0.7267908096313477
0.5617109298706054,0.7243377685546875
0.5607467651367187,0.7234617233276367
0.5607467651367187,0.7150388717651367
0.5607467651367187,0.7157981872558593
0.5670925140380859,0.7248395919799805
0.5670925140380859,0.7248395919799805
0.5552513122558593,0.7154994964599609
0.5552513122558593,0.7154994964599609
0.5620502471923828,0.7178094863891601
0.5620502471923828,0.7178094863891601
0.5624473571777343,0.7193235397338867
0.5624473571777343,0.7193235397338867
0.5603639602661132,0.7150274276733398
0.5603639602661132,0.7150274276733398
0.5639551162719726,0.7195215225219727
0.5639551162719726,0.7195215225219727
0.5598999023437500,0.7173952102661133
0.5598999023437500,0.7173952102661133
0.5641851425170898,0.7179565429687500
0.5641851425170898,0.7179565429687500
0.5614934921264648,0.7196434020996093
0.5614934921264648,0.7196434020996093
0.5611152648925781,0.7173597335815429
0.5611152648925781,0.7173597335815429
0.5644403457641601,0.7217554092407227
0.5644403457641601,0.7217554092407227
0.5623289108276367,0.7205921173095703
0.5623289108276367,0.7205921173095703
0.5643150329589843,0.7217027664184570
0.5643150329589843,0.7217027664184570
0.5635723114013672,0.7258958816528320
0.5635723114013672,0.7258958816528320
0.5638446807861328,0.7241930007934571
0.5638446807861328,0.7241930007934571
0.5695810317993164,0.7297382354736328
0.5695810317993164,0.7297382354736328
0.5646886825561523,0.7283500671386719
0.5646886825561523,0.7283500671386719
0.5683942794799804,0.7317117691040039
0.5683942794799804,0.7317117691040039
0.5677654266357421,0.7354047775268554
0.5677654266357421,0.7354047775268554
0.5699449539184570,0.7342569351196289
0.5699449539184570,0.7342569351196289
0.5725496292114257,0.7390628814697265
0.5725496292114257,0.7390628814697265
0.5695272445678711,0.7394044876098632
0.5695272445678711,0.7394044876098632
0.5727973937988281,0.7418970108032227
0.5727973937988281,0.7418970108032227
0.5745735168457031,0.7455717086791992
0.5745735168457031,0.7455717086791992
0.5728351593017578,0.7435077667236328
0.5728351593017578,0.7435077667236328
0.5763708114624023,0.7485225677490234
0.5763708114624023,0.7485225677490234
0.5729272842407226,0.7479858398437500
0.5729272842407226,0.7479858398437500
0.5774099349975585,0.7487360000610351
0.5774099349975585,0.7487360000610351
0.5754135131835937,0.7511186599731445
0.5754135131835937,0.7511186599731445
0.5746273040771485,0.7496011734008788
0.5746273040771485,0.7496011734008788
0.5785457611083984,0.7541725158691406
0.5785457611083984,0.7541725158691406
0.5762443542480469,0.7520530700683593
0.5762443542480469,0.7520530700683593
0.5782310485839843,0.7531625747680664
0.5782310485839843,0.7531625747680664
0.5765121459960937,0.7564807891845703
0.5765121459960937,0.7564807891845703
0.5771467208862304,0.7537233352661132
0.5771467208862304,0.7537233352661132
0.5823926925659180,0.7591049194335937
0.5823926925659180,0.7591049194335937
0.5764314651489257,0.7553781509399414
0.5764314651489257,0.7553781509399414
0.5805004119873046,0.7581716537475586
0.5805004119873046,0.7581716537475586
0.5782493591308594,0.7602750778198242
0.5782493591308594,0.7602750778198242
0.5801113128662109,0.7566009521484375
0.5801113128662109,0.7566009521484375
0.5804431915283202,0.7582735061645508
0.5804431915283202,0.7582735061645508
0.5764755249023438,0.7548482894897460
0.5764755249023438,0.7548482894897460
0.5757642745971679,0.7487142562866210
0.5757642745971679,0.7487142562866210
0.5733507156372070,0.7415273666381835
0.5733507156372070,0.7415273666381835
0.5672401428222656,0.7290138244628906
0.5672401428222656,0.7290138244628906
0.5666341781616211,0.7252286911010742
0.5666341781616211,0.7252286911010742
0.5609876632690429,0.7184280395507813
0.5609876632690429,0.7184280395507813
0.5627002716064453,0.7147642135620117
0.5627002716064453,0.7147642135620117
0.5595067977905274,0.7132478713989258
0.5595067977905274,0.7132478713989258
0.5580831527709961,0.7093872070312500
0.5580831527709961,0.7093872070312500
0.5603742599487305,0.7108337402343750
0.5603742599487305,0.7108337402343750
0.5585557937622070,0.7082473754882812
0.5585557937622070,0.7082473754882812
0.5585861206054688,0.7067871093750000
0.5585861206054688,0.7067871093750000
0.5578113555908203,0.7091056823730468
0.5578113555908203,0.7091056823730468
0.5571155548095703,0.7063991546630859
0.5571155548095703,0.7063991546630859
0.5617006301879882,0.7094072341918946
0.5617006301879882,0.7094072341918946
0.5571344375610351,0.7076333999633789
0.5571344375610351,0.7076333999633789
0.5594043731689453,0.7093311309814453
0.5594043731689453,0.7093311309814453
0.5592241287231445,0.7125143051147461
0.5592241287231445,0.7125143051147461
0.5603977203369140,0.7107112884521484
0.5603977203369140,0.7107112884521484
0.5625194549560547,0.7148809432983398
0.5625194549560547,0.7148809432983398
0.5597499847412110,0.7157793045043945
0.5597499847412110,0.7157793045043945
0.5632341384887695,0.7181842803955077
0.5632341384887695,0.7181842803955077
0.5652242660522461,0.7233427047729492
0.5652242660522461,0.7233427047729492
0.5633949279785156,0.7210172653198242
0.5633949279785156,0.7210172653198242
0.5686386108398437,0.7284473419189453
0.5686386108398437,0.7284473419189453
0.5654205322265625,0.7290493011474609
0.5654205322265625,0.7290493011474609
0.5706653594970703,0.7306634902954101
0.5706653594970703,0.7306634902954101
0.5693595886230468,0.7351861953735351
0.5693595886230468,0.7351861953735351
0.5684406280517578,0.7336172103881836
0.5684406280517578,0.7336172103881836
0.5736734390258789,0.7397380828857422
0.5736734390258789,0.7397380828857422
0.5713674545288085,0.7390571594238281
0.5713674545288085,0.7390571594238281
0.5724494934082031,0.7387332916259766
0.5724494934082031,0.7387332916259766
0.5728385925292968,0.7439449310302734
0.5728385925292968,0.7439449310302734
0.5714258193969727,0.7409809112548827
0.5714258193969727,0.7409809112548827
0.5776165008544921,0.7456535339355469
0.5776165008544921,0.7456535339355469
0.5721244812011719,0.7438505172729492
0.5721244812011719,0.7438505172729492
0.5745895385742187,0.7449972152709960
0.5745895385742187,0.7449972152709960
0.5746971130371094,0.7488407135009766
0.5746971130371094,0.7488407135009766
0.5753288269042969,0.7457851409912110
0.5753288269042969,0.7457851409912110
0.5777023315429687,0.7494071960449219
0.5777023315429687,0.7494071960449219
0.5738788604736328,0.7490873336791992
0.5738788604736328,0.7490873336791992
0.5767421722412109,0.7494958877563477
0.5767421722412109,0.7494958877563477
0.5784833908081054,0.7533090591430663
0.5784833908081054,0.7533090591430663
0.5753173828125000,0.7487869262695312
0.5753173828125000,0.7487869262695312
0.5795871734619140,0.7543235778808594
0.5795871734619140,0.7543235778808594
0.5757213592529297,0.7529834747314453
0.5757213592529297,0.7529834747314453
0.5798589706420898,0.7529794692993164
0.5798589706420898,0.7529794692993164
0.5781280517578125,0.7555738449096679
0.5808145523071289,0.7555738449096679
0.5766740798950195,0.7528364181518554
0.5766740798950195,0.7528364181518554
0.5805919647216796,0.7570592880249023
0.5805919647216796,0.7570592880249023
0.5781045913696289,0.7546577453613281
0.5781045913696289,0.7546577453613281
0.5778413772583008,0.7517761230468750
0.5778413772583008,0.7517761230468750
0.5762660980224609,0.7518762588500977
0.5762660980224609,0.7518762588500977
0.5715763092041015,0.7404115676879882
0.5715763092041015,0.7404115676879882
0.5736928939819336,0.7348566055297852
0.5736928939819336,0.7348566055297852
0.5648975372314453,0.7244110107421875
0.5648975372314453,0.7244110107421875
0.5631608963012695,0.7176670074462891
0.5631608963012695,0.7176670074462891
0.5616285324096679,0.7161449432373047
0.5616285324096679,0.7161449432373047
0.5599342346191406,0.7093305587768555
0.5599342346191406,0.7093305587768555
0.5608114242553711,0.7088842391967773
0.5608114242553711,0.7088842391967773
0.5570514678955077,0.7075080871582031
0.5576316833496093,0.7050121307373046
0.5576316833496093,0.7050121307373046
0.5596412658691406,0.7079635620117187
0.5596412658691406,0.7079635620117187
0.5562034606933594,0.7029281616210937
0.5562034606933594,0.7029281616210937
0.5598924636840820,0.7072940826416015
0.5598924636840820,0.7072940826416015
0.5565811157226562,0.7060855865478516
0.5565811157226562,0.7060855865478516
0.5602203369140625,0.7060752868652344
0.5602203369140625,0.7060752868652344
0.5591011047363281,0.7093116760253906
0.5591011047363281,0.7093116760253906
0.5579801559448242,0.7076848983764649
0.5579801559448242,0.7076848983764649
0.5620027542114258,0.7120754241943359
0.5620027542114258,0.7120754241943359
0.5618373870849609,0.7134790420532227
0.5618373870849609,0.7134790420532227
0.5617887496948242,0.7137765884399414
0.5617887496948242,0.7137765884399414
0.5633491516113281,0.7193813323974609
0.5633491516113281,0.7193813323974609
0.5628061294555664,0.7191404342651367
0.5628061294555664,0.7191404342651367
0.5683181762695312,0.7234983444213867
0.5683181762695312,0.7234983444213867
0.5654783248901367,0.7249065399169922
0.5654783248901367,0.7249065399169922
0.5669271469116210,0.7271913528442383
0.5669271469116210,0.7271913528442383
0.5689922332763672,0.7319927215576172
0.5689922332763672,0.7319927215576172
0.5700164794921875,0.7318405151367188
0.5700164794921875,0.7318405151367188
0.5719219207763672,0.7348159790039063
0.5719219207763672,0.7348159790039063
0.5704530715942383,0.7369583129882812
0.5704530715942383,0.7369583129882812
0.5713954925537109,0.7377061843872070
0.5713954925537109,0.7377061843872070
0.5748058319091797,0.7416389465332031
0.5748058319091797,0.7416389465332031
0.5718423843383789,0.7392059326171875
0.5718423843383789,0.7392059326171875
0.5761333465576172,0.7432634353637695
0.5761333465576172,0.7432634353637695
0.5735338211059570,0.7439231872558594
0.5735338211059570,0.7439231872558594
0.5764383316040039,0.7434442520141601
0.5764383316040039,0.7434442520141601
0.5757276535034179,0.7468517303466796
0.5757276535034179,0.7468517303466796
0.5731567382812500,0.7428365707397461
0.5731567382812500,0.7428365707397461
0.5780782699584961,0.7486129760742187
0.5780782699584961,0.7486129760742187
0.5754587173461914,0.7476184844970702
0.5754587173461914,0.7476184844970702
0.5798881530761718,0.7476333618164063
0.5798881530761718,0.7476333618164063
0.5773143768310547,0.7546651840209960
0.5773143768310547,0.7546651840209960
0.5750055313110352,0.7461713790893555
0.5750055313110352,0.7461713790893555
0.5849710464477539,0.7569128036499023
0.5849710464477539,0.7569128036499023
0.5734874725341796,0.7496973037719726
0.5734874725341796,0.7496973037719726
0.5815126419067382,0.7514551162719726
0.5815126419067382,0.7514551162719726
0.5784736633300781,0.7586002349853516
0.5784736633300781,0.7586002349853516
0.5773195266723633,0.7489345550537109
0.5773195266723633,0.7489345550537109
0.5841985702514648,0.7592948913574219
0.5841985702514648,0.7592948913574219
0.5742519378662109,0.7534887313842773
0.5742519378662109,0.7534887313842773
0.5825277328491211,0.7539916992187500
0.5825277328491211,0.7539916992187500
0.5807567596435547,0.7599969863891601
0.5807567596435547,0.7599969863891601
0.5754289627075195,0.7478668212890625
0.5754289627075195,0.7478668212890625
0.5822937011718750,0.7554931640625000
0.5822937011718750,0.7554931640625000
0.5693046569824218,0.7408813476562500
0.5693046569824218,0.7408813476562500
0.5757036209106445,0.7328613281249999
0.5757036209106445,0.7328613281249999
0.5645158767700195,0.7299030303955077
0.5698637008666992,0.7243011474609374
0.5609281539916992,0.7243011474609374
0.5595869064331055,0.7183456420898438
0.5595869064331055,0.7183456420898438
0.5613069534301758,0.7085494995117188
0.5613069534301758,0.7085494995117188
0.5630636215209961,0.7154262542724609
0.5638326644897461,0.7154262542724609
0.5541492462158203,0.7034820556640625
0.5541492462158203,0.7034820556640625
0.5633411407470703,0.7095188140869141
0.5633411407470703,0.7095188140869141
0.5561685562133789,0.7075950622558593
0.5561685562133789,0.7075950622558593
0.5583652496337891,0.7032405853271484
0.5583652496337891,0.7032405853271484
0.5601493835449218,0.7095829010009765
0.5601493835449218,0.7095829010009765
0.5547351837158203,0.7033538818359375
0.5547351837158203,0.7033538818359375
0.5619878768920898,0.7087451934814453
0.5619878768920898,0.7087451934814453
0.5574468612670899,0.7094049453735352
0.5574468612670899,0.7094049453735352
0.5599159240722656,0.7069873809814453
0.5599159240722656,0.7069873809814453
0.5622774124145508,0.7149753570556641
0.5622774124145508,0.7149753570556641
0.5582565307617188,0.7103576660156250
0.5582565307617188,0.7103576660156250
0.5656585693359375,0.7172555923461914
0.5656585693359375,0.7172555923461914
0.5614471435546875,0.7191810607910156
0.5614471435546875,0.7191810607910156
0.5644844055175781,0.7186237335205078
0.5644844055175781,0.7186237335205078
0.5676338195800781,0.7267633438110351
0.5676338195800781,0.7267633438110351
0.5645587921142577,0.7236648559570312
0.5645587921142577,0.7236648559570312
0.5705995559692383,0.7303476333618164
0.5705995559692383,0.7303476333618164
0.5686838150024414,0.7326662063598632
0.5686838150024414,0.7326662063598632
0.5700193405151367,0.7323205947875976
0.5700193405151367,0.7323205947875976
0.5715259552001953,0.7370910644531250
0.5715259552001953,0.7370910644531250
0.5683341979980469,0.7325082778930664
0.5683341979980469,0.7325082778930664
0.5736413955688476,0.7383007049560547
0.5736413955688476,0.7383007049560547
0.5713308334350585,0.7394491195678711
0.5713308334350585,0.7394491195678711
0.5723871231079102,0.7375162124633788
0.5723871231079102,0.7375162124633788
0.5741621017456054,0.7412916183471679
0.5741621017456054,0.7412916183471679
0.5707683563232422,0.7367019653320312
0.5707683563232422,0.7367019653320312
0.5776948928833008,0.7447666168212891
0.5776948928833008,0.7447666168212891
0.5691947937011719,0.7433898925781249
0.5691947937011719,0.7433898925781249
0.5752567291259766,0.7389976501464843
0.5752567291259766,0.7389976501464843
0.5763713836669921,0.7499570846557617
0.5763713836669921,0.7499570846557617
0.5696920394897461,0.7395498275756835
0.5696920394897461,0.7395498275756835
0.5810359954833985,0.7487194061279296
0.5810359954833985,0.7487194061279296
0.5714653015136718,0.7475841522216796
0.5714653015136718,0.7475841522216796
0.5761550903320313,0.7431964874267578
0.5761550903320313,0.7431964874267578
0.5787271499633789,0.7534864425659179
0.5787271499633789,0.7534864425659179
0.5715391159057617,0.7445079803466796
0.5715391159057617,0.7445079803466796
0.5803161621093750,0.7512966156005859
0.5803161621093750,0.7512966156005859
0.5738307952880859,0.7510637283325196
0.5738307952880859,0.7510637283325196
0.5781520843505860,0.7481243133544921
0.5781520843505860,0.7481243133544921
0.5789285659790039,0.7546251296997070
0.5789285659790039,0.7546251296997070
0.5737586975097656,0.7471452713012695
0.5756532669067382,0.7471452713012695
0.5811876296997071,0.7544580459594726
0.5811876296997071,0.7544580459594726
0.5741266250610352,0.7516347885131835
0.5741266250610352,0.7516347885131835
0.5778482437133788,0.7465902328491211
0.5778482437133788,0.7465902328491211
0.5765922546386718,0.7484962463378906
0.5765922546386718,0.7484962463378906
0.5675703048706054,0.7325248718261719
0.5675703048706054,0.7325248718261719
0.5723756790161133,0.7307767868041992
0.5723756790161133,0.7307767868041992
0.5614528656005859,0.7203277587890625
0.5614528656005859,0.7203277587890625
0.5630767822265624,0.7103565216064452
0.5630767822265624,0.7103565216064452
0.5623792648315430,0.7187479019165038
0.5623792648315430,0.7187479019165038
0.5514650344848633,0.6963735580444336
0.5514650344848633,0.6963735580444336
0.5675588607788086,0.7127632141113281
0.5675588607788086,0.7127632141113281
0.5494749069213867,0.7027341842651367
0.5662462234497070,0.7027341842651367
0.5616210937500000,0.6992626190185547
0.5616210937500000,0.6992626190185547
0.5593328475952148,0.7112588882446289
0.5593328475952148,0.7112588882446289
0.5524051666259765,0.6958070755004883
0.5524051666259765,0.6958070755004883
0.5660722732543945,0.7114419937133789
0.5660722732543945,0.7114419937133789
0.5520435333251953,0.7055683135986328
0.5520435333251953,0.7055683135986328
0.5635705947875976,0.7039369583129883
0.5635705947875976,0.7039369583129883
0.5621749877929687,0.7164693832397461
0.5621749877929687,0.7164693832397461
0.5560964584350586,0.7038093566894531
0.5560964584350586,0.7038093566894531
0.5660831451416015,0.7185441970825195
0.5660831451416015,0.7185441970825195
0.5625211715698242,0.7187250137329101
0.5625211715698242,0.7187250137329101
0.5679777145385742,0.7208055496215821
0.5679777145385742,0.7208055496215821
0.5677968978881835,0.7255634307861328
0.5677968978881835,0.7255634307861328
0.5680732727050781,0.7276519775390625
0.5680732727050781,0.7276519775390625
0.5702304840087891,0.7316871643066406
0.5702304840087891,0.7316871643066406
0.5709354400634765,0.7331314086914062
0.5709354400634765,0.7331314086914062
0.5727430343627929,0.7340097427368164
0.5727430343627929,0.7340097427368164
0.5727081298828125,0.7375242233276367
0.5727081298828125,0.7375242233276367
0.5719791412353515,0.7355792999267577
0.5719791412353515,0.7355792999267577
0.5739852905273437,0.7399240493774414
0.5739852905273437,0.7399240493774414
0.5745649337768555,0.7410902023315430
0.5745649337768555,0.7410902023315430
0.5746805191040039,0.7414495468139648
0.5746805191040039,0.7414495468139648
0.5763759613037109,0.7435855865478516
0.5763759613037109,0.7435855865478516
0.5735206604003906,0.7405694961547852
0.5735206604003906,0.7405694961547852
0.5804368972778320,0.7471807479858398
0.5804368972778320,0.7471807479858398
0.5753019332885742,0.7465822219848632
0.5753019332885742,0.7465822219848632
0.5784936904907226,0.7429355621337891
0.5784936904907226,0.7429355621337891
0.5784891128540038,0.7474416732788086
0.5784891128540038,0.7474416732788086
0.5764005661010742,0.7466857910156249
0.5764005661010742,0.7466857910156249
0.5798870086669922,0.7521102905273437
0.5798870086669922,0.7521102905273437
0.5791202545166015,0.7507844924926758
0.5791202545166015,0.7507844924926758
0.5791133880615235,0.7513435363769531
0.5791133880615235,0.7513435363769531
0.5794956207275390,0.7511621475219726
0.5794956207275390,0.7511621475219726
0.5791929244995117,0.7528598785400390
0.5791929244995117,0.7528598785400390
0.5791053771972656,0.7542062759399414
0.5791053771972656,0.7542062759399414
0.5803556442260742,0.7528827667236327
0.5803556442260742,0.7528827667236327
0.5815595626831055,0.7556430816650390
0.5815595626831055,0.7556430816650390
0.5791631698608398,0.7540718078613281
0.5791631698608398,0.7540718078613281
0.5815916061401367,0.7554645538330078
0.5815916061401367,0.7554645538330078
0.5797279357910156,0.7580783843994140
0.5797279357910156,0.7580783843994140
0.5806446075439453,0.7547887802124024
0.5806446075439453,0.7547887802124024
0.5823354721069336,0.7587415695190429
0.5799665451049805,0.7587415695190429
0.5795030593872070,0.7557003021240234
0.5795030593872070,0.7557003021240234
0.5826095581054688,0.7570867538452148
0.5826095581054688,0.7570867538452148
0.5793697357177734,0.7594699859619141
0.5793697357177734,0.7594699859619141
0.5798789978027343,0.7550113677978515
0.5798789978027343,0.7550113677978515
0.5821557998657226,0.7578334808349609
0.5821557998657226,0.7578334808349609
0.5770786285400390,0.7515661239624023
0.5770786285400390,0.7515661239624023
0.5829008102416992,0.7528392791748046
0.5829008102416992,0.7528392791748046
0.5683799743652344,0.7450241088867188
0.5683799743652344,0.7450241088867188
0.5754169464111328,0.7357320785522461
0.5754169464111328,0.7357320785522461
0.5731481552124024,0.7399143218994141
0.5731481552124024,0.7399143218994141
0.5647069931030273,0.7236379623413086
0.5647069931030273,0.7236379623413086
0.5733741760253906,0.7320396423339843
0.5733741760253906,0.7320396423339843
0.5605213165283203,0.7269384384155273
0.5605213165283203,0.7269384384155273
0.5694322586059570,0.7225193023681641
0.5694322586059570,0.7225193023681641
0.5685281753540039,0.7313135147094726
0.5685281753540039,0.7313135147094726
0.5618545532226562,0.7196817398071289
0.5618545532226562,0.7196817398071289
0.5731309890747071,0.7316591262817382
0.5731309890747071,0.7316591262817382
0.5615787506103516,0.7300661087036132
0.5615787506103516,0.7300661087036132
0.5714830398559571,0.7283500671386719
0.5714830398559571,0.7283500671386719
0.5717090606689453,0.7408069610595703
0.5717090606689453,0.7408069610595703
0.5663841247558593,0.7298280715942382
0.5663841247558593,0.7298280715942382
0.5784330368041992,0.7434728622436523
0.5784330368041992,0.7434728622436523
0.5662033081054687,0.7421384811401367
0.5662033081054687,0.7421384811401367
0.5763782501220703,0.7403446197509765
0.5763782501220703,0.7403446197509765
0.5770803451538086,0.7515541076660156
0.5770803451538086,0.7515541076660156
0.5710493087768554,0.7395229339599609
0.5710493087768554,0.7395229339599609
0.5825700759887695,0.7522304534912109
0.5825700759887695,0.7522304534912109
0.5695569992065429,0.7505441665649414
0.5695569992065429,0.7505441665649414
0.5804311752319335,0.7471544265747070
0.5804311752319335,0.7471544265747070
0.5807996749877929,0.7584508895874024
0.5807996749877929,0.7584508895874024
0.5740470886230469,0.7455070495605468
0.5740470886230469,0.7455070495605468
0.5857830047607422,0.7589893341064453
0.5857830047607422,0.7589893341064453
0.5731904983520507,0.7564647674560546
0.5731904983520507,0.7564647674560546
0.5841047286987304,0.7531362533569336
0.5841047286987304,0.7531362533569336
0.5839633941650391,0.7643188476562500
0.5839633941650391,0.7643188476562500
0.5767639160156249,0.7515689849853515
0.5767639160156249,0.7515689849853515
0.5894474029541016,0.7641277313232422
0.5894474029541016,0.7641277313232422
0.5761802673339843,0.7616409301757813
0.5761802673339843,0.7616409301757813
0.5868501663208008,0.7576744079589843
0.5868501663208008,0.7576744079589843
0.5867666244506836,0.7696111679077148
0.5867666244506836,0.7696111679077148
0.5799047470092773,0.7559738159179688
0.5799047470092773,0.7559738159179688
0.5926420211791992,0.7687677383422852
0.5926420211791992,0.7687677383422852
0.5787179946899413,0.7660743713378906
0.5787179946899413,0.7660743713378906
0.5889455795288085,0.7622800827026367
0.5889455795288085,0.7622800827026367
0.5894908905029297,0.7732669830322265
0.5894908905029297,0.7732669830322265
0.5862035751342773,0.7597578048706054
0.5862035751342773,0.7597578048706054
0.5942201614379883,0.7718673706054687
0.5942201614379883,0.7718673706054687
0.5802320480346680,0.7697673797607422
0.5802320480346680,0.7697673797607422
0.5910192489624023,0.7652515411376953
0.5910192489624023,0.7652515411376953
0.5915508270263672,0.7764873504638672
0.5933784484863281,0.7764873504638672
0.5836709976196289,0.7627830505371094
0.5879562377929687,0.7627830505371094
0.5872249603271484,0.7657253265380859
0.5872249603271484,0.7660034179687499
0.5978479385375977,0.7783407211303711
0.5909317016601562,0.7783407211303711
0.5836503982543945,0.7665853500366211
0.5836503982543945,0.7665853500366211
0.5961994171142578,0.7721654891967773
0.5961994171142578,0.7721654891967773
0.5872192382812500,0.7777210235595703
0.5872192382812500,0.7777210235595703
0.5899452209472656,0.7670093536376953
0.5899452209472656,0.7670093536376953
0.5957313537597656,0.7769554138183593
0.5957313537597656,0.7769554138183593
0.5830095291137695,0.7661367416381836
0.5830095291137695,0.7661367416381836
0.5945932388305664,0.7685108184814453
0.5945932388305664,0.7685108184814453
0.5866567611694335,0.7710342407226562
0.5926597595214843,0.7710342407226562
0.5840005874633789,0.7565168380737305
0.5840005874633789,0.7565168380737305
0.5911405563354492,0.7665430068969726
0.5911405563354492,0.7665430068969726
0.5781715393066406,0.7541399002075195
0.5781715393066406,0.7541399002075195
0.5922243118286132,0.7573825836181640
0.5922243118286132,0.7573825836181640
0.5813123703002929,0.7618062973022460
0.5813123703002929,0.7618062973022460
0.5822038650512695,0.7531888961791992
0.5822038650512695,0.7531888961791992
0.5909751892089844,0.7662208557128906
0.5909751892089844,0.7662208557128906
0.5817501068115234,0.7573316574096679
0.5817501068115234,0.7573316574096679
0.5928228378295898,0.7622245788574219
0.5928228378295898,0.7622245788574219
0.5850860595703125,0.7708391189575196
0.5850860595703125,0.7708391189575196
0.5865137100219726,0.7623252868652344
0.5865137100219726,0.7623252868652344
0.5976819992065430,0.7753858566284180
0.5976819992065430,0.7753858566284180
0.5839485168457031,0.7650753021240234
0.5839485168457031,0.7650753021240234
0.5967676162719726,0.7710577011108398
0.5967676162719726,0.7710577011108398
0.5886079788208007,0.7778800964355469
0.5886079788208007,0.7778800964355469
0.5915782928466796,0.7681726455688477
0.5915782928466796,0.7681726455688477
0.5981706619262696,0.7794668197631835
0.5981706619262696,0.7794668197631835
0.5861217498779296,0.7707738876342773
0.5861217498779296,0.7707738876342773
0.5986501693725585,0.7751998901367188
0.5986501693725585,0.7751998901367188
0.5924720764160156,0.7814981460571289
0.5924720764160156,0.7814981460571289
0.5908796310424804,0.7704620361328125
0.5908796310424804,0.7704620361328125
0.5996417999267578,0.7834997177124023
0.5996417999267578,0.7834997177124023
0.5873840332031249,0.7738111495971679
0.5873840332031249,0.7738111495971679
0.6018968582153320,0.7776844024658203
0.6018968582153320,0.7776844024658203
0.5915239334106445,0.7830608367919921
0.5998598098754883,0.7830608367919921
0.5918352127075195,0.7737304687500000
0.5918352127075195,0.7737304687500000
0.6006242752075195,0.7857473373413085
0.6006242752075195,0.7857473373413085
0.5904962539672851,0.7758556365966797
0.5904962539672851,0.7758556365966797
0.6006071090698242,0.7786268234252930
0.6006071090698242,0.7786268234252930
0.5925207138061523,0.7858869552612304
0.5925207138061523,0.7858869552612304
0.5925664901733398,0.7757938385009765
0.5925664901733398,0.7757938385009765
0.6035167694091796,0.7874902725219727
0.6035167694091796,0.7874902725219727
0.5890073776245117,0.7764764785766601
0.5890073776245117,0.7764764785766601
0.6013097763061523,0.7812927246093749
0.6013097763061523,0.7812927246093749
0.5929218292236328,0.7874673843383789
0.5929218292236328,0.7874673843383789
0.5951128005981445,0.7767917633056640
0.5951128005981445,0.7767917633056640
0.6013681411743164,0.7873054504394531
0.6013681411743164,0.7873054504394531
0.5885656356811523,0.7782308578491210
0.5885656356811523,0.7782308578491210
0.6006134033203124,0.7819416046142578
0.6006134033203124,0.7819416046142578
0.5946384429931640,0.7879171371459961
0.5946384429931640,0.7879171371459961
0.5923696517944336,0.7764558792114258
0.5923696517944336,0.7764558792114258
0.6010299682617187,0.7890455245971679
0.6010299682617187,0.7890455245971679
0.5886640548706055,0.7794668197631835
0.5886640548706055,0.7794668197631835
0.6031059265136719,0.7829732894897461
0.6031059265136719,0.7829732894897461
0.5929716110229492,0.7881734848022460
0.5929716110229492,0.7881734848022460
0.5928949356079102,0.7785512924194335
0.5928949356079102,0.7785512924194335
0.6014671325683594,0.7901018142700195
0.6014671325683594,0.7901018142700195
0.5909912109375000,0.7795578002929687
0.5909912109375000,0.7795578002929687
0.6004926681518554,0.7810129165649414
0.6004926681518554,0.7810129165649414
0.5919902801513671,0.7867263793945313
0.5995668411254883,0.7867263793945313
0.5909614562988281,0.7738214492797851
0.5909614562988281,0.7738214492797851
0.6004526138305664,0.7817115783691406
0.6004526138305664,0.7817115783691406
0.5840549468994141,0.7669057846069336
0.5840549468994141,0.7669057846069336
0.5946825027465820,0.7678482055664062
0.5946825027465820,0.7678482055664062
0.5854740142822266,0.7714445114135742
0.5854740142822266,0.7714445114135742
0.5866996765136718,0.7589641571044922
0.5866996765136718,0.7589641571044922
0.5931301116943359,0.7686292648315429
0.5931301116943359,0.7686292648315429
0.5802520751953125,0.7594694137573242
0.5802520751953125,0.7594694137573242
0.5927284240722656,0.7632768630981445
0.5812980651855468,0.7632768630981445
0.5871723175048827,0.7706743240356445
0.5871723175048827,0.7706743240356445
0.5855970382690430,0.7603672027587890
0.5855970382690430,0.7603672027587890
0.5951660156249999,0.7748680114746094
0.5951660156249999,0.7748680114746094
0.5831846237182617,0.7669956207275390
0.5831846237182617,0.7669956207275390
0.5982599258422852,0.7715000152587891
0.5982599258422852,0.7715000152587891
0.5889982223510742,0.7781026840209960
0.5889982223510742,0.7781026840209960
0.5889009475708008,0.7694623947143554
0.5889009475708008,0.7694623947143554
0.5983526229858398,0.7818569183349610
0.5983526229858398,0.7818569183349610
0.5882675170898437,0.7730787277221679
0.5882675170898437,0.7730787277221679
0.5984481811523438,0.7757137298583984
0.5984481811523438,0.7757137298583984
0.5911399841308593,0.7838258743286133
0.5911399841308593,0.7838258743286133
0.5907554626464844,0.7737939834594726
0.5907554626464844,0.7737939834594726
0.6023740768432617,0.7855459213256836
0.6023740768432617,0.7855459213256836
0.5876678466796875,0.7755895614624023
0.5876678466796875,0.7755895614624023
0.5998266220092773,0.7798936843872070
0.5998266220092773,0.7798936843872070
0.5927404403686524,0.7870342254638671
0.5927404403686524,0.7870342254638671
0.5943603515625000,0.7767299652099610
0.5943603515625000,0.7767299652099610
0.6015804290771484,0.7874067306518554
0.6015804290771484,0.7874067306518554
0.5892213821411133,0.7796258926391602
0.5892213821411133,0.7796258926391602
0.6012674331665039,0.7828754425048828
0.6012674331665039,0.7828754425048828
0.5964477539062499,0.7899227142333984
0.5964477539062499,0.7899227142333984
0.5937812805175781,0.7783298492431641
0.5937812805175781,0.7783298492431641
0.6031608581542969,0.7912977218627929
0.6031608581542969,0.7912977218627929
0.5904813766479492,0.7821693420410156
0.5904813766479492,0.7821693420410156
0.6052316665649414,0.7855836868286132
0.6052316665649414,0.7855836868286132
0.5957153320312499,0.7915775299072265
0.5957153320312499,0.7915775299072265
0.5954303741455078,0.7821058273315430
0.5954303741455078,0.7821058273315430
0.6046823501586914,0.7943183898925781
0.6046823501586914,0.7943183898925781
0.5944513320922852,0.7849908828735351
0.5944513320922852,0.7849908828735351
0.6046274185180663,0.7874382019042968
0.6046274185180663,0.7874382019042968
0.5973049163818359,0.7951389312744140
0.5973049163818359,0.7951389312744140
0.5968952178955078,0.7845617294311523
0.5968952178955078,0.7845617294311523
0.6082906723022461,0.7962656021118164
0.6082906723022461,0.7962656021118164
0.5935930252075196,0.7861930847167968
0.6052757263183594,0.7861930847167968
0.6051126480102539,0.7899095535278320
0.6051126480102539,0.7899095535278320
0.5985048294067382,0.7966878890991210
0.5985048294067382,0.7966878890991210
0.5997127532958985,0.7861948013305664
0.5997127532958985,0.7861948013305664
0.6063034057617187,0.7958890914916992
0.6063034057617187,0.7958890914916992
0.5938087463378906,0.7880922317504883
0.5938087463378906,0.7880922317504883
0.6048551559448242,0.7900314331054688
0.6048551559448242,0.7900314331054688
0.6004308700561524,0.7963502883911132
0.6004308700561524,0.7963502883911132
0.5965055465698242,0.7841320037841797
0.5965055465698242,0.7841320037841797
0.6049901962280273,0.7947830200195313
0.6049901962280273,0.7947830200195313
0.5917814254760742,0.7849496841430664
0.6029863357543945,0.7849496841430664
0.6045364379882813,0.7854698181152343
0.6045364379882813,0.7854698181152343
0.5948753356933594,0.7885208129882812
0.5948753356933594,0.7885208129882812
0.5921087265014648,0.7758470535278320
0.5921087265014648,0.7758470535278320
0.5996927261352539,0.7835477828979492
0.5996927261352539,0.7835477828979492
0.5883321762084961,0.7722604751586913
0.5883321762084961,0.7722604751586913
0.5965478897094726,0.7715400695800781
0.5965478897094726,0.7715400695800781
0.5896865844726562,0.7782011032104492
0.5896865844726562,0.7782011032104492
0.5879619598388671,0.7673749923706055
0.5879619598388671,0.7673749923706055
0.5992355346679688,0.7783304214477539
0.5992355346679688,0.7783304214477539
0.5847593307495117,0.7693033218383789
0.5847593307495117,0.7693033218383789
0.5965593338012695,0.7736663818359375
0.5965593338012695,0.7736663818359375
0.5911497116088867,0.7820669174194336
0.5911497116088867,0.7820669174194336
0.5925241470336914,0.7733304977416992
0.5925241470336914,0.7733304977416992
0.6001104354858399,0.7841800689697266
0.6001104354858399,0.7841800689697266
0.5884002685546875,0.7783006668090821
0.5884002685546875,0.7783006668090821
0.5998838424682617,0.7813339233398438
0.5998838424682617,0.7813339233398438
0.5968906402587890,0.7888561248779297
0.5968906402587890,0.7888561248779297
0.5931730270385742,0.7781713485717773
0.5931730270385742,0.7781713485717773
0.6025091171264648,0.7900302886962890
0.6025091171264648,0.7900302886962890
0.5905185699462890,0.7826179504394531
0.5905185699462890,0.7826179504394531
0.6037605285644531,0.7847579956054688
0.6037605285644531,0.7847579956054688
0.5960042953491210,0.7908027648925781
0.5960042953491210,0.7908027648925781
0.5942951202392578,0.7819793701171874
0.5942951202392578,0.7819793701171874
0.6033056259155273,0.7925199508666992
0.6033056259155273,0.7925199508666992
0.5935689926147460,0.7848318099975585
0.5935689926147460,0.7848318099975585
0.6021005630493164,0.7856111526489258
0.6021005630493164,0.7856111526489258
0.5965948104858398,0.7937393188476562
0.5965948104858398,0.7937393188476562
0.5948158264160156,0.7838109970092774
0.5948158264160156,0.7838109970092774
0.6063697814941406,0.7944465637207031
0.6063697814941406,0.7944465637207031
0.5920372009277344,0.7856168746948242
0.5920372009277344,0.7856168746948242
0.6028587341308593,0.7885774612426758
0.6028587341308593,0.7885774612426758
0.5973964691162109,0.7955984115600586
0.5973964691162109,0.7955984115600586
0.5979131698608399,0.7856695175170898
0.5979131698608399,0.7856695175170898
0.6046640396118164,0.7947875976562500
0.6046640396118164,0.7947875976562500
0.5926895141601562,0.7882535934448242
0.5926895141601562,0.7882535934448242
0.6033765792846679,0.7900594711303711
0.6033765792846679,0.7900594711303711
0.6004697799682617,0.7970872879028320
0.6004697799682617,0.7970872879028320
0.5936697006225585,0.7940557479858398
0.6052396774291992,0.7940557479858398
0.5999691009521484,0.7881162643432617
0.5999691009521484,0.7881162643432617
0.6030115127563477,0.7985939025878906
0.6030115127563477,0.7985939025878906
0.5945623397827148,0.7867469787597656
0.5945623397827148,0.7867469787597656
0.6054822921752929,0.7954719543457031
0.6054822921752929,0.7954719543457031
0.5939289093017578,0.7957460403442382
0.5939289093017578,0.7957460403442382
0.6011255264282226,0.7892635345458984
0.6011255264282226,0.7892635345458984
0.6041027069091797,0.7999723434448242
0.6041027069091797,0.7999723434448242
0.5950195312500000,0.7880893707275390
0.5950195312500000,0.7880893707275390
0.6057277679443359,0.7975009918212891
0.6057277679443359,0.7975009918212891
0.5949554443359375,0.7966272354125976
0.5949554443359375,0.7966272354125976
0.6017704010009766,0.7902122497558594
0.6017704010009766,0.7902122497558594
0.6038738250732422,0.8003414154052734
0.6038738250732422,0.8003414154052734
0.5945583343505859,0.7885671615600586
0.6004394531250000,0.7885671615600586
0.6059869766235352,0.7970678329467773
0.6059869766235352,0.7970678329467773
0.5945611953735351,0.7953878402709961
0.5945611953735351,0.7953878402709961
0.6002723693847656,0.7878753662109375
0.6002723693847656,0.7878753662109375
0.6019323348999023,0.7979009628295898
0.6019323348999023,0.7979009628295898
0.5929080963134765,0.7841182708740234
0.5929080963134765,0.7841182708740234
0.6035282135009765,0.7914939880371094
0.6035282135009765,0.7914939880371094
0.5913671493530274,0.7888269424438477
0.5913671493530274,0.7888269424438477
0.5969896316528320,0.7818151473999023
0.5969896316528320,0.7818151473999023
0.6000091552734375,0.7918653488159180
0.6000091552734375,0.7918653488159180
0.5914724349975585,0.7796556472778320
0.5914724349975585,0.7796556472778320
0.6027391433715820,0.7893562316894531
0.6027391433715820,0.7893562316894531
0.5912561416625977,0.7898735046386719
0.5912561416625977,0.7898735046386719
0.5988000869750977,0.7840919494628906
0.5988000869750977,0.7840919494628906
0.6021806716918945,0.7959760665893555
0.6021806716918945,0.7959760665893555
0.5935455322265625,0.7840593338012695
0.5935455322265625,0.7840593338012695
0.6046102523803710,0.7944322586059570
0.6046102523803710,0.7944322586059570
0.5938459396362304,0.7939504623413086
0.5938459396362304,0.7939504623413086
0.6009269714355469,0.7877941131591797
0.6009269714355469,0.7877941131591797
0.6033542633056640,0.7989400863647461
0.6033542633056640,0.7989400863647461
0.5939186096191406,0.7868911743164062
0.5939186096191406,0.7868911743164062
0.6055870056152344,0.7959875106811524
0.6055870056152344,0.7959875106811524
0.5941846847534179,0.7952219009399414
0.5941846847534179,0.7952219009399414
0.6004423141479492,0.7882764816284179
0.6004423141479492,0.7882764816284179
0.6025051116943360,0.7996925354003906
0.6014785766601562,0.7996925354003906
0.5938287734985351,0.7866720199584961
0.6020565032958984,0.7866720199584961
0.6054914474487304,0.7963136672973633
0.6054914474487304,0.7963136672973633
0.5932222366333008,0.7951721191406250
0.5932222366333008,0.7951721191406250
0.5995943069458007,0.7889602661132812
0.5995943069458007,0.7889602661132812
0.6025983810424804,0.7999139785766601
0.6025983810424804,0.7999139785766601
0.5938699722290038,0.7872379302978515
0.5938699722290038,0.7872379302978515
0.6051492691040039,0.7965768814086914
0.6051492691040039,0.7965768814086914
0.5928903579711914,0.7961763381958008
0.5928903579711914,0.7961763381958008
0.6000669479370117,0.7895175933837890
0.6000669479370117,0.7895175933837890
0.6031940460205077,0.8006355285644531
0.6031940460205077,0.8006355285644531
0.5935094833374023,0.7875944137573242
0.5935094833374023,0.7875944137573242
0.6047309875488281,0.7975639343261719
0.6047309875488281,0.7975639343261719
0.5930007934570313,0.7962953567504882
0.5930007934570313,0.7962953567504882
0.5999176025390625,0.7897796630859375
0.5999176025390625,0.7897796630859375
0.6023717880249023,0.8004661560058594
0.6023717880249023,0.8004661560058594
0.5927776336669922,0.7885036468505859
0.5927776336669922,0.7885036468505859
0.6050457000732422,0.7982419967651367
0.6050457000732422,0.7982419967651367
0.5936187744140625,0.7971479415893554
0.5936187744140625,0.7971479415893554
0.6002746582031250,0.7908044815063476
0.5920600891113281,0.7908044815063476
0.6022024154663086,0.8022880554199219
0.6022024154663086,0.8022880554199219
0.5934087753295898,0.7887376785278321
0.5934087753295898,0.7887376785278321
0.6054296493530273,0.7989229202270508
0.6054296493530273,0.7989229202270508
0.5927530288696289,0.7969247817993164
0.5927530288696289,0.7969247817993164
0.5990959167480469,0.7911621093750000
0.5990959167480469,0.7911621093750000
0.6023580551147460,0.8023206710815429
0.6023580551147460,0.8023206710815429
0.5937658309936523,0.7894775390625000
0.5937658309936523,0.7894775390625000
0.6045221328735352,0.7987501144409179
0.5942081451416016,0.7987501144409179
0.5922769546508789,0.7978254318237304
0.5922769546508789,0.7978254318237304
0.5990226745605468,0.7906797409057617
0.5990226745605468,0.7906797409057617
0.6016708374023437,0.8011722564697266
0.6016708374023437,0.8011722564697266
0.5916063308715820,0.7860483169555664
0.5916063308715820,0.7860483169555664
0.6022035598754882,0.7961019515991211
0.6022035598754882,0.7961019515991211
0.5896076202392578,0.7926418304443359
0.5896076202392578,0.7926418304443359
0.5965764999389648,0.7835535049438477
0.5965764999389648,0.7835535049438477
0.5969392776489257,0.7910694122314453
0.5969392776489257,0.7910694122314453
0.5859512329101563,0.7742992401123047
0.5859512329101563,0.7742992401123047
0.5973844528198242,0.7816823959350586
0.5973844528198242,0.7816823959350586
0.5841716766357422,0.7781370162963867
0.5841716766357422,0.7781370162963867
0.5911731719970703,0.7704803466796875
0.5911731719970703,0.7704803466796875
0.5931655883789062,0.7824337005615234
0.5931655883789062,0.7824337005615234
0.5849327087402344,0.7691373825073242
0.5849327087402344,0.7691373825073242
0.5981552124023437,0.7809562683105469
0.5981552124023437,0.7809562683105469
0.5860771179199219,0.7811004638671875
0.5860771179199219,0.7811004638671875
0.5940336227416992,0.7771728515624999
0.5940336227416992,0.7771728515624999
0.5981597900390625,0.7903678894042968
0.5981597900390625,0.7903678894042968
0.5900568008422852,0.7784202575683593
0.5900568008422852,0.7784202575683593
0.6028415679931640,0.7900079727172852
0.6028415679931640,0.7900079727172852
0.5906026840209960,0.7902036666870117
0.5906026840209960,0.7902036666870117
0.5990272521972656,0.7847414016723633
0.5990272521972656,0.7847414016723633
0.6024759292602538,0.7968881607055663
0.6024759292602538,0.7968881607055663
0.5932783126831055,0.7839591979980468
0.5932783126831055,0.7839591979980468
0.6052608489990234,0.7953741073608398
0.6052608489990234,0.7953741073608398
0.5936445236206055,0.7940826416015625
0.5936445236206055,0.7940826416015625
0.6011529922485351,0.7883251190185546
0.6011529922485351,0.7883251190185546
0.6039653778076172,0.7997949600219726
0.6039653778076172,0.7997949600219726
0.5944496154785156,0.7872390747070312
0.5944496154785156,0.7872390747070312
0.6073413848876953,0.7979627609252929
0.6073413848876953,0.7979627609252929
0.5956987380981446,0.7968240737915039
0.5956987380981446,0.7968240737915039
0.6025291442871094,0.7909217834472656
0.6025291442871094,0.7909217834472656
0.6049198150634766,0.8027812957763671
0.6049198150634766,0.8027812957763671
0.5963579177856445,0.7892337799072265
0.5963579177856445,0.7892337799072265
0.6087707519531250,0.8001560211181641
0.6087707519531250,0.8001560211181641
0.5961536407470703,0.7983106613159180
0.5961536407470703,0.7983106613159180
0.6029010772705078,0.7927797317504882
0.6029010772705078,0.7927797317504882
0.6062450408935547,0.8043806076049804
0.6062450408935547,0.8043806076049804
0.5973907470703125,0.7906036376953125
0.5973907470703125,0.7906036376953125
0.6094282150268554,0.8017044067382812
0.6094282150268554,0.8017044067382812
0.5959865570068359,0.8003660202026367
0.5959865570068359,0.8003660202026367
0.6041873931884766,0.7940042495727538
0.6041873931884766,0.7940042495727538
0.6068572998046875,0.8057332992553711
0.6068572998046875,0.8057332992553711
0.5975486755371093,0.7915987014770508
0.5975486755371093,0.7915987014770508
0.6093498229980469,0.8032962799072265
0.6093498229980469,0.8032962799072265
0.5971429824829101,0.8014503479003906
0.5971429824829101,0.8014503479003906
0.6051561355590820,0.7953157424926758
0.6051561355590820,0.7953157424926758
0.6072675704956054,0.8070636749267578
0.6072675704956054,0.8070636749267578
0.5975864410400390,0.7936460494995117
0.5975864410400390,0.7936460494995117
0.6104192733764648,0.8043960571289063
0.6018665313720702,0.8043960571289063
0.5984344482421875,0.8033723831176758
0.5984344482421875,0.8033723831176758
0.6055349349975586,0.7969161987304687
0.6055349349975586,0.7969161987304687
0.6088130950927734,0.8099040985107422
0.6088130950927734,0.8099040985107422
0.6007467269897461,0.7967267990112304
0.6007467269897461,0.7967267990112304
0.6136384963989258,0.8073818206787109
0.6136384963989258,0.8073818206787109
0.6013950347900391,0.8062551498413085
0.6013950347900391,0.8062551498413085
0.6072509765624999,0.7992908477783203
0.6072509765624999,0.7992908477783203
0.6112174987792969,0.8099819183349609
0.6112174987792969,0.8099819183349609
0.6017463684082031,0.7958879470825195
0.6017463684082031,0.7958879470825195
0.6132488250732422,0.8047628402709961
0.6132488250732422,0.8047628402709961
0.6007381439208984,0.8034198760986327
0.6007381439208984,0.8034198760986327
0.6072149276733398,0.7955411911010742
0.6072149276733398,0.7955411911010742
0.6110801696777344,0.8064439773559570
0.6110801696777344,0.8064439773559570
0.6012977600097656,0.7925840377807617
0.6012977600097656,0.7925840377807617
0.6128557205200195,0.8028041839599609
0.6128557205200195,0.8028041839599609
0.6017143249511718,0.8017999649047851
0.6017143249511718,0.8017999649047851
0.6083101272583008,0.7952447891235351
0.6083101272583008,0.7952447891235351
0.6118108749389648,0.8063386917114258
0.6118108749389648,0.8063386917114258
0.6021280288696289,0.7937204360961914
0.6021280288696289,0.7937204360961914
0.6146352767944335,0.8035800933837890
0.6146352767944335,0.8035800933837890
0.6035797119140625,0.8026422500610352
0.6035797119140625,0.8026422500610352
0.6092433929443359,0.7959039688110351
0.6092433929443359,0.7959039688110351
0.6123373031616210,0.8073537826538085
0.6123373031616210,0.8073537826538085
0.6035345077514648,0.7938056945800781
0.6035345077514648,0.7938056945800781
0.6152046203613281,0.8039400100708007
0.6152046203613281,0.8039400100708007
0.6034360885620117,0.8025821685791016
0.6034360885620117,0.8025821685791016
0.6087959289550781,0.7963594436645508
0.6087959289550781,0.7963594436645508
0.6128528594970702,0.8072399139404297
0.6128528594970702,0.8072399139404297
0.6040740966796875,0.7941164016723633
0.6040740966796875,0.7941164016723633
0.6148773193359375,0.8040378570556640
0.6042749404907226,0.8040378570556640
0.6028387069702148,0.8033626556396484
0.6028387069702148,0.8033626556396484
0.6091552734375000,0.7963445663452148
0.6091552734375000,0.7963445663452148
0.6130044937133788,0.8072856903076172
0.6130044937133788,0.8072856903076172
0.6034852981567382,0.7937971115112304
0.6034852981567382,0.7937971115112304
0.6053117752075196,0.7956418991088867
0.6053117752075196,0.7956418991088867
0.6081161499023438,0.8070573806762695
0.6096405029296875,0.8070573806762695
0.6011312484741210,0.7968675613403320
0.6011312484741210,0.7968675613403320
0.6128374099731445,0.7995214462280273
0.6128374099731445,0.7995214462280273
0.6080669403076172,0.8066133499145508
0.6080669403076172,0.8066133499145508
0.6070959091186523,0.7954593658447265
0.6070959091186523,0.7954593658447265
0.6138444900512695,0.8057710647583007
0.6138444900512695,0.8057710647583007
0.5998386383056641,0.7974615097045898
0.5998386383056641,0.7974615097045898
0.6115774154663086,0.7991403579711914
0.6115774154663086,0.7991403579711914
0.6091810226440429,0.8060892105102538
0.6091810226440429,0.8060892105102538
0.6033090591430664,0.7938966751098633
0.6027809143066406,0.7938966751098633
0.6124362945556641,0.8064485549926758
0.6124362945556641,0.8064485549926758
0.5984796524047852,0.7972297668457031
0.5984796524047852,0.7972297668457031
0.6127567291259766,0.7987798690795899
0.6127567291259766,0.7987798690795899
0.6056150436401367,0.8047182083129882
0.6056150436401367,0.8047182083129882
0.6021354675292968,0.7947727203369140
0.6021354675292968,0.7947727203369140
0.6114933013916015,0.8063426971435547
0.6114933013916015,0.8063426971435547
0.6002134323120117,0.7971445083618164
0.6002134323120117,0.7971445083618164
0.5999656677246094,0.7934389114379883
0.5999656677246094,0.7933794021606445
0.6106035232543945,0.8036550521850586
0.6106035232543945,0.8036550521850586
0.5996160507202148,0.8023441314697265
0.5996160507202148,0.8023441314697265
0.6051681518554687,0.7954364776611328
0.6051681518554687,0.7954364776611328
0.6085905075073242,0.8057630538940429
0.6085905075073242,0.8057630538940429
0.5982278823852539,0.7927556991577148
0.5982278823852539,0.7927556991577148
0.6101818084716797,0.8019121170043945
0.6101818084716797,0.8019121170043945
0.5987062454223633,0.8002098083496093
0.5987062454223633,0.8002098083496093
0.6032341003417968,0.7926635742187500
0.6032341003417968,0.7926635742187500
0.6061981201171874,0.8034175872802735
0.6061981201171874,0.8034175872802735
0.5970233917236328,0.7890386581420898
0.5970233917236328,0.7890386581420898
0.6083999633789062,0.7980148315429687
0.6083999633789062,0.7980148315429687
0.5964288711547852,0.7961969375610352
0.5964288711547852,0.7961969375610352
0.6010774612426758,0.7894535064697266
0.6010774612426758,0.7894535064697266
0.6054536819458007,0.8004306793212891
0.6054536819458007,0.8004306793212891
0.5963172912597656,0.7871194839477539
0.5963172912597656,0.7871194839477539
0.6074134826660156,0.7973281860351562
0.6074134826660156,0.7973281860351562
0.5954343795776367,0.7971605300903321
0.5954343795776367,0.7971605300903321
0.6013441085815430,0.7902849197387695
0.6013441085815430,0.7902849197387695
0.6056917190551757,0.8020774841308593
0.6056917190551757,0.8020774841308593
0.5960546493530273,0.7887182235717773
0.5960546493530273,0.7887182235717773
0.6071336746215820,0.7996467590332031
0.6071336746215820,0.7996467590332031
0.5963859558105469,0.7990476608276367
0.5963859558105469,0.7990476608276367
0.6020507812500000,0.7922544479370117
0.6020507812500000,0.7922544479370117
0.6054542541503906,0.8036951065063477
0.6054542541503906,0.8036951065063477
0.5948993682861328,0.7907203674316406
0.5948993682861328,0.7907203674316406
0.6070587158203125,0.8006870269775390
0.6070587158203125,0.8006870269775390
0.5954452514648437,0.8000724792480468
0.5954452514648437,0.8000724792480468
0.6003787994384765,0.7927219390869140
0.6003787994384765,0.7927219390869140
0.6035614013671875,0.8049934387207031
0.6035614013671875,0.8049934387207031
0.5942979812622070,0.7912216186523438
0.5942979812622070,0.7912216186523438
0.6062816619873047,0.8013702392578125
0.6062816619873047,0.8013702392578125
0.5941692352294922,0.8007127761840820
0.5941692352294922,0.8007127761840820
0.5987274169921875,0.7940271377563476
0.5987274169921875,0.7940271377563476
0.6035202026367187,0.8053630828857422
0.6035202026367187,0.8053630828857422
0.5939466476440429,0.7916679382324219
0.5939466476440429,0.7916679382324219
0.6053043365478515,0.8012008666992188
0.6053043365478515,0.8012008666992188
0.5930791854858398,0.8012220382690429
0.5930791854858398,0.8012220382690429
0.5989019393920898,0.7937988281250000
0.5989019393920898,0.7937988281250000
0.6035345077514648,0.8052801132202149
0.6035345077514648,0.8052801132202149
0.5931655883789062,0.7916055679321289
0.5931655883789062,0.7916055679321289
0.6039865493774413,0.8018068313598633
0.6039865493774413,0.8018068313598633
0.5932605743408202,0.8010395050048827
0.5932605743408202,0.8010395050048827
0.5985546112060547,0.7939458847045898
0.5985546112060547,0.7939458847045898
0.6026315689086914,0.8047599792480469
0.6026315689086914,0.8047599792480469
0.5919994354248047,0.7920175552368164
0.5919994354248047,0.7920175552368164
0.6042795181274414,0.8015739440917968
0.6042795181274414,0.8015739440917968
0.5935655593872070,0.8011802673339844
0.5935655593872070,0.8011802673339844
0.5979389190673828,0.7941844940185546
0.5979389190673828,0.7941844940185546
0.6017984390258789,0.8063404083251953
0.6017984390258789,0.8063404083251953
0.5934825897216797,0.7930789947509765
0.6039831161499023,0.7930789947509765
0.6055526733398438,0.8030788421630859
0.6055526733398438,0.8030788421630859
0.5939455032348633,0.8021249771118164
0.5939455032348633,0.8021249771118164
0.5979028701782226,0.7952459335327148
0.5979028701782226,0.7952459335327148
0.6028959274291992,0.8062934875488281
0.6028959274291992,0.8062934875488281
0.5934207916259765,0.7927196502685546
0.5934207916259765,0.7927196502685546
0.6051315307617188,0.8032527923583984
0.6051315307617188,0.8032527923583984
0.5935844421386719,0.8030353546142578
0.5935844421386719,0.8030353546142578
0.5989093780517578,0.7950942993164062
0.5989093780517578,0.7950942993164062
0.6028467178344726,0.8051559448242187
0.6028467178344726,0.8051559448242187
0.5920806884765625,0.7898632049560547
0.5920806884765625,0.7898632049560547
0.6022144317626953,0.7987432479858398
0.6022144317626953,0.7987432479858398
0.5911989212036133,0.7956007003784179
0.5911989212036133,0.7956007003784179
0.5953823089599609,0.7854909896850586
0.5953823089599609,0.7854909896850586
0.5982582092285156,0.7942228317260742
0.5982582092285156,0.7942228317260742
0.5872638702392577,0.7791046142578125
0.5872638702392577,0.7791046142578125
0.5992166519165039,0.7875503540039063
0.5992166519165039,0.7875503540039063
0.5886583328247070,0.7871046066284180
0.5886583328247070,0.7871046066284180
0.5939907073974610,0.7804298400878906
0.5939907073974610,0.7804298400878906
0.5988315582275391,0.7938034057617187
0.5988315582275391,0.7938034057617187
0.5909711837768554,0.7820365905761718
0.5909711837768554,0.7820365905761718
0.6039733886718750,0.7936975479125976
0.6039733886718750,0.7936975479125976
0.5933418273925781,0.7948848724365234
0.5933418273925781,0.7948848724365234
0.5983211517333984,0.7894758224487305
0.5983211517333984,0.7894758224487305
0.6044202804565429,0.8022233963012695
0.6044202804565429,0.8022233963012695
0.5955350875854492,0.7892618179321289
0.5955350875854492,0.7892618179321289
0.6080451965332031,0.8004049301147461
0.6080451965332031,0.8004049301147461
0.5959224700927734,0.8008947372436523
0.5959224700927734,0.8008947372436523
0.6026126861572265,0.7943475723266601
0.6026126861572265,0.7943475723266601
0.6076326370239258,0.8066717147827148
0.6076326370239258,0.8066717147827148
0.5975057601928710,0.7928918838500977
0.5975057601928710,0.7928918838500977
0.6090539932250977,0.8042243957519531
0.5979303359985352,0.8042243957519531
0.5981094360351562,0.8034496307373047
0.5981094360351562,0.8034496307373047
0.6038125991821289,0.7966117858886719
0.6038125991821289,0.7966117858886719
0.6078186035156250,0.8081016540527344
0.6078186035156250,0.8081016540527344
0.5973381042480469,0.7949094772338867
0.5973381042480469,0.7949094772338867
0.6100364685058594,0.8053030014038086
0.6100364685058594,0.8053030014038086
0.5987491607666016,0.8044412612915038
0.5987491607666016,0.8044412612915038
0.6033908843994140,0.7974523544311524
0.6033908843994140,0.7974523544311524
0.6068733215332031,0.8094194412231445
0.6068733215332031,0.8094194412231445
0.5979000091552734,0.7952848434448242
0.5979000091552734,0.7952848434448242
0.6100124359130860,0.8056886672973632
0.6100124359130860,0.8056886672973632
0.5984252929687500,0.8049047470092773
0.5984252929687500,0.8049047470092773
0.6021291732788085,0.7983890533447265
0.6021291732788085,0.7983890533447265
0.6075754165649414,0.8095630645751953
0.6075754165649414,0.8095630645751953
0.5983903884887695,0.7961025238037109
0.5983903884887695,0.7961025238037109
0.6093206405639648,0.8059186935424805
0.5983526229858398,0.8059186935424805
0.5975595474243164,0.8060297012329102
0.5975595474243164,0.8060297012329102
0.6029050827026367,0.7987380981445312
0.6029050827026367,0.7987380981445312
0.6077110290527343,0.8100912094116210
0.6077110290527343,0.8100912094116210
0.5980527877807617,0.7965322494506836
0.5980527877807617,0.7965322494506836
0.6088926315307617,0.8070322036743164
0.6088926315307617,0.8070322036743164
0.5984630584716797,0.8065429687500000
0.6119087219238281,0.8065429687500000
0.6037239074707031,0.7995935440063476
0.6037239074707031,0.7995935440063476
0.6080337524414062,0.8109563827514649
0.6080337524414062,0.8109563827514649
0.5977552413940429,0.7975685119628906
0.5977552413940429,0.7975685119628906
0.6107128143310546,0.8081926345825196
0.6107128143310546,0.8081926345825196
0.5987503051757812,0.8072015762329101
0.6101343154907226,0.8072015762329101
0.6039424896240234,0.7997961044311523
0.6039424896240234,0.7997961044311523
0.6073980331420898,0.8117208480834961
0.6073980331420898,0.8117208480834961
0.5984247207641601,0.7968452453613281
0.6083209991455077,0.7968452453613281
0.6107557296752929,0.8069240570068359
0.5985225677490235,0.8069240570068359
0.5977643966674805,0.8048772811889648
0.5977643966674805,0.8048772811889648
0.6018733978271484,0.7970008850097656
0.6018733978271484,0.7970008850097656
0.6062805175781250,0.8065795898437500
0.6062805175781250,0.8065795898437500
0.5961170196533203,0.7905338287353515
0.5961170196533203,0.7905338287353515
0.6077247619628906,0.7992479324340820
0.6077247619628906,0.7992479324340820
0.5944513320922852,0.7976491928100585
0.5944513320922852,0.7976491928100585
0.6003639221191406,0.7899267196655273
0.6003639221191406,0.7899267196655273
0.6052579879760742,0.8013662338256836
0.6052579879760742,0.8013662338256836
0.5955831527709960,0.7876373291015625
0.5955831527709960,0.7876373291015625
0.6078809738159180,0.7997428894042968
0.6078809738159180,0.7997428894042968
0.5969781875610352,0.7998155593872071
0.5969781875610352,0.7998155593872071
0.6030973434448242,0.7941026687622070
0.6030973434448242,0.7941026687622070
0.6081556320190430,0.8063816070556641
0.6081556320190430,0.8063816070556641
0.5984510421752930,0.7937587738037110
0.5984510421752930,0.7937587738037110
0.6122880935668945,0.8053653717041015
0.6122880935668945,0.8053653717041015
0.6010871887207031,0.8053848266601562
0.6010871887207031,0.8053848266601562
0.6061460494995117,0.7988891601562500
0.6061460494995117,0.7988891601562500
0.6101451873779297,0.8110450744628906
0.6101451873779297,0.8110450744628906
0.6013458251953124,0.7970014572143554
0.6013458251953124,0.7970014572143554
0.6140676498413086,0.8083276748657227
0.6031608581542969,0.7975811004638672
0.6031608581542969,0.8086601257324219
0.6131435394287109,0.8121311187744140
0.6052310943603515,0.8121311187744140
0.5989053726196288,0.8022748947143554
0.5989053726196288,0.8022748947143554
0.6137168884277343,0.8040596008300781
0.6137168884277343,0.8040596008300781
0.6075576782226563,0.8107234954833984
0.6075576782226563,0.8107234954833984
0.6033531188964844,0.7993366241455078
0.6033531188964844,0.7993366241455078
0.6133111953735352,0.8131519317626953
0.6133111953735352,0.8131519317626953
0.6012594223022460,0.8033849716186523
0.6012594223022460,0.8033849716186523
0.6118228912353515,0.8039131164550781
0.6118228912353515,0.8039131164550781
0.6078031539916992,0.8127010345458984
0.6078031539916992,0.8127010345458984
0.6036409378051758,0.8004581451416015
0.6036409378051758,0.8004581451416015
0.6158489227294922,0.8141653060913085
0.6158489227294922,0.8141653060913085
0.5995599746704101,0.8034988403320312
0.5995599746704101,0.8034988403320312
0.6124019622802734,0.8060611724853516
0.6124019622802734,0.8060611724853516
0.6083513259887695,0.8139009475708008
0.6083513259887695,0.8139009475708008
0.6062473297119141,0.8015727996826172
0.6062473297119141,0.8015727996826172
0.6143674850463867,0.8143215179443359
0.6143674850463867,0.8143215179443359
0.6001441955566406,0.8055467605590820
0.6001441955566406,0.8055467605590820
0.6128728866577148,0.8071929931640625
0.6128728866577148,0.8071929931640625
0.6111482620239258,0.8149795532226562
0.6111482620239258,0.8149795532226562
0.6048219680786132,0.8017192840576172
0.6048219680786132,0.8017192840576172
0.6147932052612305,0.8162538528442382
0.6147932052612305,0.8162538528442382
0.6006242752075195,0.8067071914672851
0.6006242752075195,0.8067071914672851
0.6153757095336914,0.8081680297851562
0.6153757095336914,0.8081680297851562
0.6094985961914062,0.8150218963623047
0.6094985961914062,0.8150218963623047
0.6050725936889648,0.8033535003662109
0.6050725936889648,0.8033535003662109
0.6151914596557617,0.8170331954956055
0.6151914596557617,0.8170331954956055
0.6030618667602539,0.8073801040649414
0.6030618667602539,0.8073801040649414
0.6135074615478515,0.8076364517211914
0.6135074615478515,0.8076364517211914
0.6094093322753906,0.8161411285400391
0.6094093322753906,0.8161411285400391
0.6048643112182617,0.8032499313354492
0.6048643112182617,0.8032499313354492
0.6168125152587890,0.8161256790161132
0.6168125152587890,0.8161256790161132
0.6000257492065429,0.8044395446777344
0.6000257492065429,0.8044395446777344
0.6121753692626953,0.8056835174560547
0.6121753692626953,0.8056835174560547
0.6077499389648438,0.8123388290405273
0.6077499389648438,0.8123388290405273
0.6047006607055664,0.7980966567993164
0.6047006607055664,0.7980966567993164
0.6121919631958007,0.8092700958251953
0.6121919631958007,0.8092700958251953
0.5973861694335937,0.7989984512329101
0.5973861694335937,0.7989984512329101
0.6095117568969727,0.7994579315185547
0.6095117568969727,0.7994579315185547
0.6074935913085937,0.8066368103027344
0.6074935913085937,0.8066368103027344
0.6010414123535156,0.7930784225463867
0.6010414123535156,0.7930784225463867
0.6112770080566406,0.8080015182495117
0.6112770080566406,0.8080015182495117
0.5974662780761718,0.7991157531738281
0.5974662780761718,0.7991157531738281
0.6124597549438476,0.8011905670166015
0.6124597549438476,0.8011905670166015
0.6071296691894531,0.8090715408325195
0.6071296691894531,0.8090715408325195
0.6028501510620117,0.7979427337646484
0.6028501510620117,0.7979427337646484
0.6134193420410156,0.8123714447021484
0.6134193420410156,0.8123714447021484
0.6015895843505860,0.8032545089721680
0.6015895843505860,0.8032545089721680
0.6123836517333984,0.8041746139526367
0.6123836517333984,0.8041746139526367
0.6087501525878906,0.8133665084838867
0.6087501525878906,0.8133665084838867
0.6043870925903320,0.8009176254272461
0.6043870925903320,0.8009176254272461
0.6168605804443359,0.8149085998535156
0.6168605804443359,0.8149085998535156
0.6006872177124023,0.8046718597412109
0.6006872177124023,0.8046718597412109
0.6132568359375000,0.8069738388061524
0.6132568359375000,0.8069738388061524
0.6094905853271484,0.8150836944580078
0.6094905853271484,0.8150836944580078
0.6070003509521484,0.8024602890014648
0.6070003509521484,0.8024602890014648
0.6152835845947265,0.8152353286743164
0.6152835845947265,0.8152353286743164
0.6011730194091797,0.8067203521728515
0.6011730194091797,0.8067203521728515
0.6135749816894531,0.8079597473144531
0.6135749816894531,0.8079597473144531
0.6120655059814453,0.8161806106567383
0.6120655059814453,0.8161806106567383
0.6053352355957031,0.8024711608886719
0.6053352355957031,0.8024711608886719
0.6156045913696289,0.8170938491821289
0.6156045913696289,0.8170938491821289
0.6015386581420898,0.8079013824462891
0.6015386581420898,0.8079013824462891
0.6157350540161133,0.8087024688720703
0.6157350540161133,0.8087024688720703
0.6105188369750977,0.8159013748168945
0.6105188369750977,0.8159013748168945
0.6054656982421874,0.8043136596679688
0.6054656982421874,0.8043136596679688
0.6157264709472656,0.8173610687255859
0.6157264709472656,0.8173610687255859
0.6042125701904296,0.8089244842529296
0.6042125701904296,0.8089244842529296
0.6135824203491210,0.8084123611450195
0.6043487548828125,0.8084123611450195
0.6108238220214843,0.8174840927124023
0.6108238220214843,0.8174840927124023
0.6056768417358398,0.8049922943115234
0.6056768417358398,0.8049922943115234
0.6178350448608398,0.8179779052734375
0.6178350448608398,0.8179779052734375
0.6023162841796875,0.8084947586059570
0.6023162841796875,0.8084947586059570
0.6136808395385742,0.8096591949462890
0.6042200088500976,0.8096591949462890
0.6106807708740234,0.8177845001220703
0.6106807708740234,0.8177845001220703
0.6076354980468750,0.8052818298339843
0.6076354980468750,0.8052818298339843
0.6156806945800781,0.8172672271728515
0.6156806945800781,0.8172672271728515
0.6021829605102539,0.8097867965698242
0.6021829605102539,0.8097867965698242
0.6133975982666016,0.8100551605224610
0.6133975982666016,0.8100551605224610
0.6126943588256836,0.8181718826293946
0.6126943588256836,0.8181718826293946
0.6053586959838867,0.8043914794921875
0.6053586959838867,0.8043914794921875
0.6153282165527344,0.8180248260498046
0.6153282165527344,0.8180248260498046
0.6016382217407227,0.8093667984008789
0.6016382217407227,0.8093667984008789
0.6147794723510742,0.8090875625610351
0.6147794723510742,0.8090875625610351
0.6095861434936524,0.8155477523803710
0.6095861434936524,0.8155477523803710
0.6039270401000977,0.8029289245605469
0.6039270401000977,0.8029289245605469
0.6135108947753906,0.8149744033813476
0.6135108947753906,0.8149744033813476
0.6018001556396484,0.8054557800292969
0.6018001556396484,0.8054557800292969
0.6104433059692382,0.8033283233642577
0.6104433059692382,0.8033283233642577
0.6071027755737305,0.8111263275146484
0.6071027755737305,0.8111263275146484
0.6015071868896484,0.7974477767944336
0.6015071868896484,0.7974477767944336
0.6133844375610351,0.8095848083496093
0.6133844375610351,0.8095848083496093
0.5978633880615234,0.7999837875366210
0.5978633880615234,0.7999837875366210
0.6090768814086914,0.8012128829956054
0.6090768814086914,0.8012128829956054
0.6066513061523438,0.8099435806274414
0.6066513061523438,0.8099435806274414
0.6036941528320312,0.7979129791259766
0.6036941528320312,0.7979129791259766
0.6121759414672852,0.8106782913208007
0.6121759414672852,0.8106782913208007
0.5992807388305664,0.8041191101074219
0.5992807388305664,0.8041191101074219
0.6108318328857422,0.8048709869384766
0.6108318328857422,0.8048709869384766
0.6106613159179687,0.8136486053466797
0.6106613159179687,0.8136486053466797
0.6036003112792968,0.8006538391113281
0.6036003112792968,0.8006538391113281
0.6140939712524414,0.8149360656738281
0.6140939712524414,0.8149360656738281
0.6008937835693359,0.8071884155273438
0.6008937835693359,0.8071884155273438
0.6144361495971680,0.8074802398681641
0.6144361495971680,0.8074802398681641
0.6099002838134765,0.8150568008422852
0.6099002838134765,0.8150568008422852
0.6045976638793945,0.8035268783569336
0.6045976638793945,0.8035268783569336
0.6149597167968750,0.8166858673095703
0.6149597167968750,0.8166858673095703
0.6038864135742187,0.8087379455566406
0.6038864135742187,0.8087379455566406
0.6131132125854492,0.8079334259033203
0.6131132125854492,0.8079334259033203
0.6104993820190430,0.8173976898193359
0.6104993820190430,0.8173976898193359
0.6052688598632813,0.8049493789672851
0.6052688598632813,0.8049493789672851
0.6176753997802734,0.8179258346557617
0.6176753997802734,0.8179258346557617
0.6023305892944336,0.8088890075683594
0.6023305892944336,0.8088890075683594
0.6134496688842773,0.8099945068359374
0.6134496688842773,0.8099945068359374
0.6110727310180664,0.8185626983642578
0.6110727310180664,0.8185626983642578
0.6077699661254883,0.8059141159057617
0.6077699661254883,0.8059141159057617
0.6161401748657226,0.8179304122924804
0.6161401748657226,0.8179304122924804
0.6028501510620117,0.8108247756958008
0.6028501510620117,0.8108247756958008
0.6140150070190430,0.8110336303710938
0.6140150070190430,0.8110336303710938
0.6136201858520508,0.8193208694458007
0.6136201858520508,0.8193208694458007
0.6061019897460938,0.8058500289916992
0.6061019897460938,0.8058500289916992
0.6163644790649414,0.8195863723754883
0.6163644790649414,0.8195863723754883
0.6031568527221679,0.8115846633911132
0.6031568527221679,0.8115846633911132
0.6163724899291992,0.8115486145019531
0.6054851531982421,0.8115486145019531
0.6117490768432617,0.8190124511718749
0.6117490768432617,0.8190124511718749
0.6062187194824219,0.8072416305541992
0.6062187194824219,0.8072416305541992
0.6165275573730469,0.8200658798217774
0.6165275573730469,0.8200658798217774
0.6052883148193359,0.8120000839233398
0.6052883148193359,0.8120000839233398
0.6142232894897460,0.8108877182006836
0.6142232894897460,0.8108877182006836
0.6118022918701171,0.8202816009521484
0.6118022918701171,0.8202816009521484
0.6061609268188476,0.8076461791992188
0.6061609268188476,0.8076461791992188
0.6187437057495117,0.8204669952392578
0.6187437057495117,0.8204669952392578
0.6032913208007812,0.8115262985229492
0.6032913208007812,0.8115262985229492
0.6142805099487304,0.8120876312255859
0.6142805099487304,0.8120876312255859
0.6116249084472656,0.8206100463867188
0.6116249084472656,0.8206100463867188
0.6079633712768554,0.8071826934814453
0.6079633712768554,0.8071826934814453
0.6160612106323242,0.8184156417846680
0.6160612106323242,0.8184156417846680
0.6023231506347656,0.8104316711425781
0.6023231506347656,0.8104316711425781
0.6127470016479492,0.8092826843261719
0.6127470016479492,0.8092826843261719
0.6117925643920898,0.8167282104492187
0.6117925643920898,0.8167282104492187
0.6036460876464843,0.8018903732299805
0.6036460876464843,0.8018903732299805
0.6135641098022461,0.8143484115600585
0.6135641098022461,0.8143484115600585
0.5998208999633788,0.8056709289550781
0.5998208999633788,0.8056709289550781
0.6125198364257812,0.8046598434448242
0.6125198364257812,0.8046598434448242
0.6078638076782227,0.8119749069213867
0.6078638076782227,0.8119749069213867
0.6020931243896485,0.7999402999877929
0.6020931243896485,0.7999402999877929
0.6130170822143555,0.8126832962036132
0.6130170822143555,0.8126832962036132
0.6018779754638671,0.8055850982666015
0.6018779754638671,0.8055850982666015
0.6108970642089844,0.8048452377319336
0.6108970642089844,0.8048452377319336
0.6091352462768554,0.8153017044067382
0.6091352462768554,0.8153017044067382
0.6042388916015625,0.8152456283569336
0.6042388916015625,0.8152456283569336
0.6042388916015625,0.8134271621704101
0.6079095840454102,0.8054134368896484
0.6027654647827149,0.8054134368896484
0.6140716552734374,0.8175075531005859
0.6109897613525390,0.8175075531005859
0.6030515670776367,0.8054300308227539
0.6120203018188476,0.8054300308227539
0.6152624130249024,0.8143375396728515
0.6063926696777343,0.8143375396728515
0.6059749603271484,0.8156599044799805
0.6156589508056640,0.8156599044799805
0.6088285446166992,0.8074304580688476
0.6038497924804688,0.8074304580688476
0.6142438888549805,0.8197723388671875
0.6110790252685546,0.8197723388671875
0.6045261383056640,0.8069795608520508
0.6155765533447265,0.8069795608520508
0.6162168502807617,0.8158430099487305
0.6052642822265625,0.8158430099487305
0.6063926696777343,0.8169507980346680
0.6165550231933593,0.8169507980346680
0.6089710235595703,0.8092306137084960
0.6040140151977539,0.8092306137084960
0.6160085678100585,0.8210672378540039
0.6147680282592773,0.8210672378540039
0.6060338973999023,0.8083127975463867
0.6144790649414062,0.8083127975463867
0.6168508529663086,0.8171550750732421
0.6060058593750000,0.8171550750732421
0.6064138412475586,0.8188053131103515
0.6165081024169922,0.8188053131103515
0.6103277206420898,0.8102600097656250
0.6074306488037109,0.8102600097656250
0.6166454315185547,0.8217699050903320
0.6127595901489258,0.8217699050903320
0.6063823699951172,0.8096529006958008
0.6150936126708985,0.8096529006958008
0.6160165786743164,0.8177770614624024
0.6058753967285156,0.8177770614624024
0.6081247329711914,0.8195880889892578
0.6192609786987304,0.8195880889892578
0.6110206604003906,0.8113208770751953
0.6063480377197266,0.8113208770751953
0.6167798995971679,0.8224971771240234
0.6131990432739257,0.8224971771240234
0.6059652328491211,0.8110073089599609
0.6146839141845702,0.8110073089599609
0.6171255111694336,0.8183876037597656
0.6089733123779296,0.8183876037597656
0.6085716247558594,0.8202535629272460
0.6174076080322265,0.8202535629272460
0.6107248306274414,0.8115657806396485
0.6065729141235351,0.8115657806396485
0.6163307189941406,0.8234218597412110
0.6125713348388672,0.8234218597412110
0.6069105148315429,0.8114398956298828
0.6176845550537109,0.8114398956298828
0.6177389144897460,0.8189672470092774
0.6071908950805663,0.8189672470092774
0.6086362838745117,0.8208566665649414
0.6176239013671875,0.8208566665649414
0.6101234436035156,0.8125974655151367
0.6059835433959960,0.8125974655151367
0.6173177719116211,0.8236112594604492
0.6156148910522461,0.8236112594604492
0.6072589874267578,0.8118227005004882
0.6159427642822265,0.8118227005004882
0.6174350738525390,0.8188922882080077
0.6070690155029297,0.8188922882080077
0.6078369140625000,0.8210884094238281
0.6166597366333008,0.8210884094238281
0.6105903625488281,0.8119857788085937
0.6083330154418946,0.8119857788085937
0.6171037673950195,0.8225646972656250
0.6127841949462890,0.8225646972656250
0.6059291839599609,0.8095727920532226
0.6145322799682617,0.8095727920532226
0.6151279449462891,0.8162200927734374
0.6046817779541015,0.8162200927734374
0.6067783355712890,0.8168214797973633
0.6173383712768554,0.8168214797973633
0.6083782196044921,0.8066757202148437
0.6038286209106445,0.8066757202148437
0.6139846801757812,0.8158636093139648
0.6097537994384765,0.8158636093139648
0.6022447586059571,0.8026571273803711
0.6108415603637695,0.8026571273803711
0.6129741668701172,0.8086154937744140
0.6045032501220703,0.8086154937744140
0.6043962478637696,0.8100145339965820
0.6129987716674804,0.8100145339965820
0.6060007095336913,0.8013050079345703
0.6021348953247070,0.8013050079345703
0.6118915557861327,0.8130289077758789
0.6083496093749999,0.8130289077758789
0.6026796340942383,0.8017679214477539
0.6138301849365234,0.8017679214477539
0.6137340545654296,0.8099452972412109
0.6035911560058593,0.8099452972412109
0.6054491043090821,0.8127702713012696
0.6147428512573242,0.8127702713012696
0.6073499679565429,0.8055221557617187
0.6035270690917969,0.8055221557617187
0.6150232315063476,0.8174989700317382
0.6134021759033202,0.8174989700317382
0.6055595397949218,0.8063009262084960
0.6141420364379883,0.8063009262084960
0.6159290313720703,0.8141103744506836
0.6057260513305663,0.8141103744506836
0.6068538665771485,0.8169954299926757
0.6160074234008789,0.8169954299926757
0.6100193023681640,0.8088014602661132
0.6079416275024414,0.8088014602661132
0.6168228149414062,0.8205070495605469
0.6130502700805663,0.8205070495605469
0.6063972473144531,0.8085605621337890
0.6154506683349609,0.8085605621337890
0.6164651870727539,0.8166669845581055
0.6061111450195312,0.8166669845581055
0.6085441589355468,0.8188573837280273
0.6197507858276367,0.8188573837280273
0.6113571166992188,0.8103738784790039
0.6068378448486328,0.8103738784790039
0.6174007415771484,0.8220348358154297
0.6137311935424804,0.8220348358154297
0.6063205718994140,0.8104866027832031
0.6152956008911132,0.8104866027832031
0.6179048538208007,0.8178268432617187
0.6094739913940429,0.8178268432617187
0.6093217849731445,0.8200973510742188
0.6183357238769531,0.8200973510742188
0.6114801406860352,0.8112728118896484
0.6072566986083984,0.8112728118896484
0.6172897338867187,0.8232032775878906
0.6134548187255859,0.8232032775878906
0.6075725555419922,0.8113780975341797
0.6185874938964844,0.8113780975341797
0.6186527252197266,0.8186662673950195
0.6078569412231445,0.8186662673950195
0.6094739913940429,0.8208990097045898
0.6184427261352539,0.8208990097045898
0.6108089447021484,0.8124773025512695
0.6067737579345703,0.8124773025512695
0.6181217193603515,0.8235826492309570
0.6163404464721679,0.8235826492309570
0.6078208923339844,0.8120384216308594
0.6166883468627929,0.8120384216308594
0.6181783676147461,0.8188047409057617
0.6079456329345703,0.8188047409057617
0.6088737487792969,0.8216857910156250
0.6177000045776367,0.8216857910156250
0.6117696762084961,0.8128498077392577
0.6097291946411133,0.8128498077392577
0.6186784744262696,0.8240890502929688
0.6144207000732421,0.8240890502929688
0.6078712463378906,0.8125940322875976
0.6169034957885742,0.8125940322875976
0.6175878524780273,0.8199382781982422
0.6073076248168945,0.8199382781982422
0.6098979949951172,0.8221630096435547
0.6207675933837891,0.8221630096435547
0.6120351791381836,0.8135232925415039
0.6079010009765625,0.8135232925415039
0.6184112548828125,0.8244260787963867
0.6145820617675781,0.8244260787963867
0.6073293685913086,0.8134443283081054
0.6162866592407227,0.8134443283081054
0.6187002182006835,0.8201242446899414
0.6103425979614258,0.8201242446899414
0.6103837966918945,0.8227100372314453
0.6188627243041992,0.8227100372314453
0.6119876861572265,0.8137807846069336
0.6079828262329101,0.8137807846069336
0.6175827026367188,0.8250011444091797
0.6136167526245117,0.8250011444091797
0.6077316284179687,0.8128984451293945
0.6187088012695312,0.8128984451293945
0.6182579040527344,0.8192001342773437
0.6074844360351562,0.8192001342773437
0.6089532852172851,0.8202535629272460
0.6177995681762695,0.8202535629272460
0.6098270416259766,0.8109420776367188
0.6055034637451172,0.8109420776367188
0.6167604446411132,0.8211496353149413
0.6146306991577148,0.8211496353149413
0.6059263229370117,0.8076353073120117
0.6143079757690429,0.8076353073120117
0.6157093048095703,0.8132841110229492
0.6047075271606445,0.8132841110229492
0.6051504135131835,0.8142076492309570
0.6142278671264648,0.8142076492309570
0.6077648162841797,0.8038021087646484
0.6053083419799804,0.8038021087646484
0.6141254425048828,0.8145320892333984
0.6099758148193359,0.8145320892333984
0.6032260894775391,0.8021741867065429
0.6124408721923827,0.8021741867065429
0.6133403778076172,0.8097639083862305
0.6029268264770508,0.8097639083862305
0.6056287765502929,0.8126140594482422
0.6167724609374999,0.8126140594482422
0.6084268569946288,0.8047422409057617
0.6042125701904296,0.8047422409057617
0.6149528503417968,0.8167573928833007
0.6111625671386719,0.8167573928833007
0.6041610717773437,0.8063060760498046
0.6133598327636719,0.8063060760498046
0.6159370422363281,0.8134952545166015
0.6076354980468750,0.8134952545166015
0.6077665328979492,0.8167493820190429
0.6166425704956054,0.8167493820190429
0.6098407745361328,0.8083454132080078
0.6059640884399414,0.8083454132080078
0.6158466339111328,0.8204698562622070
0.6120386123657227,0.8204698562622070
0.6063617706298828,0.8091379165649414
0.6174430847167969,0.8091379165649414
0.6176456451416016,0.8161239624023438
0.6068143844604492,0.8161239624023438
0.6086763381958008,0.8191257476806640
0.6175300598144531,0.8191257476806640
0.6099088668823242,0.8107727050781249
0.6060190200805664,0.8107727050781249
0.6174545288085938,0.8220897674560547
0.6154529571533203,0.8220897674560547
0.6071537017822265,0.8107463836669921
0.6160285949707031,0.8107463836669921
0.6176588058471679,0.8171350479125976
0.6072034835815430,0.8171350479125976
0.6082660675048828,0.8204549789428711
0.6171501159667968,0.8204549789428711
0.6110464096069336,0.8116733551025390
0.6092113494873047,0.8116733551025390
0.6182207107543946,0.8230430603027343
0.6137866973876953,0.8230430603027343
0.6072052001953124,0.8115182876586914
0.6163106918334961,0.8115182876586914
0.6170963287353516,0.8183538436889648
0.6064653396606445,0.8183538436889648
0.6093292236328125,0.8210815429687500
0.6201856613159179,0.8210815429687500
0.6113204956054688,0.8123153686523438
0.6074140548706054,0.8123153686523438
0.6179363250732421,0.8233200073242187
0.6138359069824219,0.8233200073242187
0.6066055297851562,0.8123319625854492
0.6157035827636719,0.8123319625854492
0.6180490493774414,0.8188917160034179
0.6095569610595702,0.8188917160034179
0.6098768234252929,0.8217000961303711
0.6182527542114258,0.8217000961303711
0.6111814498901367,0.8127920150756835
0.6073316574096680,0.8127920150756835
0.6172668457031250,0.8244329452514648
0.6132419586181640,0.8244329452514648
0.6074472427368164,0.8128326416015624
0.6187351226806640,0.8128326416015624
0.6184249877929687,0.8194925308227539
0.6077098846435547,0.8194925308227539
0.6095586776733398,0.8220771789550781
0.6184289932250976,0.8220771789550781
0.6106275558471680,0.8136697769165039
0.6067308425903321,0.8136697769165039
0.6183116912841796,0.8248958587646484
0.6162448883056640,0.8248958587646484
0.6081830978393554,0.8134197235107422
0.6168857574462890,0.8134197235107422
0.6184387207031250,0.8199268341064453
0.6079702377319336,0.8199268341064453
0.6088645935058593,0.8230871200561524
0.6177206039428711,0.8230871200561524
0.6117021560668945,0.8141012191772461
0.6098876953125000,0.8141012191772461
0.6186927795410156,0.8255819320678711
0.6143955230712891,0.8255819320678711
0.6078512191772460,0.8136228561401367
0.6170076370239258,0.8136228561401367
0.6177434921264648,0.8205631256103515
0.6071142196655274,0.8205631256103515
0.6098545074462890,0.8231208801269531
0.6206039428710938,0.8231208801269531
0.6118331909179687,0.8137670516967773
0.6074317932128906,0.8137670516967773
0.6180198669433593,0.8245714187622070
0.6135669708251953,0.8245714187622070
0.6061368942260742,0.8123399734497070
0.6149843215942382,0.8123399734497070
0.6172044754028320,0.8174520492553711
0.6082878112792969,0.8174520492553711
0.6080709457397461,0.8193426132202148
0.6165761947631836,0.8193426132202148
0.6092130661010742,0.8087528228759765
0.6049455642700196,0.8087528228759765
0.6146289825439453,0.8191440582275390
0.6102642059326172,0.8191440582275390
0.6042400360107422,0.8062643051147461
0.6152069091796875,0.8062643051147461
0.6149894714355468,0.8116327285766601
0.6038875579833984,0.8116327285766601
0.6151702880859374,0.8146167755126953
0.6151702880859374,0.8146167755126953
0.6026779174804687,0.8098159790039062
0.6026779174804687,0.8098159790039062
0.6142026901245117,0.8077972412109374
0.6142026901245117,0.8077972412109374
0.6117273330688476,0.8169507980346680
0.6117273330688476,0.8169507980346680
0.6055429458618163,0.8055095672607422
0.6055429458618163,0.8055095672607422
0.6165996551513672,0.8175533294677734
0.6165996551513672,0.8175533294677734
0.6062685012817383,0.8132320404052734
0.6062685012817383,0.8132320404052734
0.6140270233154297,0.8102783203125000
0.6140270233154297,0.8102783203125000
0.6133655548095703,0.8209836959838867
0.6133655548095703,0.8209836959838867
0.6070238113403320,0.8083974838256835
0.6070238113403320,0.8083974838256835
0.6198692321777344,0.8202117919921875
0.6198692321777344,0.8202117919921875
0.6055795669555664,0.8146648406982422
0.6055795669555664,0.8146648406982422
0.6149253845214844,0.8131713867187500
0.6149253845214844,0.8131713867187500
0.6141368865966796,0.8227930068969727
0.6141368865966796,0.8227930068969727
0.6097269058227539,0.8098920822143555
0.6097269058227539,0.8098920822143555
0.6185022354125976,0.8205505371093750
0.6185022354125976,0.8205505371093750
0.6059572219848632,0.8168804168701171
0.6059572219848632,0.8168804168701171
0.6153287887573242,0.8144617080688477
0.6153287887573242,0.8144617080688477
0.6165327072143555,0.8239276885986327
0.6165327072143555,0.8239276885986327
0.6080955505371094,0.8100872039794922
0.6080955505371094,0.8100872039794922
0.6189205169677734,0.8224708557128906
0.6189205169677734,0.8224708557128906
0.6063222885131836,0.8178279876708984
0.6063222885131836,0.8178279876708984
0.6176742553710938,0.8153251647949219
0.6176742553710938,0.8153251647949219
0.6149929046630859,0.8238727569580078
0.6149929046630859,0.8238727569580078
0.6084594726562500,0.8116722106933594
0.6084594726562500,0.8116722106933594
0.6193113327026367,0.8234773635864258
0.6193113327026367,0.8234773635864258
0.6087169647216797,0.8187652587890625
0.6087169647216797,0.8187652587890625
0.6161024093627929,0.8151260375976562
0.6161024093627929,0.8151260375976562
0.6153539657592774,0.8254474639892578
0.6153539657592774,0.8254474639892578
0.6087335586547852,0.8125242233276367
0.6087335586547852,0.8125242233276367
0.6216138839721680,0.8240901947021484
0.6216138839721680,0.8240901947021484
0.6071039199829101,0.8185626983642578
0.6071039199829101,0.8185626983642578
0.6164783477783203,0.8167659759521484
0.6164783477783203,0.8167659759521484
0.6156623840332031,0.8261690139770508
0.6156623840332031,0.8261690139770508
0.6110607147216797,0.8131639480590820
0.6110607147216797,0.8131639480590820
0.6198972702026367,0.8238298416137695
0.6198972702026367,0.8238298416137695
0.6073860168457031,0.8201826095581054
0.6073860168457031,0.8201826095581054
0.6167249679565430,0.8174697875976562
0.6167249679565430,0.8174697875976562
0.6180021286010742,0.8269563674926758
0.6180021286010742,0.8269563674926758
0.6094877243041992,0.8128503799438477
0.6094877243041992,0.8128503799438477
0.6202125549316406,0.8252019882202148
0.6202125549316406,0.8252019882202148
0.6074661254882813,0.8205253601074218
0.6074661254882813,0.8205253601074218
0.6187505722045898,0.8172843933105468
0.6187505722045898,0.8172843933105468
0.6156417846679687,0.8254228591918945
0.6156417846679687,0.8254228591918945
0.6086505889892578,0.8119691848754883
0.6086505889892578,0.8119691848754883
0.6189599990844726,0.8223918914794922
0.6189599990844726,0.8223918914794922
0.6075582504272461,0.8164369583129882
0.6075582504272461,0.8164369583129882
0.6143497467041016,0.8108831405639648
0.6143497467041016,0.8108831405639648
0.6126914978027344,0.8191635131835937
0.6126914978027344,0.8191635131835937
0.6050977706909180,0.8038770675659179
0.6050977706909180,0.8038770675659179
0.6171386718749999,0.8137687683105469
0.6171386718749999,0.8137687683105469
0.6021360397338867,0.8072513580322266
0.6021360397338867,0.8072513580322266
0.6114852905273437,0.8048486709594727
0.6114852905273437,0.8048486709594727
0.6105720520019531,0.8143701553344727
0.6105720520019531,0.8143701553344727
0.6061780929565429,0.8015230178833007
0.6061780929565429,0.8015230178833007
0.6153928756713867,0.8131462097167969
0.6153928756713867,0.8131462097167969
0.6032575607299805,0.8104591369628906
0.6032575607299805,0.8104591369628906
0.6130754470825195,0.8085170745849609
0.6130754470825195,0.8085170745849609
0.6147634506225585,0.8188825607299804
0.6147634506225585,0.8188825607299804
0.6066289901733398,0.8056102752685547
0.6066289901733398,0.8056102752685547
0.6178012847900390,0.8187246322631836
0.6178012847900390,0.8187246322631836
0.6054325103759766,0.8148399353027344
0.6054325103759766,0.8148399353027344
0.6170373916625976,0.8123342514038085
0.6170373916625976,0.8123342514038085
0.6147188186645508,0.8213407516479492
0.6147188186645508,0.8213407516479492
0.6080955505371094,0.8093696594238281
0.6080955505371094,0.8093696594238281
0.6189422607421875,0.8212377548217773
0.6189422607421875,0.8212377548217773
0.6084634780883789,0.8171545028686523
0.6084634780883789,0.8171545028686523
0.6161167144775390,0.8133333206176757
0.6161167144775390,0.8133333206176757
0.6155462265014648,0.8238824844360352
0.6155462265014648,0.8238824844360352
0.6089006423950195,0.8110221862792969
0.6089006423950195,0.8110221862792969
0.6215978622436523,0.8226345062255859
0.6215978622436523,0.8226345062255859
0.6071210861206054,0.8175682067871094
0.6071210861206054,0.8175682067871094
0.6167633056640625,0.8154424667358399
0.6167633056640625,0.8154424667358399
0.6158609390258789,0.8251968383789062
0.6158609390258789,0.8251968383789062
0.6111934661865234,0.8118947982788086
0.6111934661865234,0.8118947982788086
0.6200700759887695,0.8227615356445312
0.6200700759887695,0.8227615356445312
0.6074981689453125,0.8193792343139649
0.6074981689453125,0.8193792343139649
0.6169309616088867,0.8162126541137695
0.6169309616088867,0.8162126541137695
0.6181623458862304,0.8259670257568359
0.6181623458862304,0.8259670257568359
0.6095048904418945,0.8117259979248047
0.6128837585449218,0.8117259979248047
0.6202772140502929,0.8242704391479492
0.6076137542724609,0.8201843261718750
0.6191345214843750,0.8169399261474609
0.6191345214843750,0.8169399261474609
0.6165327072143555,0.8258182525634765
0.6165327072143555,0.8258182525634765
0.6097103118896484,0.8132360458374023
0.6097103118896484,0.8132360458374023
0.6206096649169922,0.8250177383422851
0.6206096649169922,0.8250177383422851
0.6098121643066406,0.8208950042724609
0.6098121643066406,0.8208950042724609
0.6174373626708984,0.8167917251586914
0.6174373626708984,0.8167917251586914
0.6168800354003906,0.8273494720458984
0.6168800354003906,0.8273494720458984
0.6099426269531250,0.8140600204467773
0.6099426269531250,0.8140600204467773
0.6230077743530273,0.8259675979614257
0.6120603561401367,0.8259675979614257
0.6084011077880859,0.8208469390869141
0.6084011077880859,0.8208469390869141
0.6179855346679687,0.8183080673217773
0.6179855346679687,0.8183080673217773
0.6171369552612305,0.8278341293334961
0.6171369552612305,0.8278341293334961
0.6119087219238281,0.8139535903930664
0.6119087219238281,0.8139535903930664
0.6208379745483398,0.8245445251464844
0.6208379745483398,0.8245445251464844
0.6076286315917968,0.8202220916748046
0.6076286315917968,0.8202220916748046
0.6166809082031249,0.8158842086791992
0.6166809082031249,0.8158842086791992
0.6174104690551757,0.8242521286010742
0.6174104690551757,0.8242521286010742
0.6079444885253906,0.8084587097167969
0.6079444885253906,0.8084587097167969
0.6180421829223632,0.8189523696899413
0.6180421829223632,0.8189523696899413
0.6043928146362304,0.8127347946166992
0.6043928146362304,0.8127347946166992
0.6150575637817383,0.8075408935546875
0.6150575637817383,0.8075408935546875
0.6120386123657227,0.8151741027832031
0.6120386123657227,0.8151741027832031
0.6048557281494140,0.8019029617309570
0.6048557281494140,0.8019029617309570
0.6157150268554688,0.8133750915527344
0.6157150268554688,0.8133750915527344
0.6050090789794922,0.8097232818603516
0.6050090789794922,0.8097232818603516
0.6129667282104492,0.8061544418334960
0.6129667282104492,0.8061544418334960
0.6129192352294922,0.8176437377929687
0.6129192352294922,0.8176437377929687
0.6065317153930664,0.8053482055664062
0.6065317153930664,0.8053482055664062
0.6198760986328125,0.8180517196655274
0.6198760986328125,0.8180517196655274
0.6058187484741211,0.8141527175903320
0.6058187484741211,0.8141527175903320
0.6156354904174804,0.8119955062866211
0.6156354904174804,0.8119955062866211
0.6153596878051758,0.8223924636840820
0.6153596878051758,0.8223924636840820
0.6107557296752929,0.8096082687377929
0.6107557296752929,0.8096082687377929
0.6203556060791016,0.8209922790527343
0.6203556060791016,0.8209922790527343
0.6079719543457031,0.8184682846069335
0.6079719543457031,0.8184682846069335
0.6177984237670898,0.8153858184814453
0.6177984237670898,0.8153858184814453
0.6194257736206055,0.8254285812377929
0.6194257736206055,0.8254285812377929
0.6109342575073242,0.8115554809570312
0.6109342575073242,0.8115554809570312
0.6218730926513671,0.8241514205932617
0.6218730926513671,0.8241514205932617
0.6093040466308594,0.8205905914306640
0.6093040466308594,0.8205905914306640
0.6208036422729492,0.8171350479125976
0.6208036422729492,0.8171350479125976
0.6185634613037109,0.8261781692504883
0.6185634613037109,0.8261781692504883
0.6116220474243164,0.8136583328247070
0.6116220474243164,0.8136583328247070
0.6226890563964843,0.8254022598266602
0.6226890563964843,0.8254022598266602
0.6118875503540039,0.8217235565185547
0.6118875503540039,0.8217235565185547
0.6195127487182617,0.8172821044921875
0.6195127487182617,0.8172821044921875
0.6189943313598633,0.8278141021728516
0.6189943313598633,0.8278141021728516
0.6120712280273437,0.8146121978759765
0.6120712280273437,0.8146121978759765
0.6249183654785156,0.8261655807495117
0.6249183654785156,0.8261655807495117
0.6103803634643554,0.8215272903442382
0.6231256484985351,0.8215272903442382
0.6198617935180664,0.8188001632690429
0.6198617935180664,0.8188001632690429
0.6193931579589843,0.8285184860229492
0.6193931579589843,0.8285184860229492
0.6143697738647461,0.8152719497680664
0.6143697738647461,0.8152719497680664
0.6235027313232422,0.8259693145751953
0.6235027313232422,0.8259693145751953
0.6106658935546875,0.8229967117309570
0.6106658935546875,0.8229967117309570
0.6201278686523437,0.8194015502929687
0.6201278686523437,0.8194015502929687
0.6216459274291992,0.8291084289550781
0.6216459274291992,0.8291084289550781
0.6128316879272461,0.8150053024291992
0.6128316879272461,0.8150053024291992
0.6237081527709961,0.8273517608642578
0.6237081527709961,0.8273517608642578
0.6110412597656250,0.8236970901489258
0.6110412597656250,0.8236970901489258
0.6224275588989258,0.8199892044067383
0.6224275588989258,0.8199892044067383
0.6201341629028320,0.8288085937499999
0.6201341629028320,0.8288085937499999
0.6132081985473633,0.8163745880126952
0.6132081985473633,0.8163745880126952
0.6241991043090820,0.8279113769531250
0.6241991043090820,0.8279113769531250
0.6133581161499023,0.8241039276123047
0.6133581161499023,0.8241039276123047
0.6208322525024413,0.8191921234130859
0.6208322525024413,0.8191921234130859
0.6202423095703125,0.8291095733642578
0.6202423095703125,0.8291095733642578
0.6145471572875977,0.8266811370849609
0.6145471572875977,0.8266811370849609
0.6115940093994140,0.8163419723510742
0.6103900909423828,0.8163419723510742
0.6222301483154297,0.8264602661132813
0.6176719665527344,0.8264602661132813
0.6101732254028320,0.8149372100830078
0.6194835662841797,0.8149372100830078
0.6219148635864258,0.8187166213989258
0.6126359939575196,0.8187166213989258
0.6132356643676757,0.8224536895751953
0.6212402343750000,0.8224536895751953
0.6139045715332031,0.8121025085449218
0.6104124069213867,0.8121025085449218
0.6202360153198242,0.8233291625976562
0.6160423278808593,0.8233291625976562
0.6105697631835937,0.8122976303100585
0.6220739364624023,0.8122976303100585
0.6222164154052734,0.8171642303466796
0.6109130859374999,0.8171642303466796
0.6133987426757812,0.8216251373291016
0.6216316223144531,0.8216251373291016
0.6137655258178710,0.8125511169433594
0.6103466033935546,0.8125511169433594
0.6221603393554688,0.8235008239746093
0.6198394775390624,0.8235008239746093
0.6117885589599609,0.8127840042114257
0.6212923049926757,0.8127840042114257
0.6228750228881835,0.8170480728149414
0.6118743896484374,0.8170480728149414
0.6134536743164062,0.8217664718627929
0.6216728210449218,0.8217664718627929
0.6154083251953125,0.8119291305541992
0.6137969970703124,0.8119291305541992
0.6230403900146484,0.8226448059082031
0.6183053970336914,0.8226448059082031
0.6118703842163086,0.8112178802490234
0.6212396621704102,0.8112178802490234
0.6216230392456055,0.8156450271606445
0.6106430053710937,0.8156450271606445
0.6138759613037109,0.8194324493408203
0.6237287521362305,0.8194324493408203
0.6147251129150391,0.8096162796020507
0.6110767364501953,0.8096162796020507
0.6216424942016602,0.8196504592895507
0.6171318054199219,0.8196504592895507
0.6096582412719727,0.8085588455200196
0.6189073562622071,0.8085588455200196
0.6212871551513671,0.8121900558471680
0.6120992660522461,0.8121900558471680
0.6129793167114258,0.8158212661743164
0.6204328536987305,0.8158212661743164
0.6131790161132812,0.8056291580200196
0.6094568252563476,0.8056291580200196
0.6191946029663086,0.8158916473388672
0.6146753311157226,0.8158916473388672
0.6092050552368163,0.8038684844970703
0.6203332901000976,0.8038684844970703
0.6197319030761719,0.8072032928466797
0.6085115432739258,0.8072032928466797
0.6106447219848633,0.8105066299438476
0.6185073852539062,0.8105066299438476
0.6100954055786133,0.8007013320922851
0.6064373016357422,0.8007013320922851
0.6179019927978515,0.8106319427490234
0.6151834487915039,0.8106319427490234
0.6071262359619141,0.7991283416748046
0.6159702301025390,0.7991283416748046
0.6171987533569335,0.8027303695678710
0.6060115814208984,0.8027303695678710
0.6072395324707031,0.8067209243774414
0.6151130676269531,0.8067209243774414
0.6089006423950195,0.7965196609497071
0.6071016311645507,0.7965196609497071
0.6159593582153320,0.8070493698120117
0.6112873077392578,0.8070493698120117
0.6048088073730469,0.7957500457763672
0.6142255783081054,0.7957500457763672
0.6145122528076171,0.8001434326171875
0.6035207748413086,0.8001434326171875
0.6067651748657227,0.8042793273925781
0.6166877746582031,0.8042793273925781
0.6080486297607421,0.7945398330688477
0.6040872573852539,0.7945398330688477
0.6147863388061523,0.8052268981933594
0.6102493286132812,0.8052268981933594
0.6027614593505859,0.7947807312011719
0.6123596191406250,0.7947807312011719
0.6146484375000000,0.7989046096801757
0.6057895660400391,0.7989046096801757
0.6062902450561524,0.8034868240356445
0.6141981124877930,0.8034868240356445
0.6070203781127930,0.7937971115112304
0.6035591125488281,0.7937971115112304
0.6132814407348632,0.8053607940673828
0.6087490081787109,0.8053607940673828
0.6034492492675781,0.7947801589965821
0.6149631500244140,0.7947801589965821
0.6149047851562500,0.7990922927856445
0.6034412384033203,0.7990922927856445
0.6058668136596680,0.8037437438964844
0.6138319015502930,0.8037437438964844
0.6055440902709961,0.7943841934204101
0.6020759582519531,0.7943841934204101
0.6138507843017578,0.8053047180175781
0.6111230850219727,0.8053047180175781
0.6028249740600585,0.7950119018554688
0.6122732162475586,0.7950119018554688
0.6135486602783203,0.7986997604370117
0.6025360107421874,0.7986997604370117
0.6038595199584961,0.8034513473510742
0.6116174697875977,0.8034513473510742
0.6052963256835937,0.7935012817382813
0.6036249160766601,0.7935012817382813
0.6128065109252929,0.8043165206909180
0.6077499389648438,0.8043165206909180
0.6012639999389648,0.7936265945434570
0.6109193801879883,0.7936265945434570
0.6111865997314453,0.7980726242065429
0.6001499176025390,0.7980726242065429
0.6036661148071288,0.8029123306274414
0.6136104583740234,0.8029123306274414
0.6045879364013672,0.7935808181762695
0.6011827468872070,0.7935808181762695
0.6120328903198242,0.8046901702880859
0.6075382232666016,0.8046901702880859
0.6002174377441406,0.7949106216430664
0.6099929809570312,0.7949106216430664
0.6125020980834961,0.7994676589965820
0.6035688400268554,0.7994676589965820
0.6046806335449219,0.8048097610473632
0.6123052597045898,0.8048097610473632
0.6050966262817382,0.7957918167114257
0.6019689559936523,0.7957918167114257
0.6118469238281250,0.8074625015258788
0.6074020385742187,0.8074625015258788
0.6021451950073242,0.7975313186645507
0.6139955520629883,0.7975313186645507
0.6136791229248046,0.8020523071289062
0.6027437210083008,0.8020523071289062
0.6052648544311523,0.8071392059326171
0.6132957458496093,0.8071392059326171
0.6052042007446289,0.7985126495361328
0.6020261764526367,0.7985126495361328
0.6139062881469727,0.8096054077148437
0.6113101959228515,0.8096054077148437
0.6036283493041992,0.7996084213256835
0.6130416870117187,0.7996084213256835
0.6144138336181640,0.8040378570556640
0.6035242080688477,0.8040378570556640
0.6050954818725586,0.8093610763549804
0.6131309509277344,0.8093610763549804
0.6070564270019531,0.8000032424926757
0.6056453704833984,0.8000032424926757
0.6148773193359375,0.8112384796142578
0.6102527618408203,0.8112384796142578
0.6038326263427735,0.8006807327270508
0.6137472152709961,0.8006807327270508
0.6140613555908203,0.8055999755859374
0.6031997680664062,0.8055999755859374
0.6067880630493164,0.8106147766113281
0.6166677474975586,0.8106147766113281
0.6081338882446289,0.8012077331542968
0.6044620513916016,0.8012077331542968
0.6153665542602539,0.8122884750366210
0.6108009338378906,0.8122884750366210
0.6033308029174804,0.8023790359497071
0.6132631301879883,0.8023790359497071
0.6158208847045898,0.8064994812011719
0.6068435668945312,0.8064994812011719
0.6075845718383789,0.8116630554199219
0.6154895782470703,0.8116630554199219
0.6082746505737304,0.8019161224365234
0.6050880432128906,0.8019161224365234
0.6150381088256835,0.8136028289794922
0.6105199813842773,0.8136028289794922
0.6052087783813477,0.8033386230468750
0.6171163558959961,0.8033386230468750
0.6170476913452149,0.8075574874877930
0.6056482315063476,0.8075574874877930
0.6083421707153320,0.8128074645996094
0.6164165496826172,0.8128074645996094
0.6081470489501953,0.8034776687622071
0.6048660278320312,0.8034776687622071
0.6169979095458984,0.8145578384399413
0.6144344329833984,0.8145578384399413
0.6061843872070313,0.8043811798095702
0.6160394668579101,0.8043811798095702
0.6174699783325195,0.8081228256225585
0.6065500259399413,0.8081228256225585
0.6080772399902343,0.8137229919433594
0.6161378860473633,0.8137229919433594
0.6098756790161133,0.8041122436523437
0.6085693359375000,0.8041122436523437
0.6181692123413086,0.8152896881103515
0.6130794525146485,0.8152896881103515
0.6065734863281250,0.8048229217529297
0.6165870666503906,0.8048229217529297
0.6168697357177734,0.8091430664062500
0.6059600830078125,0.8091430664062500
0.6095621109008789,0.8142665863037110
0.6196460723876953,0.8142665863037110
0.6104421615600586,0.8046220779418946
0.6070386886596679,0.8046220779418946
0.6181760787963867,0.8154321670532226
0.6134222030639648,0.8154321670532226
0.6057661056518554,0.8052932739257812
0.6158660888671875,0.8052932739257812
0.6181966781616210,0.8089588165283202
0.6089973449707031,0.8089588165283202
0.6099821090698242,0.8137344360351563
0.6175632476806641,0.8137344360351563
0.6099826812744140,0.8034982681274414
0.6064327239990234,0.8034982681274414
0.6162317276000976,0.8140480041503906
0.6112340927124024,0.8140480041503906
0.6056797027587890,0.8026399612426758
0.6173343658447266,0.8026399612426758
0.6167003631591796,0.8054792404174804
0.6053838729858398,0.8054792404174804
0.6078437805175781,0.8096334457397460
0.6156538009643554,0.8096334457397460
0.6070621490478515,0.7995969772338867
0.6036769866943359,0.7995969772338867
0.6156600952148438,0.8102308273315429
0.6127115249633789,0.8102308273315429
0.6046663284301758,0.7993297576904297
0.6143194198608398,0.7993297576904297
0.6154924392700195,0.8031274795532226
0.6045249938964844,0.8031274795532226
0.6061065673828124,0.8082830429077148
0.6140802383422851,0.8082830429077148
0.6077751159667969,0.7986780166625976
0.6064081192016602,0.7986780166625976
0.6157716751098633,0.8099887847900390
0.6109794616699219,0.8099887847900390
0.6044179916381835,0.7994384765625000
0.6145448684692383,0.7994384765625000
0.6149288177490234,0.8039274215698242
0.6038944244384765,0.8039274215698242
0.6076984405517578,0.8094068527221679
0.6177463531494141,0.8094068527221679
0.6089321136474609,0.7998991012573242
0.6053083419799804,0.7998991012573242
0.6164022445678711,0.8113220214843749
0.6116289138793946,0.8113220214843749
0.6042085647583008,0.8013187408447265
0.6143423080444336,0.8013187408447265
0.6167415618896485,0.8052371978759766
0.6076738357543945,0.8052371978759766
0.6084886550903320,0.8106325149536132
0.6164852142333984,0.8106325149536132
0.6090236663818359,0.8007425308227539
0.6058198928833007,0.8007425308227539
0.6158866882324219,0.8126575469970703
0.6111185073852539,0.8126575469970703
0.6056241989135742,0.8022314071655273
0.6177955627441406,0.8022314071655273
0.6175592422485351,0.8061676025390625
0.6059566497802734,0.8061676025390625
0.6087209701538085,0.8115228652954102
0.6167638778686523,0.8115228652954102
0.6082483291625976,0.8020322799682617
0.6049203872680664,0.8020322799682617
0.6171810150146484,0.8131765365600586
0.6142227172851562,0.8131765365600586
0.6057746887207031,0.8029706954956054
0.6159193038940429,0.8029706954956054
0.6172342300415039,0.8065675735473633
0.6062244415283203,0.8065675735473633
0.6077945709228515,0.8123771667480468
0.6158191680908203,0.8123771667480468
0.6094648361206054,0.8025438308715820
0.6080732345581055,0.8025438308715820
0.6177909851074218,0.8137624740600585
0.6125221252441406,0.8137624740600585
0.6059148788452148,0.8035268783569336
0.6160326004028320,0.8035268783569336
0.6161893844604492,0.8076576232910156
0.6051681518554687,0.8076576232910156
0.6090076446533202,0.8128675460815430
0.6189697265624999,0.8128675460815430
0.6096948623657227,0.8031909942626952
0.6063297271728515,0.8031909942626952
0.6173847198486327,0.8140674591064453
0.6125530242919922,0.8140674591064453
0.6048774719238281,0.8042913436889648
0.6150804519653320,0.8042913436889648
0.6174865722656250,0.8080141067504882
0.6083112716674804,0.8080141067504882
0.6095827102661132,0.8134597778320313
0.6171678543090821,0.8134597778320313
0.6096673965454101,0.8036962509155273
0.6064390182495117,0.8036962509155273
0.6165807723999023,0.8150648117065430
0.6117073059082031,0.8150648117065430
0.6061969757080078,0.8048538208007813
0.6185302734375000,0.8048538208007813
0.6178533554077148,0.8086521148681640
0.6067594528198242,0.8086521148681640
0.6095111846923827,0.8136520385742188
0.6175609588623047,0.8136520385742188
0.6089395523071289,0.8043388366699219
0.6057403564453124,0.8043388366699219
0.6181062698364258,0.8153337478637696
0.6149763107299805,0.8153337478637696
0.6068412780761718,0.8052560806274414
0.6168016433715821,0.8052560806274414
0.6180250167846679,0.8089061737060547
0.6069597244262696,0.8089061737060547
0.6086185455322265,0.8144559860229492
0.6167284011840820,0.8144559860229492
0.6101749420166015,0.8044258117675781
0.6088914871215820,0.8044258117675781
0.6182081222534179,0.8154436111450195
0.6131841659545898,0.8154436111450195
0.6065546035766601,0.8047393798828125
0.6167947769165039,0.8047393798828125
0.6166362762451172,0.8085302352905274
0.6055257797241210,0.8085302352905274
0.6092479705810546,0.8133533477783202
0.6189285278320312,0.8133533477783202
0.6098356246948242,0.8028087615966797
0.6061254501342773,0.8028087615966797
0.6168788909912110,0.8129390716552735
0.6116849899291992,0.8129390716552735
0.6038097381591797,0.8021535873413086
0.6141454696655273,0.8021535873413086
0.6162036895751953,0.8049236297607422
0.6069156646728515,0.8049236297607422
0.6078042984008789,0.8100242614746094
0.6154495239257812,0.8100242614746094
0.6078037261962891,0.7992324829101562
0.6046165466308594,0.7992324829101562
0.6146381378173827,0.8106531143188477
0.6096359252929687,0.8106531143188477
0.6042182922363281,0.8002092361450195
0.6164600372314453,0.8002092361450195
0.6160583496093750,0.8037368774414062
0.6045301437377929,0.8037368774414062
0.6072950363159180,0.8092546463012695
0.6151725769042968,0.8092546463012695
0.6065689086914062,0.7996232986450195
0.6034921646118164,0.7996232986450195
0.6157819747924804,0.8107887268066406
0.6128202438354492,0.8107887268066406
0.6045896530151367,0.8007917404174805
0.6149065017700195,0.8007917404174805
0.6159914016723632,0.8043766021728516
0.6050588607788085,0.8043766021728516
0.6068813323974609,0.8107423782348633
0.6148670196533202,0.8107423782348633
0.6084480285644531,0.8009256362915039
0.6073202133178711,0.8009256362915039
0.6170534133911133,0.8122198104858398
0.6117118835449219,0.8122198104858398
0.6050359725952148,0.8022972106933594
0.6154912948608399,0.8022972106933594
0.6156011581420898,0.8062099456787110
0.6045049667358399,0.8062099456787110
0.6084239959716796,0.8118490219116211
0.6182682037353515,0.8118490219116211
0.6089326858520507,0.8019590377807617
0.6057661056518554,0.8019590377807617
0.6168731689453125,0.8128526687622070
0.6119218826293945,0.8128526687622070
0.6041381835937499,0.8032962799072265
0.6146249771118164,0.8032962799072265
0.6168113708496094,0.8067358016967773
0.6076583862304688,0.8067358016967773
0.6091140747070313,0.8124950408935546
0.6165710449218750,0.8124950408935546
0.6088542938232422,0.8025838851928710
0.6058519363403320,0.8025838851928710
0.6158941268920898,0.8139547348022461
0.6108232498168945,0.8139547348022461
0.6053833007812500,0.8038667678833008
0.6177297592163086,0.8038667678833008
0.6170408248901367,0.8074333190917968
0.6058547973632812,0.8074333190917968
0.6087141036987305,0.8130186080932617
0.6165618896484375,0.8130186080932617
0.6077957153320312,0.8033729553222656
0.6048030853271484,0.8033729553222656
0.6171129226684570,0.8145195007324219
0.6138977050781250,0.8145195007324219
0.6059091567993163,0.8046049118041992
0.6160068511962891,0.8046049118041992
0.6169876098632813,0.8080787658691406
0.6058748245239257,0.8080787658691406
0.6076166152954101,0.8140731811523437
0.6154684066772461,0.8140731811523437
0.6089927673339843,0.8038650512695312
0.6079702377319336,0.8038650512695312
0.6171953201293945,0.8150568008422852
0.6121112823486328,0.8150568008422852
0.6054439544677734,0.8048658370971680
0.6159570693969726,0.8048658370971680
0.6158151626586914,0.8087797164916992
0.6047641754150390,0.8087797164916992
0.6087993621826172,0.8144771575927734
0.6185102462768555,0.8144771575927734
0.6094047546386718,0.8045179367065429
0.6059085845947265,0.8045179367065429
0.6171386718749999,0.8156885147094727
0.6119619369506836,0.8156885147094727
0.6042308807373047,0.8058488845825195
0.6147909164428711,0.8058488845825195
0.6167982101440429,0.8091665267944336
0.6077716827392577,0.8091665267944336
0.6088645935058593,0.8150871276855468
0.6165018081665039,0.8150871276855468
0.6087690353393554,0.8046895980834960
0.6057523727416992,0.8046895980834960
0.6157779693603516,0.8162921905517578
0.6106801986694336,0.8162921905517578
0.6051973342895508,0.8063175201416015
0.6177377700805664,0.8063175201416015
0.6171077728271485,0.8097421646118164
0.6055400848388671,0.8097421646118164
0.6084365844726562,0.8155385971069335
0.6162689208984374,0.8155385971069335
0.6073682785034179,0.8055416107177734
0.6043430328369140,0.8055416107177734
0.6166379928588867,0.8163391113281250
0.6133312225341797,0.8163391113281250
0.6048185348510742,0.8062391281127930
0.6154186248779296,0.8062391281127930
0.6159502029418945,0.8089193344116211
0.6048265457153320,0.8089193344116211
0.6065357208251952,0.8148233413696289
0.6142267227172852,0.8148233413696289
0.6074289321899414,0.8038335800170898
0.6062707901000977,0.8038335800170898
0.6157247543334960,0.8141607284545899
0.6099952697753906,0.8141607284545899
0.6032752990722656,0.8035337448120117
0.6138021469116210,0.8035337448120117
0.6133403778076172,0.8064800262451172
0.6021760940551758,0.8064800262451172
0.6063297271728515,0.8118638992309570
0.6158718109130860,0.8118638992309570
0.6063228607177734,0.8014160156250000
0.6032867431640625,0.8014160156250000
0.6144189834594727,0.8121797561645507
0.6093212127685547,0.8121797561645507
0.6013509750366210,0.8026571273803711
0.6121765136718750,0.8026571273803711
0.6142999649047851,0.8059530258178711
0.6051687240600586,0.8059530258178711
0.6068492889404297,0.8121030807495117
0.6141700744628906,0.8121030807495117
0.6066364288330078,0.8021427154541015
0.6038166046142578,0.8021427154541015
0.6138605117797852,0.8136360168457031
0.6087965011596680,0.8136360168457031
0.6033388137817383,0.8041597366333008
0.6160921096801758,0.8041597366333008
0.6152446746826171,0.8075929641723633
0.6042091369628906,0.8075929641723633
0.6072875976562500,0.8135805130004883
0.6150323867797851,0.8135805130004883
0.6063537597656250,0.8040578842163085
0.6035528182983398,0.8040578842163085
0.6160074234008789,0.8152496337890625
0.6127487182617187,0.8152496337890625
0.6046039581298828,0.8056766510009765
0.6150552749633789,0.8056766510009765
0.6157613754272461,0.8090023040771485
0.6047584533691406,0.8090023040771485
0.6067068099975585,0.8152467727661132
0.6144653320312500,0.8152467727661132
0.6080091476440429,0.8050506591796874
0.6071611404418945,0.8050506591796874
0.6165693283081054,0.8162590026855469
0.6112380981445312,0.8162590026855469
0.6045467376708984,0.8063140869140625
0.6154157638549804,0.8063140869140625
0.6148956298828124,0.8100563049316406
0.6039802551269531,0.8100563049316406
0.6083536148071289,0.8159471511840820
0.6179140090942382,0.8159471511840820
0.6087404251098633,0.8058071136474609
0.6055292129516602,0.8058071136474609
0.6166917800903320,0.8168930053710938
0.6114727020263672,0.8168930053710938
0.6036375045776367,0.8074481964111327
0.6144968032836914,0.8074481964111327
0.6163473129272461,0.8106107711791992
0.6073579788208008,0.8106107711791992
0.6085899353027343,0.8165794372558594
0.6162122726440430,0.8165794372558594
0.6084543228149414,0.8061412811279297
0.6056985855102539,0.8061412811279297
0.6156887054443360,0.8176105499267577
0.6104467391967773,0.8176105499267577
0.6050148010253906,0.8079013824462891
0.6178287506103516,0.8079013824462891
0.6172039031982421,0.8111783981323242
0.6057083129882812,0.8111783981323242
0.6087238311767578,0.8172054290771484
0.6164783477783203,0.8172054290771484
0.6074890136718750,0.8071146011352539
0.6047796249389649,0.8071146011352539
0.6172273635864257,0.8181833267211914
0.6137552261352539,0.8181833267211914
0.6053878784179687,0.8085697174072265
0.6161584854125977,0.8085697174072265
0.6168537139892578,0.8114061355590820
0.6058954238891602,0.8114061355590820
0.6078392028808594,0.8178731918334960
0.6155479431152343,0.8178731918334960
0.6090093612670898,0.8076490402221680
0.6081842422485352,0.8076490402221680
0.6179569244384765,0.8186113357543945
0.6120809555053711,0.8186113357543945
0.6054685592651367,0.8089588165283202
0.6164131164550781,0.8089588165283202
0.6159124374389648,0.8123680114746094
0.6048614501953125,0.8123680114746094
0.6092382431030273,0.8183103561401367
0.6188501358032227,0.8183103561401367
0.6093257904052735,0.8082790374755859
0.6065969467163086,0.8082790374755859
0.6176719665527344,0.8189924240112304
0.6123521804809570,0.8189924240112304
0.6043882369995117,0.8096632003784180
0.6154300689697265,0.8096632003784180
0.6172353744506835,0.8127925872802734
0.6082798004150390,0.8127925872802734
0.6099042892456055,0.8188407897949218
0.6171157836914062,0.8188407897949218
0.6092079162597656,0.8084066390991210
0.6064882278442383,0.8084066390991210
0.6164073944091797,0.8193506240844727
0.6110080718994141,0.8193506240844727
0.6054983139038086,0.8093416213989257
0.6181446075439453,0.8093416213989257
0.6169950485229492,0.8120252609252929
0.6057632446289062,0.8120252609252929
0.6086986541748046,0.8170326232910156
0.6160949707031250,0.8170326232910156
0.6070301055908203,0.8064451217651367
0.6042188644409180,0.8064451217651367
0.6163507461547851,0.8165193557739258
0.6127075195312500,0.8165193557739258
0.6045541763305664,0.8062986373901367
0.6149202346801758,0.8062986373901367
0.6154495239257812,0.8087848663330078
0.6043350219726562,0.8087848663330078
0.6062118530273437,0.8146768569946289
0.6137500762939453,0.8146768569946289
0.6072189331054687,0.8039932250976562
0.6064098358154296,0.8039932250976562
0.6157945632934571,0.8149017333984375
0.6102716445922851,0.8149017333984375
0.6036283493041992,0.8051124572753906
0.6147325515747070,0.8051124572753906
0.6141551971435547,0.8086761474609375
0.6032157897949219,0.8086761474609375
0.6077030181884765,0.8147941589355469
0.6171913146972656,0.8147941589355469
0.6080846786499023,0.8046804428100586
0.6051412582397461,0.8046804428100586
0.6163536071777344,0.8159334182739257
0.6110635757446289,0.8159334182739257
0.6031196594238281,0.8068284988403320
0.6143417358398438,0.8068284988403320
0.6162528991699219,0.8100580215454102
0.6072532653808593,0.8100580215454102
0.6087936401367188,0.8163751602172852
0.6162380218505860,0.8163751602172852
0.6085538864135742,0.8061653137207031
0.6060041427612305,0.8061653137207031
0.6159708023071289,0.8176717758178711
0.6106349945068359,0.8176717758178711
0.6052534103393554,0.8082973480224609
0.6182424545288085,0.8082973480224609
