REDsignal,IRsignal
0.4753561019897461,0.4097946166992187
0.4729305267333984,0.3922342300415039
0.4729305267333984,0.3922342300415039
0.4871160507202148,0.4134756088256836
0.4871160507202148,0.4134756088256836
0.4673658370971679,0.3984558105468750
0.4673658370971679,0.3984558105468750
0.4859104156494141,0.4031936645507813
0.4859104156494141,0.4031936645507813
0.4768180847167969,0.4121212005615234
0.4768180847167969,0.4121212005615234
0.4745195388793945,0.3946821212768555
0.4745195388793945,0.3946821212768555
0.4884567260742188,0.4159658432006836
0.4884567260742188,0.4159658432006836
0.4686292648315429,0.4004590988159180
0.4686292648315429,0.4004590988159180
0.4868968963623047,0.4047151565551758
0.4868968963623047,0.4047151565551758
0.4771505355834961,0.4127214431762695
0.4771505355834961,0.4127214431762695
0.4739976882934570,0.3935176849365234
0.4739976882934570,0.3935176849365234
0.4862480163574219,0.4120834350585937
0.4862480163574219,0.4120834350585937
0.4647331237792969,0.3934547424316406
0.4647331237792969,0.3934547424316406
0.4810844421386719,0.3950632095336914
0.4810844421386719,0.3950632095336914
0.4695116043090820,0.4001443862915039
0.4695116043090820,0.4001443862915039
0.4653013229370117,0.3792955398559570
0.4653013229370117,0.3792955398559570
0.4770492553710937,0.3975671768188476
0.4770492553710937,0.3975671768188476
0.4559389114379883,0.3798168182373047
0.4559389114379883,0.3798168182373047
0.4733436584472656,0.3831750869750977
0.4733436584472656,0.3831750869750977
0.4632659912109375,0.3905668258666992
0.4632659912109375,0.3905668258666992
0.4607837677001953,0.3723558425903320
0.4607837677001953,0.3723558425903320
0.4739536285400390,0.3928442001342773
0.4739536285400390,0.3928442001342773
0.4539196014404296,0.3766256332397461
0.4539196014404296,0.3766256332397461
0.4724950790405273,0.3815734863281250
0.4724950790405273,0.3815734863281250
0.4627447128295898,0.3896987915039062
0.4627447128295898,0.3896987915039062
0.4609222412109375,0.3724891662597656
0.4609222412109375,0.3724891662597656
0.4744268417358398,0.3934547424316406
0.4744268417358398,0.3934547424316406
0.4547584533691406,0.3776441574096679
0.4547584533691406,0.3776441574096679
0.4734889984130859,0.3830806732177734
0.4734889984130859,0.3830806732177734
0.4639057159423828,0.3914480209350586
0.4639057159423828,0.3914480209350586
0.4624259948730469,0.3746469497680664
0.4624259948730469,0.3746469497680664
0.4761497497558593,0.3959095001220703
0.4761497497558593,0.3959095001220703
0.4565465927124023,0.3803031921386719
0.4565465927124023,0.3803031921386719
0.4754653930664062,0.3859045028686524
0.4754653930664062,0.3859045028686524
0.4656503677368164,0.3942867279052734
0.4656503677368164,0.3942867279052734
0.4641712188720703,0.3774501800537109
0.4641712188720703,0.3774501800537109
0.4775979995727539,0.3983133316040039
0.4775979995727539,0.3983133316040039
0.4577997207641601,0.3822292327880859
0.4577997207641601,0.3822292327880859
0.4764970779418945,0.3876571655273438
0.4764970779418945,0.3876571655273438
0.4663393020629882,0.3952829360961914
0.4663393020629882,0.3952829360961914
0.4646690368652344,0.3780349731445312
0.4646690368652344,0.3780349731445312
0.4776443481445312,0.3986028671264648
0.4776443481445312,0.3986028671264648
0.4577367782592773,0.3820587158203125
0.4577367782592773,0.3820587158203125
0.4764432907104492,0.3874448776245117
0.4764432907104492,0.3874448776245117
0.4661052703857422,0.3947799682617187
0.4661052703857422,0.3947799682617187
0.4646032333374023,0.3778169631958008
0.4646032333374023,0.3778169631958008
0.4775688171386718,0.3984992980957031
0.4775688171386718,0.3984992980957031
0.4578289031982422,0.3822378158569336
0.4578289031982422,0.3822378158569336
0.4768301010131836,0.3880651473999023
0.4768301010131836,0.3880651473999023
0.4664382934570312,0.3954534530639648
0.4664382934570312,0.3954534530639648
0.4611236572265625,0.3876571655273438
0.4611236572265625,0.3898973464965820
0.4719566345214843,0.3830234527587891
0.4719566345214843,0.3830234527587891
0.4735433578491210,0.4000431060791015
0.4735433578491210,0.4000431060791015
0.4611534118652343,0.3794672012329102
0.4611534118652343,0.3794672012329102
0.4804166793823242,0.3970762252807617
0.4804166793823242,0.3970762252807617
0.4623899459838867,0.3921163558959961
0.4623899459838867,0.3921163558959961
0.4736228942871094,0.3855360031127930
0.4736228942871094,0.3855360031127930
0.4752044677734375,0.4024229049682617
0.4752044677734375,0.4024229049682617
0.4629547119140625,0.3821943283081055
0.4629547119140625,0.3821943283081055
0.4821252822875977,0.3997587203979492
0.4821252822875977,0.3997587203979492
0.4638261795043945,0.3945093154907227
0.4638261795043945,0.3945093154907227
0.4752090454101562,0.3880622863769531
0.4752090454101562,0.3880622863769531
0.4765560150146484,0.4046516418457031
0.4765560150146484,0.4046516418457031
0.4641174316406250,0.3841444015502929
0.4641174316406250,0.3841444015502929
0.4833995819091796,0.4017528533935547
0.4833995819091796,0.4017528533935547
0.4649328231811523,0.3962602615356445
0.4649328231811523,0.3962602615356445
0.4763053894042968,0.3899402618408203
0.4763053894042968,0.3899402618408203
0.4776426315307617,0.4066520690917969
0.4776426315307617,0.4066520690917969
0.4654357910156250,0.3861310958862305
0.4654357910156250,0.3861310958862305
0.4846818923950195,0.4038602828979492
0.4846818923950195,0.4038602828979492
0.4659828186035156,0.3982372283935547
0.4659828186035156,0.3982372283935547
0.4776489257812500,0.3921661376953125
0.4776489257812500,0.3921661376953125
0.4787160873413085,0.4087417602539062
0.4787160873413085,0.4087417602539062
0.4667209625244140,0.3883695602416992
0.4667209625244140,0.3883695602416992
0.4860031127929687,0.4062526702880859
0.4860031127929687,0.4062526702880859
0.4672456741333008,0.4005718231201172
0.4672456741333008,0.4005718231201172
0.4792774200439453,0.3947753906250000
0.4792774200439453,0.3947753906250000
0.4802501678466797,0.4112434387207031
0.4802501678466797,0.4112434387207031
0.4682590484619140,0.3906778335571289
0.4682590484619140,0.3906778335571289
0.4871377944946289,0.4078777313232422
0.4871377944946289,0.4078777313232422
0.4677417755126953,0.4010147094726562
0.4677417755126953,0.4010147094726562
0.4787521362304688,0.3934215545654297
0.4787521362304688,0.3934215545654297
0.4780431747436523,0.4071264266967773
0.4780431747436523,0.4071264266967773
0.4643898010253906,0.3839063644409180
0.4643898010253906,0.3839063644409180
0.4815307617187500,0.3984203338623047
0.4815307617187500,0.3984203338623047
0.4604959487915039,0.3889492034912109
0.4604959487915039,0.3889492034912109
0.4705095291137695,0.3801939010620117
0.4705095291137695,0.3801939010620117
0.4696065902709960,0.3939823150634765
0.4696065902709960,0.3939823150634765
0.4566656112670898,0.3717355728149414
0.4566656112670898,0.3717355728149414
0.4749006271362304,0.3881172180175781
0.4749006271362304,0.3881172180175781
0.4550697326660156,0.3808994293212891
0.4550697326660156,0.3808994293212891
0.4668502807617188,0.3745668411254883
0.4668502807617188,0.3745668411254883
0.4670562744140625,0.3900026321411132
0.4744766235351562,0.3900026321411132
0.4551927566528320,0.3691995620727539
0.4551927566528320,0.3691995620727539
0.4740079879760742,0.3866912841796875
0.4740079879760742,0.3866912841796875
0.4547000885009765,0.3800846099853515
0.4547000885009765,0.3800846099853515
0.4671478271484375,0.3745742797851562
0.4671478271484375,0.3745742797851562
0.4673149108886718,0.3904249191284180
0.4673149108886718,0.3904249191284180
0.4557460784912109,0.3700092315673828
0.4557460784912109,0.3700092315673828
0.4748531341552734,0.3879627227783203
0.4748531341552734,0.3879627227783203
0.4555372238159179,0.3815608978271484
0.4555372238159179,0.3815608978271484
0.4683031082153320,0.3766347885131836
0.4683031082153320,0.3766347885131836
0.4686681747436523,0.3928030014038086
0.4686681747436523,0.3928030014038086
0.4575679779052734,0.3728937149047851
0.4575679779052734,0.3728937149047851
0.4768690109252929,0.3911241531372070
0.4768690109252929,0.3911241531372070
0.4575473785400390,0.3848453521728515
0.4575473785400390,0.3848453521728515
0.4705965042114257,0.3801418304443359
0.4705965042114257,0.3801418304443359
0.4705999374389648,0.3959152221679688
0.4705999374389648,0.3959152221679688
0.4594293594360351,0.3757770538330078
0.4594293594360351,0.3757770538330078
0.4783475875854492,0.3934707641601562
0.4783475875854492,0.3934707641601562
0.4586454391479492,0.3865133285522461
0.4586454391479492,0.3865133285522461
0.4714794158935547,0.3814167022705078
0.4714794158935547,0.3814167022705078
0.4712184906005859,0.3966201782226562
0.4712184906005859,0.3966201782226562
0.4599260330200195,0.3761655807495117
0.4599260330200195,0.3761655807495117
0.4786050796508789,0.3936967849731445
0.4786050796508789,0.3936967849731445
0.4586706161499023,0.3864418029785156
0.4586706161499023,0.3864418029785156
0.4718147277832031,0.3815488815307617
0.4718147277832031,0.3815488815307617
0.4712814331054687,0.3967723846435547
0.4712814331054687,0.3967723846435547
0.4602991104125976,0.3765575408935547
0.4602991104125976,0.3765575408935547
0.4791149139404297,0.3943931579589844
0.4791149139404297,0.3943931579589844
0.4591484069824219,0.3873636245727539
0.4591484069824219,0.3873636245727539
0.4727039337158203,0.3827459335327149
0.4727039337158203,0.3827459335327149
0.4719869613647460,0.3982103347778320
0.4719869613647460,0.3982103347778320
0.4612838745117187,0.3781963348388672
0.4612838745117187,0.3781963348388672
0.4801671981811523,0.3963523864746094
0.4801671981811523,0.3963523864746094
0.4602104187011719,0.3893377304077149
0.4602104187011719,0.3893377304077149
0.4740291595458984,0.3852012634277344
0.4740291595458984,0.3852012634277344
0.4732664108276367,0.4006696701049804
0.4732664108276367,0.4006696701049804
0.4628185272216797,0.3808507919311523
0.4628185272216797,0.3808507919311523
0.4817407608032226,0.3990915298461914
0.4817407608032226,0.3990915298461914
0.4618371963500976,0.3919893264770508
0.4618371963500976,0.3919893264770508
0.4757955551147461,0.3880428314208984
0.4757955551147461,0.3880428314208984
0.4748456954956055,0.4033893585205078
0.4748456954956055,0.4033893585205078
0.4643909454345703,0.3834966659545898
0.4643909454345703,0.3834966659545898
0.4832399368286133,0.4015285491943359
0.4832399368286133,0.4015285491943359
0.4633106231689453,0.3942741394042968
0.4633106231689453,0.3942741394042968
0.4772638320922851,0.3902933120727539
0.4772638320922851,0.3902933120727539
0.4760959625244141,0.4054246902465820
0.4760959625244141,0.4054246902465820
0.4657905578613281,0.3854907989501953
0.4657905578613281,0.3854907989501953
0.4845188140869141,0.4034631729125976
0.4845188140869141,0.4034631729125976
0.4643005371093750,0.3960863113403320
0.4643005371093750,0.3960863113403320
0.4786033630371094,0.3922616958618164
0.4786033630371094,0.3922616958618164
0.4771785736083984,0.4074714660644531
0.4862091064453125,0.4074714660644531
0.4671106338500977,0.3876817703247070
0.4671106338500977,0.3876817703247070
0.4858320236206055,0.4058109283447265
0.4858320236206055,0.4058109283447265
0.4657384872436523,0.3983877182006836
0.4657384872436523,0.3983877182006836
0.4802942276000977,0.3948337554931641
0.4802942276000977,0.3948337554931641
0.4786314010620117,0.4099290847778320
0.4786314010620117,0.4099290847778320
0.4688879013061523,0.3901033401489258
0.4688879013061523,0.3901033401489258
0.4874713897705078,0.4081466674804687
0.4874713897705078,0.4081466674804687
0.4669481277465820,0.4002204895019531
0.4669481277465820,0.4002204895019531
0.4812807083129882,0.3960182189941406
0.4812807083129882,0.3960182189941406
0.4786376953125000,0.4097602844238281
0.4786376953125000,0.4097602844238281
0.4675157546997070,0.3877412796020508
0.4675157546997070,0.3877412796020508
0.4845279693603515,0.4033224105834961
0.4845279693603515,0.4033224105834961
0.4621587753295898,0.3922370910644531
0.4621587753295898,0.3922370910644531
0.4749429702758789,0.3854782104492188
0.4749429702758789,0.3854782104492188
0.4705799102783203,0.3967277526855469
0.4705799102783203,0.3967277526855469
0.4588308334350586,0.3738853454589844
0.4588308334350586,0.3738853454589844
0.4756902694702148,0.3896724700927734
0.4756902694702148,0.3896724700927734
0.4541118621826172,0.3797183990478515
0.4541118621826172,0.3797183990478515
0.4681377410888672,0.3750480651855468
0.4681377410888672,0.3750480651855468
0.4651754379272461,0.3887695312500000
0.4651754379272461,0.3887695312500000
0.4550308227539062,0.3681764602661133
0.4550308227539062,0.3681764602661133
0.4732074737548828,0.3857797622680664
0.4732074737548828,0.3857797622680664
0.4524816513061523,0.3773271560668945
0.4524816513061523,0.3773271560668945
0.4676307678222656,0.3738235473632812
0.4676307678222656,0.3738235473632812
0.4650169372558594,0.3884056091308594
0.4650169372558594,0.3884056091308594
0.4555995941162109,0.3684865951538086
0.4555995941162109,0.3684865951538086
0.4738077163696289,0.3865173339843750
0.4738077163696289,0.3865173339843750
0.4533451080322266,0.3783159255981445
0.4533451080322266,0.3783159255981445
0.4687849044799804,0.3753376007080078
0.4687849044799804,0.3753376007080078
0.4661710739135742,0.3901914596557617
0.4661710739135742,0.3901914596557617
0.4571897506713867,0.3705974578857422
0.4571897506713867,0.3705974578857422
0.4755678176879883,0.3892473220825195
0.4755678176879883,0.3892473220825195
0.4552516937255859,0.3813125610351563
0.4552516937255859,0.3813125610351563
0.4709598541259765,0.3787302017211914
0.4709598541259765,0.3787302017211914
0.4682704925537109,0.3935914993286133
0.4682704925537109,0.3935914993286133
0.4593280792236328,0.3740118026733398
0.4593280792236328,0.3740118026733398
0.4775487899780273,0.3923538208007812
0.4775487899780273,0.3923538208007812
0.4568658828735351,0.3837919235229492
0.4568658828735351,0.3837919235229492
0.4724641799926758,0.3808444976806640
0.4724641799926758,0.3808444976806640
0.4692214965820312,0.3950494766235351
0.4692214965820312,0.3950494766235351
0.4599288940429687,0.3750074386596680
0.4599288940429687,0.3750074386596680
0.4777536392211914,0.3929008483886718
0.4777536392211914,0.3929008483886718
0.4569849014282226,0.3839447021484375
0.4569849014282226,0.3839447021484375
0.4724590301513671,0.3808937072753906
0.4724590301513671,0.3808937072753906
0.4689960479736328,0.3948635101318359
0.4689960479736328,0.3948635101318359
0.4599231719970703,0.3748071670532226
0.4599231719970703,0.3748071670532226
0.4778617858886718,0.3930702209472656
0.4778617858886718,0.3930702209472656
0.4569385528564453,0.3840362548828125
0.4569385528564453,0.3840362548828125
0.4729042053222656,0.3815757751464844
0.4729042053222656,0.3815757751464844
0.4695150375366210,0.3959146499633789
0.4695150375366210,0.3959146499633789
0.4608467102050781,0.3761169433593750
0.4608467102050781,0.3761169433593750
0.4787572860717773,0.3946643829345703
0.4701639175415039,0.3946643829345703
0.4582225799560546,0.3860418319702149
0.4582225799560546,0.3860418319702149
0.4744234085083008,0.3837650299072266
0.4744234085083008,0.3837650299072266
0.4709632873535156,0.3982875823974609
0.4709632873535156,0.3982875823974609
0.4625404357910156,0.3787364959716797
0.4625404357910156,0.3787364959716797
0.4690538406372070,0.3811185836791992
0.4579862594604492,0.3811185836791992
0.4780694961547851,0.4009140014648437
0.4793689727783203,0.4009140014648437
0.4604187011718750,0.3839355468750000
0.4604187011718750,0.3839355468750000
0.4815073013305664,0.3939863204956054
0.4815073013305664,0.3939863204956054
0.4660789489746093,0.3970087051391601
0.4660789489746093,0.3970087051391601
0.4707584381103516,0.3839012145996094
0.4707584381103516,0.3839012145996094
0.4794319152832031,0.4033687591552734
0.4794319152832031,0.4033687591552734
0.4619064331054688,0.3859903335571289
0.4619064331054688,0.3859903335571289
0.4829069137573242,0.3961223602294922
0.4829069137573242,0.3961223602294922
0.4672576904296875,0.3989198684692383
0.4672576904296875,0.3989198684692383
0.4720138549804687,0.3857843399047852
0.4720138549804687,0.3857843399047852
0.4805145263671875,0.4052261352539062
0.4805145263671875,0.4052261352539062
0.4630393981933594,0.3878030776977539
0.4630393981933594,0.3878030776977539
0.4839666366577148,0.3980535507202148
0.4839666366577148,0.3980535507202148
0.4682687759399414,0.4007595062255859
0.4682687759399414,0.4007595062255859
0.4732469558715820,0.3878591537475586
0.4732469558715820,0.3878591537475586
0.4816005706787109,0.4073547363281250
0.4816005706787109,0.4073547363281250
0.4644292831420898,0.3898921966552734
0.4644292831420898,0.3898921966552734
0.4854194641113281,0.4005741119384765
0.4854194641113281,0.4005741119384765
0.4696557998657226,0.4030975341796875
0.4696557998657226,0.4030975341796875
0.4747552871704102,0.3902761459350586
0.4747552871704102,0.3902761459350586
0.4830213546752929,0.4098289489746094
0.4830213546752929,0.4098289489746094
0.4658203125000000,0.3920333862304687
0.4658203125000000,0.3920333862304687
0.4865684509277344,0.4023616790771484
0.4865684509277344,0.4023616790771484
0.4700769424438476,0.4038619995117188
0.4700769424438476,0.4038619995117188
0.4746603012084961,0.3895660400390625
0.4746603012084961,0.3895660400390625
0.4813253402709960,0.4065753936767578
0.4813253402709960,0.4065753936767578
0.4624929428100586,0.3858810424804687
0.4624929428100586,0.3858810424804687
0.4813751220703125,0.3934570312500000
0.4813751220703125,0.3934570312500000
0.4631372451782226,0.3921524047851562
0.4631372451782226,0.3921524047851562
0.4665189743041992,0.3760173797607422
0.4665189743041992,0.3760173797607422
0.4722908020019531,0.3924877166748047
0.4722908020019531,0.3924877166748047
0.4540540695190429,0.3724554061889648
0.4540540695190429,0.3724554061889648
0.4737195968627930,0.3818252563476562
0.4737195968627930,0.3818252563476562
0.4567371368408203,0.3825622558593750
0.4567371368408203,0.3825622558593750
0.4617628097534179,0.3689998626708984
0.4617628097534179,0.3689998626708984
0.4690790176391602,0.3877979278564453
0.4690790176391602,0.3877979278564453
0.4519935607910156,0.3692728042602539
0.4519935607910156,0.3692728042602539
0.4725465774536133,0.3801080703735352
0.4725465774536133,0.3801080703735352
0.4562410354614257,0.3818012237548828
0.4562410354614257,0.3818012237548828
0.4620449066162109,0.3691669464111328
0.4620449066162109,0.3691669464111328
0.4694492340087890,0.3884553909301758
0.4694492340087890,0.3884553909301758
0.4529932022094726,0.3703519821166992
0.4529932022094726,0.3703519821166992
0.4737361907958984,0.3818046569824219
0.4737361907958984,0.3818046569824219
0.4574243545532226,0.3836763381958008
0.4574243545532226,0.3836763381958008
0.4637907028198242,0.3716257095336914
0.4637907028198242,0.3716257095336914
0.4712373733520507,0.3915086746215820
0.4712373733520507,0.3915086746215820
0.4552150726318359,0.3735225677490234
0.4552150726318359,0.3735225677490234
0.4760696411132812,0.3854221343994140
0.4760696411132812,0.3854221343994140
0.4597732543945312,0.3873224258422852
0.4597732543945312,0.3873224258422852
0.4662179946899414,0.3752952575683594
0.4662179946899414,0.3752952575683594
0.4732423782348633,0.3948240280151367
0.4732423782348633,0.3948240280151367
0.4571027755737305,0.3762205123901367
0.4571027755737305,0.3762205123901367
0.4775905609130859,0.3879083633422851
0.4775905609130859,0.3879083633422851
0.4608993530273438,0.3888559341430664
0.4608993530273438,0.3888559341430664
0.4670139312744140,0.3765077590942383
0.4670139312744140,0.3765077590942383
0.4736715316772461,0.3953344345092774
0.4736715316772461,0.3953344345092774
0.4574312210083007,0.3763189315795898
0.4574312210083007,0.3763189315795898
0.4775630950927734,0.3878385543823242
0.4775630950927734,0.3878385543823242
0.4606973648071289,0.3887672424316406
0.4606973648071289,0.3887672424316406
0.4671117782592773,0.3765157699584961
0.4561946868896484,0.3765157699584961
0.4735628128051758,0.3955581665039062
0.4735628128051758,0.3955581665039062
0.4575576782226562,0.3766159057617187
0.4575576782226562,0.3766159057617187
0.4779493331909179,0.3885784149169922
0.4779493331909179,0.3885784149169922
0.4612415313720703,0.3895334243774414
0.4612415313720703,0.3895334243774414
0.4679574966430664,0.3777591705322266
0.4679574966430664,0.3777591705322266
0.4743942260742187,0.3971546173095703
0.4743942260742187,0.3971546173095703
0.4588005065917968,0.3783416748046875
0.4588005065917968,0.3783416748046875
0.4791446685791015,0.3907453536987305
0.4791446685791015,0.3907453536987305
0.4625930786132812,0.3917106628417968
0.4625930786132812,0.3917106628417968
0.4694692611694335,0.3800451278686524
0.4694692611694335,0.3800451278686524
0.4758356094360351,0.3995779037475586
0.4758356094360351,0.3995779037475586
0.4604261398315430,0.3808393478393555
0.4604261398315430,0.3808393478393555
0.4807966232299805,0.3935033798217774
0.4807966232299805,0.3935033798217774
0.4642124176025391,0.3943262100219727
0.4642124176025391,0.3943262100219727
0.4712951660156250,0.3828140258789062
0.4712951660156250,0.3828140258789062
0.4773948669433594,0.4022809982299805
0.4773948669433594,0.4022809982299805
0.4620254516601562,0.3832740783691406
0.4620254516601562,0.3832740783691406
0.4823501586914062,0.3959770202636719
0.4823501586914062,0.3959770202636719
0.4656291961669922,0.3964262008666992
0.4656291961669922,0.3964262008666992
0.4725809097290039,0.3851325988769531
0.4725809097290039,0.3851325988769531
0.4786176681518555,0.4044404983520508
0.4786176681518555,0.4044404983520508
0.4634450912475586,0.3851692199707031
0.4634450912475586,0.3851692199707031
0.4835300445556641,0.3980792999267578
0.4835300445556641,0.3980792999267578
0.4666952133178711,0.3984094619750976
0.4666952133178711,0.3984094619750976
0.4739805221557617,0.3871805191040039
0.4739805221557617,0.3871805191040039
0.4797632217407226,0.4064958572387695
0.4797632217407226,0.4064958572387695
0.4646913528442382,0.3871896743774414
0.4646913528442382,0.3871896743774414
0.4847230911254883,0.4003200531005859
0.4847230911254883,0.4003200531005859
0.4679517745971680,0.4003967285156250
0.4679517745971680,0.4003967285156250
0.4753847122192383,0.3893823623657227
0.4753847122192383,0.3893823623657227
0.4810523986816406,0.4086719512939453
0.4810523986816406,0.4086719512939453
0.4659919738769531,0.3891546249389649
0.4659919738769531,0.3891546249389649
0.4859928131103515,0.4024074554443359
0.4859928131103515,0.4024074554443359
0.4691276550292969,0.4020521163940430
0.4691276550292969,0.4020521163940430
0.4762842178344726,0.3906480789184570
0.4762842178344726,0.3906480789184570
0.4811084747314453,0.4084442138671875
0.4811084747314453,0.4084442138671875
0.4649442672729492,0.3867925643920898
0.4649442672729492,0.3867925643920898
0.4831924438476562,0.3975362777709961
0.4643423080444335,0.3939880371093750
0.4643423080444335,0.3939880371093750
0.4700254440307617,0.3797813415527344
0.4700254440307617,0.3797813415527344
0.4729127883911133,0.3951622009277344
0.4729127883911133,0.3951622009277344
0.4559806823730468,0.3723541259765625
0.4559806823730468,0.3723541259765625
0.4741722106933594,0.3835533142089844
0.4741722106933594,0.3835533142089844
0.4560636520385742,0.3810144424438476
0.4560636520385742,0.3810144424438476
0.4629529953002929,0.3690347671508789
0.4629529953002929,0.3690347671508789
0.4672800064086914,0.3869384765625000
0.4672800064086914,0.3869384765625000
0.4521039962768554,0.3663574218750000
0.4521039962768554,0.3663574218750000
0.4715314865112304,0.3797023773193359
0.4715314865112304,0.3797023773193359
0.4544208526611328,0.3785150527954101
0.4544208526611328,0.3785150527954101
0.4622423171997070,0.3676763534545898
0.4622423171997070,0.3676763534545898
0.4671140670776367,0.3864818572998047
0.4671140670776367,0.3864818572998047
0.4525314331054687,0.3664478302001953
0.4525314331054687,0.3664478302001953
0.4720670700073242,0.3805143356323242
0.4720670700073242,0.3805143356323242
0.4551578521728515,0.3795066833496094
0.4551578521728515,0.3795066833496094
0.4634136199951172,0.3692756652832031
0.4634136199951172,0.3692756652832031
0.4683277130126953,0.3883729934692383
0.4683277130126953,0.3883729934692383
0.4539974212646484,0.3688373565673828
0.4539974212646484,0.3688373565673828
0.4737842559814453,0.3833152770996094
0.4737842559814453,0.3833152770996094
0.4571851730346679,0.3824254989624024
0.4571851730346679,0.3824254989624024
0.4656166076660156,0.3726299285888672
0.4656166076660156,0.3726299285888672
0.4702938079833984,0.3917003631591797
0.4702938079833984,0.3917003631591797
0.4560350418090820,0.3717201232910156
0.4560350418090820,0.3717201232910156
0.4756593704223633,0.3862426757812500
0.4756593704223633,0.3862426757812500
0.4588216781616211,0.3846754074096679
0.4588216781616211,0.3846754074096679
0.4669303894042969,0.3744758605957031
0.4669303894042969,0.3744758605957031
0.4711257934570312,0.3929821014404297
0.4711257934570312,0.3929821014404297
0.4566513061523437,0.3724376678466797
0.4566513061523437,0.3724376678466797
0.4759254455566406,0.3867891311645508
0.4759254455566406,0.3867891311645508
0.4588365554809570,0.3845907211303711
0.4588365554809570,0.3845907211303711
0.4669258117675781,0.3744649887084961
0.4669258117675781,0.3744649887084961
0.4709793090820312,0.3927417755126953
0.4709793090820312,0.3927417755126953
0.4565820693969727,0.3722751617431641
0.4565820693969727,0.3722751617431641
0.4759603500366211,0.3869956970214843
0.4759603500366211,0.3869956970214843
0.4590642929077148,0.3849363327026367
0.4590642929077148,0.3849363327026367
0.4675518035888672,0.3751888275146484
0.4675518035888672,0.3751888275146484
0.4715183258056641,0.3937705993652343
0.4715183258056641,0.3937705993652343
0.4574626922607422,0.3735528945922851
0.4574626922607422,0.3735528945922851
0.4769788742065429,0.3886007308959961
0.4769788742065429,0.3886007308959961
0.4601818084716797,0.3866386413574219
0.4601818084716797,0.3866386413574219
0.4688999176025390,0.3772985458374024
0.4688999176025390,0.3772985458374024
0.4728841781616211,0.3960290908813476
0.4728841781616211,0.3960290908813476
0.4589824676513672,0.3758228302001953
0.4589824676513672,0.3758228302001953
0.4784202575683594,0.3913312911987304
0.4784202575683594,0.3913312911987304
0.4616580963134765,0.3890247344970703
0.4616580963134765,0.3890247344970703
0.4705175399780273,0.3800010681152344
0.4705175399780273,0.3800010681152344
0.4745275497436523,0.3986606597900391
0.4745275497436523,0.3986606597900391
0.4605611801147461,0.3783279418945312
0.4605611801147461,0.3783279418945312
0.4799154281616211,0.3940034866333008
0.4799154281616211,0.3940034866333008
0.4630846023559570,0.3914251327514648
0.4630846023559570,0.3914251327514648
0.4721105575561523,0.3823745727539062
0.4579353332519531,0.3823745727539062
0.4809814453125000,0.4008087158203125
0.4781558990478516,0.4008087158203125
0.4619218826293945,0.3803415298461914
0.4619218826293945,0.3803415298461914
0.4812326431274414,0.3962385177612305
0.4812326431274414,0.3962385177612305
0.4643177032470703,0.3932659149169922
0.4643177032470703,0.3932659149169922
0.4735467910766601,0.3845489501953125
0.4735467910766601,0.3845489501953125
0.4769485473632812,0.4027999877929687
0.4769485473632812,0.4027999877929687
0.4631629943847656,0.3824352264404297
0.4631629943847656,0.3824352264404297
0.4824525833129882,0.3984277725219726
0.4824525833129882,0.3984277725219726
0.4655176162719726,0.3954969406127929
0.4655176162719726,0.3954969406127929
0.4749595642089843,0.3867353439331054
0.4749595642089843,0.3867353439331054
0.4783819198608398,0.4051763534545899
0.4783819198608398,0.4051763534545899
0.4646999359130859,0.3847240447998047
0.4646999359130859,0.3847240447998047
0.4839363098144531,0.4008968353271484
0.4839363098144531,0.4008968353271484
0.4668245315551758,0.3976438522338867
0.4668245315551758,0.3976438522338867
0.4762859344482422,0.3887420654296875
0.4762859344482422,0.3887420654296875
0.4791297912597656,0.4064340591430664
0.4791297912597656,0.4064340591430664
0.4649568557739258,0.3847120285034180
0.4649568557739258,0.3847120285034180
0.4831884384155273,0.3991092681884765
0.4831884384155273,0.3991092681884765
0.4643663406372070,0.3930662155151367
0.4643663406372070,0.3930662155151367
0.4721357345581054,0.3815975189208984
0.4721357345581054,0.3815975189208984
0.4731513977050781,0.3961950302124023
0.4731513977050781,0.3961950302124023
0.4574020385742187,0.3720405578613281
0.4574020385742187,0.3720405578613281
0.4746082305908203,0.3855148315429687
0.4746082305908203,0.3855148315429687
0.4556396484375000,0.3793790817260742
0.4556396484375000,0.3793790817260742
0.4642662048339843,0.3691686630249023
0.4642662048339843,0.3691686630249023
0.4660154342651367,0.3855972290039062
0.4660154342651367,0.3855972290039062
0.4519174575805664,0.3638660430908203
0.4519174575805664,0.3638660430908203
0.4706520080566406,0.3795066833496094
0.4706520080566406,0.3795066833496094
0.4527517318725586,0.3749736785888672
0.4527517318725586,0.3749736785888672
0.4625078201293945,0.3664392471313476
0.4625078201293945,0.3664392471313476
0.4649042129516601,0.3836912155151367
0.4649042129516601,0.3836912155151367
0.4514711380004883,0.3627857208251953
0.4514711380004883,0.3627857208251953
0.4706708908081054,0.3794460296630859
0.4706708908081054,0.3794460296630859
0.4530080795288086,0.3751310348510742
0.4530080795288086,0.3751310348510742
0.4632591247558593,0.3672037124633789
0.4632591247558593,0.3672037124633789
0.4656383514404296,0.3847320556640625
0.4656383514404296,0.3847320556640625
0.4525978088378906,0.3643215179443359
0.4525978088378906,0.3643215179443359
0.4720413208007812,0.3814418792724609
0.4720413208007812,0.3814418792724609
0.4544660568237304,0.3774072647094727
0.4544660568237304,0.3774072647094727
0.4650936126708984,0.3701814651489257
0.4650936126708984,0.3701814651489257
0.4676073074340820,0.3879169464111328
0.4676073074340820,0.3879169464111328
0.4546943664550781,0.3675819396972656
0.4546943664550781,0.3675819396972656
0.4740972518920898,0.3847520828247070
0.4740972518920898,0.3847520828247070
0.4564001083374023,0.3803220748901367
0.4564001083374023,0.3803220748901367
0.4669910430908203,0.3727352142333984
0.4669910430908203,0.3727352142333984
0.4689783096313476,0.3900232315063477
0.4689783096313476,0.3900232315063477
0.4560321807861328,0.3691749572753906
0.4560321807861328,0.3691749572753906
0.4749710083007812,0.3860097885131836
0.4749710083007812,0.3860097885131836
0.4567966461181641,0.3808862686157227
0.4567966461181641,0.3808862686157227
0.4672897338867187,0.3732519149780273
0.4672897338867187,0.3732519149780273
0.4690034866333008,0.3900512695312500
0.4690034866333008,0.3900512695312500
0.4559537887573242,0.3690467834472656
0.4559537887573242,0.3690467834472656
0.4750522613525390,0.3860647201538086
0.4750522613525390,0.3860647201538086
0.4568115234375000,0.3808696746826172
0.4568115234375000,0.3808696746826172
0.4675861358642578,0.3737188339233398
0.4675861358642578,0.3737188339233398
0.4693874359130859,0.3906715393066406
0.4693874359130859,0.3906715393066406
0.4566192626953125,0.3698295593261718
0.4566192626953125,0.3698295593261718
0.4758750915527343,0.3874031066894531
0.4758750915527343,0.3874031066894531
0.4576354980468750,0.3822841644287109
0.4576354980468750,0.3822841644287109
0.4688884735107421,0.3755979537963867
0.4688884735107421,0.3755979537963867
0.4706233978271484,0.3927194595336914
0.4706233978271484,0.3927194595336914
0.4580966949462890,0.3722528457641601
0.4580966949462890,0.3722528457641601
0.4774784088134765,0.3898487091064453
0.4774784088134765,0.3898487091064453
0.4589990615844726,0.3847360610961914
0.4589990615844726,0.3847360610961914
0.4705421447753906,0.3782644271850586
0.4705421447753906,0.3782644271850586
0.4721609115600586,0.3952503204345703
0.4721609115600586,0.3952503204345703
0.4597389221191406,0.3747716903686523
0.4597389221191406,0.3747716903686523
0.4791898727416992,0.3925088882446289
0.4791898727416992,0.3925088882446289
0.4606487274169921,0.3872537612915039
0.4606487274169921,0.3872537612915039
0.4722398757934570,0.3809228897094726
0.4722398757934570,0.3809228897094726
0.4735279083251953,0.3977176666259766
0.4735279083251953,0.3977176666259766
0.4612260818481445,0.3770330429077148
0.4612260818481445,0.3770330429077148
0.4806152343750000,0.3947759628295898
0.4806152343750000,0.3947759628295898
0.4617994308471680,0.3891826629638672
0.4617994308471680,0.3891826629638672
0.4736600875854492,0.3830228805541992
0.4736600875854492,0.3830228805541992
0.4746860504150390,0.3996437072753906
0.4746860504150390,0.3996437072753906
0.4626068115234375,0.3791908264160156
0.4626068115234375,0.3791908264160156
0.4818809509277344,0.3970521926879882
0.4818809509277344,0.3970521926879882
0.4631864547729492,0.3913513183593750
0.4631864547729492,0.3913513183593750
0.4751386642456055,0.3854873657226562
0.4751386642456055,0.3854873657226562
0.4760919570922851,0.4019788742065429
0.4760919570922851,0.4019788742065429
0.4642267227172852,0.3816181182861328
0.4642267227172852,0.3816181182861328
0.4835197448730468,0.3995607376098633
0.4835197448730468,0.3995607376098633
0.4646787643432617,0.3937076568603515
0.4646787643432617,0.3937076568603515
0.4766944885253906,0.3879089355468750
0.4766944885253906,0.3879089355468750
0.4774349212646484,0.4041503906250000
0.4774349212646484,0.4041503906250000
0.4654209136962890,0.3832557678222656
0.4654209136962890,0.3832557678222656
0.4839677810668945,0.4001941680908203
0.4839677810668945,0.4001941680908203
0.4640373229980468,0.3924757003784179
0.4640373229980468,0.3924757003784179
0.4749155044555664,0.3843618392944336
0.4749155044555664,0.3843618392944336
0.4735702514648437,0.3976438522338867
0.4735702514648437,0.3976438522338867
0.4599992752075195,0.3738750457763672
0.4599992752075195,0.3738750457763672
0.4768787384033203,0.3882608413696289
0.4768787384033203,0.3882608413696289
0.4555189132690429,0.3787754058837891
0.4555189132690429,0.3787754058837891
0.4662672042846679,0.3707044601440430
0.4662672042846679,0.3707044601440430
0.4652418136596679,0.3847011566162109
0.4652418136596679,0.3847011566162109
0.4526155471801758,0.3626729965209961
0.4526155471801758,0.3626729965209961
0.4708711624145507,0.3793510437011718
0.4708711624145507,0.3793510437011718
0.4508926391601562,0.3720720291137695
0.4508926391601562,0.3720720291137695
0.4631761550903320,0.3660083770751953
0.4631761550903320,0.3660083770751953
0.4630090713500976,0.3813011169433594
0.4708694458007812,0.3813011169433594
0.4513292312622070,0.3606874465942383
0.4513292312622070,0.3606874465942383
0.4702777862548828,0.3783405303955078
0.4702777862548828,0.3783405303955078
0.4506711959838867,0.3715930938720703
0.4506711959838867,0.3715930938720703
0.4635589599609375,0.3663688659667969
0.4635589599609375,0.3663688659667969
0.4633924484252929,0.3819631576538086
0.4633924484252929,0.3819631576538086
0.4522264480590820,0.3617357254028320
0.4522264480590820,0.3617357254028320
0.4713764190673828,0.3798110961914062
0.4713764190673828,0.3798110961914062
0.4518842697143555,0.3733005523681641
0.4518842697143555,0.3733005523681641
0.4653396606445312,0.3688018798828125
0.4653396606445312,0.3688018798828125
0.4650861740112304,0.3848339080810547
0.4650861740112304,0.3848339080810547
0.4544374465942382,0.3650173187255859
0.4544374465942382,0.3650173187255859
0.4736108779907227,0.3833261489868164
0.4736108779907227,0.3833261489868164
0.4538303375244140,0.3765352249145508
0.4538303375244140,0.3765352249145508
0.4675340652465820,0.3720703125000000
0.4675340652465820,0.3720703125000000
0.4669544219970703,0.3876605987548828
0.4669544219970703,0.3876605987548828
0.4561374664306641,0.3673730850219726
0.4561374664306641,0.3673730850219726
0.4748474121093750,0.3851097106933594
0.4748474121093750,0.3851097106933594
0.4548036575317382,0.3777694702148438
0.4548036575317382,0.3777694702148438
0.4681823730468750,0.3730670928955078
0.4681823730468750,0.3730670928955078
0.4671781539916992,0.3879695892333984
0.4671781539916992,0.3879695892333984
0.4563142776489257,0.3674285888671875
0.4563142776489257,0.3674285888671875
0.4748748779296875,0.3851858139038086
0.4748748779296875,0.3851858139038086
0.4546268463134766,0.3775989532470703
0.4546268463134766,0.3775989532470703
0.4684009552001953,0.3732009887695312
0.4684009552001953,0.3732009887695312
0.4672456741333008,0.3881698608398437
0.4672456741333008,0.3881698608398437
0.4566501617431640,0.3681095123291016
0.4566501617431640,0.3681095123291016
0.4754407882690430,0.3861133575439453
0.4754407882690430,0.3861133575439453
0.4552425384521484,0.3786460876464844
0.4552425384521484,0.3786460876464844
0.4695270538330078,0.3747379302978516
0.4695270538330078,0.3747379302978516
0.4682081222534180,0.3899660110473633
0.4682081222534180,0.3899660110473633
0.4580160140991211,0.3701385498046875
0.4580160140991211,0.3701385498046875
0.4769313812255859,0.3883810043334961
0.4769313812255859,0.3883810043334961
0.4567188262939453,0.3809738159179688
0.4567188262939453,0.3809738159179688
0.4711767196655273,0.3774375915527344
0.4711767196655273,0.3774375915527344
0.4697410583496093,0.3926347732543945
0.4697410583496093,0.3926347732543945
0.4598258972167968,0.3728725433349609
0.4598258972167968,0.3728725433349609
0.4786594390869141,0.3912225723266601
0.4786594390869141,0.3912225723266601
0.4583747863769531,0.3835596084594726
0.4583747863769531,0.3835596084594726
0.4730672836303711,0.3801790237426758
0.4730672836303711,0.3801790237426758
0.4713083267211914,0.3951713562011719
0.4713083267211914,0.3951713562011719
0.4614583969116210,0.3754302978515625
0.4614583969116210,0.3754302978515625
0.4800825119018555,0.3936801910400390
0.4800825119018555,0.3936801910400390
0.4596765518188476,0.3858524322509765
0.4596765518188476,0.3858524322509765
0.4746465682983398,0.3825714111328125
0.4746465682983398,0.3825714111328125
0.4724630355834961,0.3974687576293945
0.4724630355834961,0.3974687576293945
0.4629810333251953,0.3777889251708984
0.4629810333251953,0.3777889251708984
0.4814809799194336,0.3960302352905273
0.4814809799194336,0.3960302352905273
0.4610446929931640,0.3881000518798828
0.4610446929931640,0.3881000518798828
0.4761949539184570,0.3850255966186523
0.4606887817382812,0.3801549911499023
0.4737905502319336,0.3999080657958984
0.4836902618408203,0.3999080657958984
0.4644161224365234,0.3802574157714844
0.4644161224365234,0.3802574157714844
0.4829801559448242,0.3986343383789062
0.4738157272338867,0.3986343383789062
0.4624654769897460,0.3904895782470703
0.4624654769897460,0.3904895782470703
0.4779155731201172,0.3876388549804687
0.4779155731201172,0.3876388549804687
0.4753578186035156,0.4024646759033203
0.4753578186035156,0.4024646759033203
0.4660171508789062,0.3826234817504883
0.4660171508789062,0.3826234817504883
0.4842990875244140,0.4006553649902344
0.4842990875244140,0.4006553649902344
0.4634262084960937,0.3916585922241211
0.4634262084960937,0.3916585922241211
0.4783069610595703,0.3877676010131836
0.4783069610595703,0.3877676010131836
0.4741767883300781,0.4003704071044922
0.4741767883300781,0.4003704071044922
0.4635892868041992,0.3779130935668945
0.4635892868041992,0.3779130935668945
0.4798124313354492,0.3931840896606445
0.4798124313354492,0.3931840896606445
0.4570243835449219,0.3810968399047852
0.4570243835449219,0.3810968399047852
0.4706010818481445,0.3750080108642578
0.4706010818481445,0.3750080108642578
0.4652641296386719,0.3862884521484375
0.4652641296386719,0.3862884521484375
0.4548042297363281,0.3641069412231445
0.4548042297363281,0.3641069412231445
0.4716825485229492,0.3806344985961914
0.4716825485229492,0.3806344985961914
0.4498758316040039,0.3704360961914062
0.4498758316040039,0.3704360961914062
0.4652229309082031,0.3670480728149414
0.4652229309082031,0.3670480728149414
0.4611906051635742,0.3804502487182617
0.4611906051635742,0.3804502487182617
0.4522968292236328,0.3601083755493164
0.4522968292236328,0.3601083755493164
0.4699607849121094,0.3783496856689453
0.4699607849121094,0.3783496856689453
0.4490364074707031,0.3690250396728516
0.4490364074707031,0.3690250396728516
0.4652246475219726,0.3667081832885742
0.4652246475219726,0.3667081832885742
0.4614435195922851,0.3806631088256836
0.4614435195922851,0.3806631088256836
0.4530235290527344,0.3609575271606445
0.4530235290527344,0.3609575271606445
0.4708145141601562,0.3796102523803711
0.4708145141601562,0.3796102523803711
0.4500228881835937,0.3705373764038086
0.4500228881835937,0.3705373764038086
0.4667032241821289,0.3687595367431640
0.4667032241821289,0.3687595367431640
0.4628562927246094,0.3830411911010742
0.4628562927246094,0.3830411911010742
0.4549484252929688,0.3638917922973633
0.4549484252929688,0.3638917922973633
0.4727914810180664,0.3830812454223633
0.4727914810180664,0.3830812454223633
0.4522722244262695,0.3740077972412109
0.4522722244262695,0.3740077972412109
0.4692192077636719,0.3725383758544922
0.4692192077636719,0.3725383758544922
0.4650993347167969,0.3866415023803711
0.4650993347167969,0.3866415023803711
0.4572080612182617,0.3669233322143555
0.4572080612182617,0.3669233322143555
0.4745824813842773,0.3857391357421875
0.4745824813842773,0.3857391357421875
0.4536546707153320,0.3759544372558594
0.4536546707153320,0.3759544372558594
0.4703189849853515,0.3740512847900391
0.4703189849853515,0.3740512847900391
0.4655387878417969,0.3874603271484375
0.4655387878417969,0.3874603271484375
0.4577007293701172,0.3673845291137695
0.4577007293701172,0.3673845291137695
0.4745962142944335,0.3859130859375000
0.4745962142944335,0.3859130859375000
0.4534801483154297,0.3757575988769531
0.4534801483154297,0.3757575988769531
0.4704196929931641,0.3740701675415039
0.4704196929931641,0.3740701675415039
0.4654426574707031,0.3873596191406250
0.4654426574707031,0.3873596191406250
0.4578191757202148,0.3675767898559570
0.4578191757202148,0.3675767898559570
0.4747770309448242,0.3864973068237305
0.4747770309448242,0.3864973068237305
0.4539905548095703,0.3765512466430664
0.4539905548095703,0.3765512466430664
0.4711950302124023,0.3753959655761719
0.4711950302124023,0.3753959655761719
0.4662414550781250,0.3888032913208008
0.4662414550781250,0.3888032913208008
0.4590059280395508,0.3692888259887695
0.4590059280395508,0.3692888259887695
0.4760044097900391,0.3885938644409180
0.4760044097900391,0.3885938644409180
0.4552671432495117,0.3786598205566406
0.4552671432495117,0.3786598205566406
0.4727268218994141,0.3779422760009766
0.4727268218994141,0.3779422760009766
0.4676937103271484,0.3912202835083008
0.4676937103271484,0.3912202835083008
0.4607494354248047,0.3717876434326172
0.4607494354248047,0.3717876434326172
0.4776981353759766,0.3913845062255859
0.4776981353759766,0.3913845062255859
0.4569557189941406,0.3812690734863281
0.4569557189941406,0.3812690734863281
0.4746128082275390,0.3805807113647461
0.4746128082275390,0.3805807113647461
0.4691322326660156,0.3937557220458984
0.4691322326660156,0.3937557220458984
0.4625146865844726,0.3743923187255859
0.4625146865844726,0.3743923187255859
0.4790931701660156,0.3939193725585937
0.4719406127929687,0.3939193725585937
0.4584039688110351,0.3834772109985352
0.4584039688110351,0.3834772109985352
0.4760158538818359,0.3829811096191406
0.4760158538818359,0.3829811096191406
0.4703613281250000,0.3958459854125976
0.4703613281250000,0.3958459854125976
0.4639074325561523,0.3764820098876953
0.4639074325561523,0.3764820098876953
0.4803611755371093,0.3960239410400391
0.4803611755371093,0.3960239410400391
0.4595958709716796,0.3854747772216797
0.4595958709716796,0.3854747772216797
0.4774955749511718,0.3851943969726562
0.4774955749511718,0.3851943969726562
0.4716247558593750,0.3980249404907226
0.4716247558593750,0.3980249404907226
0.4653362274169922,0.3785608291625976
0.4653362274169922,0.3785608291625976
0.4815685272216796,0.3984821319580078
0.4815685272216796,0.3984821319580078
0.4611528396606445,0.3877504348754883
0.4611528396606445,0.3877504348754883
0.4789180755615234,0.3876703262329101
0.4789180755615234,0.3876703262329101
0.4729906082153320,0.4001930236816406
0.4729906082153320,0.4001930236816406
0.4669961929321289,0.3809892654418945
0.4669961929321289,0.3809892654418945
0.4831621170043945,0.4009071350097656
0.4831621170043945,0.4009071350097656
0.4624671936035156,0.3897096633911133
0.4624671936035156,0.3897096633911133
0.4801654815673828,0.3893920898437500
0.4801654815673828,0.3893920898437500
0.4734815597534179,0.4010021209716797
0.4734815597534179,0.4010021209716797
0.4668067932128906,0.3801149368286132
0.4668067932128906,0.3801149368286132
0.4813831329345703,0.3980724334716797
0.4813831329345703,0.3980724334716797
0.4592176437377929,0.3838691711425781
0.4592176437377929,0.3838691711425781
0.4750511169433593,0.3808061599731445
0.4750511169433593,0.3808061599731445
0.4662797927856445,0.3892999649047851
0.4662797927856445,0.3892999649047851
0.4585412979125976,0.3666028976440430
0.4585412979125976,0.3666028976440430
0.4723503112792968,0.3840328216552734
0.4723503112792968,0.3840328216552734
0.4506402969360351,0.3705213546752930
0.4506402969360351,0.3705213546752930
0.4674024581909180,0.3692396163940430
0.4674024581909180,0.3692396163940430
0.4598630905151367,0.3800628662109375
0.4598630905151367,0.3800628662109375
0.4539453506469726,0.3597673416137695
0.4539453506469726,0.3597673416137695
0.4691865921020508,0.3795433044433594
0.4691865921020508,0.3795433044433594
0.4486404418945312,0.3672826766967773
0.4486404418945312,0.3672826766967773
0.4664022445678710,0.3677850723266601
0.4664022445678710,0.3677850723266601
0.4592903137207031,0.3792034149169922
0.4592903137207031,0.3792034149169922
0.4542749404907226,0.3598274230957031
0.4542749404907226,0.3598274230957031
0.4697336196899414,0.3801647186279297
0.4697336196899414,0.3801647186279297
0.4494358062744140,0.3683000564575195
0.4494358062744140,0.3683000564575195
0.4674430847167969,0.3691635131835938
0.4674430847167969,0.3691635131835938
0.4605033874511719,0.3809881210327148
0.4605033874511719,0.3809881210327148
0.4557918548583984,0.3620201110839844
0.4557918548583984,0.3620201110839844
0.4714193344116211,0.3830188751220703
0.4714193344116211,0.3830188751220703
0.4514087677001953,0.3711725234985351
0.4514087677001953,0.3711725234985351
0.4697593688964843,0.3728044509887695
0.4697593688964843,0.3728044509887695
0.4625816345214844,0.3845695495605468
0.4756719589233398,0.3845695495605468
0.4581413269042969,0.3655855178833008
0.4581413269042969,0.3655855178833008
0.4734706878662109,0.3863737106323242
0.4734706878662109,0.3863737106323242
0.4534029006958007,0.3739328384399414
0.4534029006958007,0.3739328384399414
0.4713443756103515,0.3751218795776367
0.4713443756103515,0.3751218795776367
0.4636774063110352,0.3861934661865234
0.4636774063110352,0.3861934661865234
0.4590848922729492,0.3666303634643555
0.4590848922729492,0.3666303634643555
0.4740451812744140,0.3870918273925781
0.4740451812744140,0.3870918273925781
0.4535831451416015,0.3739288330078125
0.4535831451416015,0.3739288330078125
0.4713678359985352,0.3751161575317383
0.4713678359985352,0.3751161575317383
0.4634078979492187,0.3859279632568359
0.4634078979492187,0.3859279632568359
0.4591552734375000,0.3664489746093750
0.4591552734375000,0.3664489746093750
0.4739215850830078,0.3872228622436523
0.4739215850830078,0.3872228622436523
0.4538331985473633,0.3740713119506836
0.4538331985473633,0.3740713119506836
0.4717546463012695,0.3758766174316406
0.4717546463012695,0.3758766174316406
0.4639331817626953,0.3866495132446289
0.4639331817626953,0.3866495132446289
0.4599775314331054,0.3677650451660156
0.4599775314331054,0.3677650451660156
0.4748983383178711,0.3888936996459961
0.4700305938720703,0.3888936996459961
0.4549192428588867,0.3756534576416016
0.4549192428588867,0.3756534576416016
0.4730358123779297,0.3779428482055664
0.4730358123779297,0.3779428482055664
0.4650953292846680,0.3888147354125976
0.4650953292846680,0.3888147354125976
0.4614601135253906,0.3699914932250977
0.4614601135253906,0.3699914932250977
0.4763677597045898,0.3914159774780273
0.4763677597045898,0.3914159774780273
0.4565940856933594,0.3780424118041992
0.4565940856933594,0.3780424118041992
0.4746780395507812,0.3807283401489258
0.4746780395507812,0.3807283401489258
0.4667100906372070,0.3913461685180664
0.4667100906372070,0.3913461685180664
0.4632574081420898,0.3727083206176758
0.4632574081420898,0.3727083206176758
0.4779567718505859,0.3939611434936524
0.4779567718505859,0.3939611434936524
0.4581047058105469,0.3803346633911133
0.4581047058105469,0.3803346633911133
0.4762430191040039,0.3831830978393554
0.4762430191040039,0.3831830978393554
0.4679489135742188,0.3934690475463867
0.4679489135742188,0.3934690475463867
0.4646324157714843,0.3749370574951172
0.4646324157714843,0.3749370574951172
0.4791578292846679,0.3961904525756836
0.4791578292846679,0.3961904525756836
0.4593755722045898,0.3821159362792969
0.4593755722045898,0.3821159362792969
0.4775814056396484,0.3852865219116211
0.4775814056396484,0.3852865219116211
0.4690555572509765,0.3953516006469727
0.4690555572509765,0.3953516006469727
0.4660778045654297,0.3770685195922852
0.4660778045654297,0.3770685195922852
0.4804944992065430,0.3984054565429687
0.4804944992065430,0.3984054565429687
0.4607843399047851,0.3840557098388672
0.4607843399047851,0.3840557098388672
0.4790147781372070,0.3876428604125977
0.4790147781372070,0.3876428604125977
0.4704219818115234,0.3975580215454101
0.4704219818115234,0.3975580215454101
0.4676559448242187,0.3793624877929687
0.4676559448242187,0.3793624877929687
0.4819461822509765,0.4009391784667969
0.4819461822509765,0.4009391784667969
0.4623081207275390,0.3864086151123047
0.4623081207275390,0.3864086151123047
0.4642845153808594,0.3796159744262695
0.4642845153808594,0.3796159744262695
0.4642845153808594,0.3815849304199219
0.4834270477294922,0.3974098205566406
0.4705776214599609,0.3974098205566406
0.4660480499267578,0.3939107894897461
0.4660480499267578,0.3939107894897461
0.4749715805053711,0.3841032028198242
0.4749715805053711,0.3841032028198242
0.4769605636596679,0.4005678176879883
0.4769605636596679,0.4005678176879883
0.4619928359985351,0.3774032592773438
0.4619928359985351,0.3774032592773438
0.4793111801147460,0.3905290603637695
0.4793111801147460,0.3905290603637695
0.4599025726318359,0.3836986541748047
0.4599025726318359,0.3836986541748047
0.4673858642578125,0.3718042373657227
0.4673858642578125,0.3718042373657227
0.4682641983032226,0.3869865417480469
0.4682641983032226,0.3869865417480469
0.4534223556518555,0.3640153884887695
0.4534223556518555,0.3640153884887695
0.4714302062988281,0.3787302017211914
0.4714302062988281,0.3787302017211914
0.4531705856323242,0.3736083984375000
0.4531705856323242,0.3736083984375000
0.4623281478881835,0.3642425537109375
0.4623281478881835,0.3642425537109375
0.4644390106201172,0.3813085556030273
0.4644390106201172,0.3813085556030273
0.4507850646972656,0.3599498748779297
0.4507850646972656,0.3599498748779297
0.4697090148925781,0.3762165069580078
0.4697090148925781,0.3762165069580078
0.4520622253417969,0.3719015121459961
0.4520622253417969,0.3719015121459961
0.4619979858398438,0.3636171340942383
0.4619979858398438,0.3636171340942383
0.4644309997558593,0.3812805175781250
0.4644309997558593,0.3812805175781250
0.4512496948242187,0.3603418350219726
0.4512496948242187,0.3603418350219726
0.4704133987426757,0.3772041320800781
0.4704133987426757,0.3772041320800781
0.4528581619262695,0.3730333328247070
0.4528581619262695,0.3730333328247070
0.4631841659545898,0.3654115676879883
0.4631841659545898,0.3654115676879883
0.4656217575073242,0.3832500457763672
0.4656217575073242,0.3832500457763672
0.4529977798461914,0.3628389358520508
0.4529977798461914,0.3628389358520508
0.4722364425659180,0.3803472518920898
0.4722364425659180,0.3803472518920898
0.4549970626831055,0.3761312484741211
0.4549970626831055,0.3761312484741211
0.4655639648437500,0.3689615249633789
0.4655639648437500,0.3689615249633789
0.4678007125854492,0.3866443634033203
0.4678007125854492,0.3866443634033203
0.4552248001098633,0.3659883499145508
0.4552248001098633,0.3659883499145508
0.4742574691772461,0.3833570480346680
0.4742574691772461,0.3833570480346680
0.4563566207885742,0.3783342361450195
0.4563566207885742,0.3783342361450195
0.4669063568115234,0.3708869934082031
0.4519231796264648,0.3708869934082031
0.4685342788696289,0.3877183914184570
0.4750150680541992,0.3877183914184570
0.4556728363037109,0.3666206359863281
0.4590242385864258,0.3666206359863281
0.4746597290039062,0.3837038040161133
0.4627464294433594,0.3837038040161133
0.4564395904541015,0.3782369613647461
0.4725494384765625,0.3782369613647461
0.4669057846069335,0.3709218978881836
0.4669057846069335,0.3709218978881836
0.4683757781982422,0.3876995086669922
0.4683757781982422,0.3876995086669922
0.4557128906250000,0.3666950225830078
0.4557128906250000,0.3666950225830078
0.4747764587402343,0.3841604232788086
0.4747764587402343,0.3841604232788086
0.4566135406494141,0.3788017272949218
0.4566135406494141,0.3788017272949218
0.4676250457763672,0.3719816207885742
0.4676250457763672,0.3719816207885742
0.4690767288208008,0.3888702392578125
0.4690767288208008,0.3888702392578125
0.4568012237548828,0.3682605743408203
0.4568012237548828,0.3682605743408203
0.4759540557861328,0.3860263824462891
0.4759540557861328,0.3860263824462891
0.4576904296875000,0.3806390762329102
0.4576904296875000,0.3806390762329102
0.4691184997558593,0.3742549896240234
0.4691184997558593,0.3742549896240234
0.4704030990600586,0.3911190032958984
0.4704030990600586,0.3911190032958984
0.4583284378051757,0.3706758499145508
0.4583284378051757,0.3706758499145508
0.4776403427124023,0.3886779785156250
0.4776403427124023,0.3886779785156250
0.4591329574584961,0.3830503463745117
0.4591329574584961,0.3830503463745117
0.4707796096801757,0.3769775390625000
0.4707796096801757,0.3769775390625000
0.4719142913818359,0.3936716079711914
0.4719142913818359,0.3936716079711914
0.4599094390869141,0.3731941223144531
0.4599094390869141,0.3731941223144531
0.4793197631835937,0.3911905288696289
0.4793197631835937,0.3911905288696289
0.4605566024780273,0.3852167129516602
0.4605566024780273,0.3852167129516602
0.4723783493041992,0.3793487548828125
0.4569368362426758,0.3793487548828125
0.4730936050415039,0.3957973480224609
0.4730936050415039,0.3957973480224609
0.4614303588867187,0.3753187179565430
0.4614303588867187,0.3753187179565430
0.4805070877075195,0.3933792114257812
0.4805070877075195,0.3933792114257812
0.4616872787475585,0.3871599197387695
0.4616872787475585,0.3871599197387695
0.4737344741821289,0.3815328598022461
0.4737344741821289,0.3815328598022461
0.4744050979614258,0.3978406906127930
0.4744050979614258,0.3978406906127930
0.4627687454223632,0.3775085449218750
0.4627687454223632,0.3775085449218750
0.4820165634155273,0.3956108093261719
0.4820165634155273,0.3956108093261719
0.4628757476806640,0.3892799377441406
0.4628757476806640,0.3892799377441406
0.4752891540527344,0.3840848922729492
0.4752891540527344,0.3840848922729492
0.4758035659790039,0.4001821517944336
0.4758035659790039,0.4001821517944336
0.4642627716064453,0.3800245285034179
0.4642627716064453,0.3800245285034179
0.4835414886474609,0.3981937408447265
0.4835414886474609,0.3981937408447265
0.4643308639526367,0.3914714813232422
0.4643308639526367,0.3914714813232422
0.4768512725830078,0.3863336563110352
0.4768512725830078,0.3863336563110352
0.4768203735351562,0.4017671585083007
0.4768203735351562,0.4017671585083007
0.4650146484375000,0.3807575225830078
0.4650146484375000,0.3807575225830078
0.4831821441650390,0.3970865249633789
0.4831821441650390,0.3970865249633789
0.4621965408325195,0.3877956390380859
0.4621965408325195,0.3877956390380859
0.4732589721679688,0.3800989151000976
0.4732589721679688,0.3800989151000976
0.4710479736328125,0.3924070358276367
0.4710479736328125,0.3924070358276367
0.4577402114868164,0.3688144683837891
0.4577402114868164,0.3688144683837891
0.4746866226196289,0.3839418411254883
0.4746866226196289,0.3839418411254883
0.4535556793212890,0.3744707107543945
0.4535556793212890,0.3744707107543945
0.4652486801147461,0.3679779052734375
0.4652486801147461,0.3679779052734375
0.4640470504760742,0.3820890426635742
0.4640470504760742,0.3820890426635742
0.4523546218872070,0.3608270645141601
0.4523546218872070,0.3608270645141601
0.4707132339477539,0.3780784606933594
0.4707132339477539,0.3780784606933594
0.4505819320678711,0.3701774597167969
0.4505819320678711,0.3701774597167969
0.4636344909667969,0.3653772354125976
0.4636344909667969,0.3653772354125976
0.4628740310668945,0.3802974700927734
0.4628740310668945,0.3802974700927734
0.4519844055175781,0.3601009368896484
0.4519844055175781,0.3601009368896484
0.4707698822021484,0.3780412673950195
0.4707698822021484,0.3780412673950195
0.4508153915405273,0.3704378128051758
0.4508153915405273,0.3704378128051758
0.4644910812377929,0.3663030624389648
0.4644910812377929,0.3663030624389648
0.4635978698730469,0.3815568923950195
0.4635978698730469,0.3815568923950195
0.4531402587890625,0.3616407394409180
0.4531402587890625,0.3616407394409180
0.4721609115600586,0.3802007675170898
0.4721609115600586,0.3802007675170898
0.4523603439331054,0.3727575302124023
0.4523603439331054,0.3727575302124023
0.4665252685546875,0.3693151473999023
0.4665252685546875,0.3693151473999023
0.4655033111572265,0.3848545074462891
0.4655033111572265,0.3848545074462891
0.4555606842041016,0.3651414871215820
0.4555606842041016,0.3651414871215820
0.4744812011718750,0.3836774826049805
0.4744812011718750,0.3836774826049805
0.4543172836303710,0.3759693145751953
0.4543172836303710,0.3759693145751953
0.4684965133666992,0.3722723007202148
0.4684965133666992,0.3722723007202148
0.4670362472534180,0.3870105743408203
0.4670362472534180,0.3870105743408203
0.4568349838256835,0.3670572280883789
0.4568349838256835,0.3670572280883789
0.4753841400146484,0.3849975585937500
0.4753841400146484,0.3849975585937500
0.4547647476196289,0.3767126083374023
0.4547647476196289,0.3767126083374023
0.4689920425415039,0.3727409362792969
0.4526515960693359,0.3727409362792969
0.4671529769897461,0.3871604919433594
0.4671529769897461,0.3871604919433594
0.4569019317626953,0.3669891357421875
0.4569019317626953,0.3669891357421875
0.4753435134887695,0.3850685119628906
0.4753435134887695,0.3850685119628906
0.4546388626098632,0.3765930175781250
0.4546388626098632,0.3765930175781250
0.4694046020507812,0.3732295989990234
0.4694046020507812,0.3732295989990234
0.4672771453857422,0.3877292633056640
0.4672771453857422,0.3877292633056640
0.4575708389282226,0.3679361343383789
0.4575708389282226,0.3679361343383789
0.4760536193847656,0.3863010406494141
0.4760536193847656,0.3863010406494141
0.4555915832519531,0.3781076431274414
0.4555915832519531,0.3781076431274414
0.4707847595214844,0.3751642227172852
0.4707847595214844,0.3751642227172852
0.4684902191162109,0.3897222518920898
0.4684902191162109,0.3897222518920898
0.4590030670166015,0.3702793121337891
0.4590030670166015,0.3702793121337891
0.4775905609130859,0.3887821197509765
0.4775905609130859,0.3887821197509765
0.4570455551147461,0.3804674148559570
0.4570455551147461,0.3804674148559570
0.4725402832031250,0.3777511596679687
0.4725402832031250,0.3777511596679687
0.4700191497802734,0.3923538208007812
0.4700191497802734,0.3923538208007812
0.4607168197631836,0.3729251861572265
0.4607168197631836,0.3729251861572265
0.4791629791259766,0.3914520263671875
0.4791629791259766,0.3914520263671875
0.4585298538208007,0.3829524993896484
0.4585298538208007,0.3829524993896484
0.4742786407470703,0.3805349349975586
0.4742786407470703,0.3805349349975586
0.4713764190673828,0.3948160171508789
0.4713764190673828,0.3948160171508789
0.4622440338134766,0.3752265930175781
0.4622440338134766,0.3752265930175781
0.4805620193481445,0.3937208175659180
0.4805620193481445,0.3937208175659180
0.4596971511840820,0.3849397659301758
0.4596971511840820,0.3849397659301758
0.4757543563842773,0.3827241897583007
0.4757543563842773,0.3827241897583007
0.4725128173828125,0.3968656539916992
0.4725128173828125,0.3968656539916992
0.4636894226074219,0.3773609161376953
0.4636894226074219,0.3773609161376953
0.4818672180175781,0.3960554122924805
0.4818672180175781,0.3960554122924805
0.4609371185302734,0.3870838165283203
0.4609371185302734,0.3870838165283203
0.4773714065551757,0.3850748062133789
0.4773714065551757,0.3850748062133789
0.4738517761230469,0.3991270065307617
0.4738517761230469,0.3991270065307617
0.4652921676635742,0.3798070907592773
0.4652921676635742,0.3798070907592773
0.4833400726318359,0.3985599517822265
0.4833400726318359,0.3985599517822265
0.4624677658081054,0.3894847869873047
0.4624677658081054,0.3894847869873047
0.4790119171142578,0.3876897811889649
0.4790119171142578,0.3876897811889649
0.4751026153564453,0.4016218185424805
0.4751026153564453,0.4016218185424805
0.4667970657348632,0.3820432662963867
0.4667970657348632,0.3820432662963867
0.4844404220581054,0.4005277633666992
0.4844404220581054,0.4005277633666992
0.4631744384765625,0.3906881332397461
0.4631744384765625,0.3906881332397461
0.4793684005737304,0.3877779006958008
0.4793684005737304,0.3877779006958008
0.4739616394042969,0.3994365692138672
0.4739616394042969,0.3994365692138672
0.4646959304809570,0.3908752441406250
0.4798673629760742,0.3908752441406250
0.4676822662353515,0.3748414993286133
0.4676822662353515,0.3748414993286133
0.4737504959106445,0.3905342102050781
0.4737504959106445,0.3905342102050781
0.4543310165405273,0.3697826385498047
0.4543310165405273,0.3697826385498047
0.4736824035644531,0.3779542922973633
0.4736824035644531,0.3779542922973633
0.4563108444213867,0.3782341003417969
0.4563108444213867,0.3782341003417969
0.4606756210327148,0.3641944885253906
0.4606756210327148,0.3641944885253906
0.4679906845092773,0.3823608398437500
0.4679906845092773,0.3823608398437500
0.4504251480102539,0.3638214111328125
0.4504251480102539,0.3638214111328125
0.4709558486938477,0.3739671707153320
0.4709558486938477,0.3739671707153320
0.4544586181640625,0.3756254196166992
0.4498952865600586,0.3663505554199218
0.4498952865600586,0.3695240020751953
0.4670471191406250,0.3682394027709961
0.4670471191406250,0.3682394027709961
0.4617422103881836,0.3813760757446289
0.4617422103881836,0.3813760757446289
0.4547733306884765,0.3617294311523437
0.4547733306884765,0.3617294311523437
0.4717140197753906,0.3810710906982422
0.4717140197753906,0.3810710906982422
0.4509876251220703,0.3711387634277344
0.4509876251220703,0.3711387634277344
0.4686218261718750,0.3705493927001953
0.4686218261718750,0.3705493927001953
0.4633821487426757,0.3838256835937500
0.4633821487426757,0.3838256835937500
0.4568750381469726,0.3648279190063476
0.4568750381469726,0.3648279190063476
0.4738157272338867,0.3845844268798828
0.4738157272338867,0.3845844268798828
0.4533851623535156,0.3747173309326172
0.4533851623535156,0.3747173309326172
0.4709650039672851,0.3743654251098633
0.4709650039672851,0.3743654251098633
0.4653482437133789,0.3873058319091797
0.4653482437133789,0.3873058319091797
0.4589481353759766,0.3677261352539062
0.4589481353759766,0.3677261352539062
0.4754625320434570,0.3872732162475586
0.4754625320434570,0.3872732162475586
0.4545862197875976,0.3765192031860352
0.4545862197875976,0.3765192031860352
0.4721363067626953,0.3756757736206054
0.4721363067626953,0.3756757736206054
0.4658592224121094,0.3880565643310547
0.4658592224121094,0.3880565643310547
0.4593137741088867,0.3681106567382812
0.4593137741088867,0.3681106567382812
0.4754842758178711,0.3873447418212890
0.4754842758178711,0.3873447418212890
0.4546869277954101,0.3763910293579101
0.4546869277954101,0.3763910293579101
0.4720533370971680,0.3757890701293945
0.4720533370971680,0.3757890701293945
0.4656824111938476,0.3880405426025391
0.4656824111938476,0.3880405426025391
0.4596965789794922,0.3683584213256836
0.4596965789794922,0.3683584213256836
0.4757114410400390,0.3879444122314453
0.4757114410400390,0.3879444122314453
0.4551624298095703,0.3770668029785156
0.4551624298095703,0.3770668029785156
0.4729139328002929,0.3769489288330078
0.4729139328002929,0.3769489288330078
0.4664337158203125,0.3894138336181641
0.4664337158203125,0.3894138336181641
0.4608581542968750,0.3700904846191406
0.4608581542968750,0.3700904846191406
0.4767963409423828,0.3901485443115234
0.4767963409423828,0.3901485443115234
0.4564596176147461,0.3789659500122070
0.4564596176147461,0.3789659500122070
0.4744245529174804,0.3794586181640625
0.4744245529174804,0.3794586181640625
0.4677183151245117,0.3916471481323242
0.4677183151245117,0.3916471481323242
0.4625049591064453,0.3725893020629883
0.4625049591064453,0.3725893020629883
0.4784105300903320,0.3928705215454101
0.4784105300903320,0.3928705215454101
0.4581069946289062,0.3814842224121094
0.4581069946289062,0.3814842224121094
0.4761400222778320,0.3821147918701172
0.4761400222778320,0.3821147918701172
0.4692804336547851,0.3942197799682617
0.4692804336547851,0.3942197799682617
0.4642610549926758,0.3749341964721680
0.4642610549926758,0.3749341964721680
0.4799182891845703,0.3954465866088867
0.4799182891845703,0.3954465866088867
0.4595695495605469,0.3837713241577148
0.4595695495605469,0.3837713241577148
0.4776523590087891,0.3845008850097656
0.4776523590087891,0.3845008850097656
0.4705032348632812,0.3963323593139648
0.4705032348632812,0.3963323593139648
0.4656406402587890,0.3769592285156250
0.4656406402587890,0.3769592285156250
0.4811216354370117,0.3975654602050781
0.4811216354370117,0.3975654602050781
0.4608472824096679,0.3855394363403320
0.4608472824096679,0.3855394363403320
0.4789318084716797,0.3866100311279297
0.4789318084716797,0.3866100311279297
0.4715549468994140,0.3981559753417969
0.4715549468994140,0.3981559753417969
0.4670282363891601,0.3789693832397461
0.4670282363891601,0.3789693832397461
0.4823152542114257,0.3996454238891601
0.4823152542114257,0.3996454238891601
0.4621181488037109,0.3873796463012695
0.4773204803466797,0.3873796463012695
0.4803497314453125,0.3888193130493164
0.4803497314453125,0.3888193130493164
0.4727159500122070,0.4003223419189453
0.4727159500122070,0.4003223419189453
0.4685359954833984,0.3813337326049804
0.4685359954833984,0.3813337326049804
0.4837171554565429,0.4021642684936523
0.4837171554565429,0.4021642684936523
0.4635938644409179,0.3894819259643554
0.4635938644409179,0.3894819259643554
0.4817230224609375,0.3910097122192382
0.4817230224609375,0.3910097122192382
0.4737424850463867,0.4018363952636719
0.4737424850463867,0.4018363952636719
0.4692604064941406,0.3818264007568359
0.4692604064941406,0.3818264007568359
0.4831809997558594,0.4011840820312500
0.4831809997558594,0.4011840820312500
0.4616180419921875,0.3856086730957031
0.4616180419921875,0.3856086730957031
0.4779487609863281,0.3845558166503906
0.4779487609863281,0.3845558166503906
0.4679323196411133,0.3920402526855469
0.4679323196411133,0.3920402526855469
0.4617925643920898,0.3694387435913086
0.4617925643920898,0.3694387435913086
0.4743066787719726,0.3872657775878906
0.4743066787719726,0.3872657775878906
0.4527202606201172,0.3716892242431640
0.4527202606201172,0.3716892242431640
0.4698280334472656,0.3721366882324219
0.4698280334472656,0.3721366882324219
0.4607236862182617,0.3814922332763672
0.4607236862182617,0.3814922332763672
0.4564939498901367,0.3615663528442383
0.4564939498901367,0.3615663528442383
0.4704986572265625,0.3818223953247070
0.4704986572265625,0.3818223953247070
0.4503479003906250,0.3677484512329102
0.4503479003906250,0.3677484512329102
0.4683551788330078,0.3699085235595703
0.4683551788330078,0.3699085235595703
0.4600175857543945,0.3802259445190430
0.4600175857543945,0.3802259445190430
0.4563583374023437,0.3613935470581054
0.4563583374023437,0.3613935470581054
0.4707538604736328,0.3824146270751953
0.4707538604736328,0.3824146270751953
0.4508949279785156,0.3683635711669922
0.4508949279785156,0.3683635711669922
0.4691465377807617,0.3712772369384765
0.4691465377807617,0.3712772369384765
0.4607980728149414,0.3815483093261718
0.4607980728149414,0.3815483093261718
0.4577871322631836,0.3630540847778320
0.4577871322631836,0.3630540847778320
0.4722227096557617,0.3846965789794922
0.4722227096557617,0.3846965789794922
0.4527162551879882,0.3708194732666015
0.4527162551879882,0.3708194732666015
0.4712196350097656,0.3745674133300781
0.4712196350097656,0.3745674133300781
0.4629518508911132,0.3849277496337891
0.4629518508911132,0.3849277496337891
0.4602109909057617,0.3669885635375976
0.4602109909057617,0.3669885635375976
0.4745361328125000,0.3884313583374023
0.4745361328125000,0.3884313583374023
0.4550783157348632,0.3740106582641601
0.4550783157348632,0.3740106582641601
0.4731845855712891,0.3774999618530273
0.4731845855712891,0.3774999618530273
0.4644922256469726,0.3871513366699219
0.4644922256469726,0.3871513366699219
0.4616266250610351,0.3687572479248047
0.4616266250610351,0.3687572479248047
0.4752222061157226,0.3894876480102539
0.4752222061157226,0.3894876480102539
0.4554290771484375,0.3744289398193359
0.4554290771484375,0.3744289398193359
0.4734495162963867,0.3778512954711914
0.4734495162963867,0.3778512954711914
0.4644109725952148,0.3869338989257812
0.4644109725952148,0.3869338989257812
0.4615985870361328,0.3687171936035156
0.4615985870361328,0.3687171936035156
0.4752450942993164,0.3895586013793945
0.4752450942993164,0.3895586013793945
0.4554920196533203,0.3743574142456055
0.4554920196533203,0.3743574142456055
0.4737167358398438,0.3784114837646484
0.4737167358398438,0.3784114837646484
0.4646913528442382,0.3875249862670898
0.4646913528442382,0.3875249862670898
0.4623624801635742,0.3696430206298828
0.4623624801635742,0.3696430206298828
0.4758619308471679,0.3909004211425781
0.4758619308471679,0.3909004211425781
0.4563806533813476,0.3757352828979492
0.4563806533813476,0.3757352828979492
0.4749092102050781,0.3804353713989257
0.4749092102050781,0.3804353713989257
0.4658288955688477,0.3895488739013672
0.4793672561645508,0.3895488739013672
0.4638868331909179,0.3719278335571289
0.4638868331909179,0.3719278335571289
0.4774074554443359,0.3934009552001953
0.4774074554443359,0.3934009552001953
0.4580400466918945,0.3780567169189453
0.4580400466918945,0.3780567169189453
0.4766727447509765,0.3830451965332031
0.4766727447509765,0.3830451965332031
0.4673915863037109,0.3918954849243164
0.4673915863037109,0.3918954849243164
0.4656103134155273,0.3747316360473633
0.4656103134155273,0.3747316360473633
0.4790428161621094,0.3959873199462891
0.4790428161621094,0.3959873199462891
0.4595026016235351,0.3804559707641602
0.4595026016235351,0.3804559707641602
0.4781719207763672,0.3857683181762695
0.4781719207763672,0.3857683181762695
0.4687191009521484,0.3940635681152344
0.4687191009521484,0.3940635681152344
0.4670396804809570,0.3771234512329101
0.4670396804809570,0.3771234512329101
0.4802507400512695,0.3981456756591797
0.4802507400512695,0.3981456756591797
0.4608421325683594,0.3821846008300781
0.4608421325683594,0.3821846008300781
0.4793912887573242,0.3878116607666016
0.4793912887573242,0.3878116607666016
0.4698120117187500,0.3958940505981445
0.4698120117187500,0.3958940505981445
0.4683483123779297,0.3790082931518555
0.4683483123779297,0.3790082931518555
0.4814895629882812,0.4000139236450195
0.4814895629882812,0.4000139236450195
0.4618927001953125,0.3840785980224609
0.4618927001953125,0.3840785980224609
0.4808166503906250,0.3900787353515625
0.4808166503906250,0.3900787353515625
0.4710268020629882,0.3979511260986328
0.4710268020629882,0.3979511260986328
0.4697994232177734,0.3812805175781250
0.4697994232177734,0.3812805175781250
0.4826293945312500,0.4024234771728515
0.4826293945312500,0.4024234771728515
0.4632654190063477,0.3861368179321289
0.4632654190063477,0.3861368179321289
0.4824365615844726,0.3925907135009766
0.4824365615844726,0.3925907135009766
0.4722427368164062,0.3999738693237305
0.4722427368164062,0.3999738693237305
0.4711692810058594,0.3833839416503906
0.4711692810058594,0.3833839416503906
0.4837188720703125,0.4038373947143555
0.4837188720703125,0.4038373947143555
0.4636997222900390,0.3865579605102539
0.4636997222900390,0.3865579605102539
0.4820657730102539,0.3916173934936523
0.4820657730102539,0.3916173934936523
0.4701805114746094,0.3961761474609375
0.4701805114746094,0.3961761474609375
0.4675958633422851,0.3772304534912109
0.4675958633422851,0.3772304534912109
0.4780220031738281,0.3944664001464844
0.4780220031738281,0.3944664001464844
0.4562553405761718,0.3745777130126953
0.4562553405761718,0.3745777130126953
0.4736927032470703,0.3785751342773437
0.4736927032470703,0.3785751342773437
0.4615076065063476,0.3829782485961914
0.4615076065063476,0.3829782485961914
0.4542245864868164,0.3746944427490234
0.4701335906982422,0.3746944427490234
0.4650381088256836,0.3676374435424805
0.4650381088256836,0.3676374435424805
0.4653322219848632,0.3829851150512695
0.4653322219848632,0.3829851150512695
0.4528793334960937,0.3618112564086914
0.4528793334960937,0.3618112564086914
0.4717838287353515,0.3791604995727539
0.4717838287353515,0.3791604995727539
0.4527923583984375,0.3725584030151367
0.4527923583984375,0.3725584030151367
0.4644527435302734,0.3667642593383789
0.4644527435302734,0.3667642593383789
0.4651159286499023,0.3827224731445312
0.4651159286499023,0.3827224731445312
0.4532930374145507,0.3622112274169922
0.4532930374145507,0.3622112274169922
0.4723457336425781,0.3800634384155273
0.4723457336425781,0.3800634384155273
0.4534069061279297,0.3735340118408203
0.4534069061279297,0.3735340118408203
0.4656560897827148,0.3682617187500000
0.4656560897827148,0.3682617187500000
0.4661596298217773,0.3842725753784180
0.4661596298217773,0.3842725753784180
0.4546977996826171,0.3643615722656250
0.4546977996826171,0.3643615722656250
0.4740737915039062,0.3826881408691406
0.4740737915039062,0.3826881408691406
0.4551469802856445,0.3762880325317383
0.4551469802856445,0.3762880325317383
0.4678647994995117,0.3716016769409179
0.4678647994995117,0.3716016769409179
0.4681417465209960,0.3875455856323242
0.4681417465209960,0.3875455856323242
0.4569477081298828,0.3676048278808594
0.4569477081298828,0.3676048278808594
0.4761222839355468,0.3859073638916016
0.4761222839355468,0.3859073638916016
0.4567216873168945,0.3787794113159180
0.4567216873168945,0.3787794113159180
0.4694578170776367,0.3738281250000000
0.4694578170776367,0.3738281250000000
0.4692220687866211,0.3892450332641602
0.4692220687866211,0.3892450332641602
0.4580291748046875,0.3687360763549805
0.4580291748046875,0.3687360763549805
0.4766378402709961,0.3866357803344727
0.4766378402709961,0.3866357803344727
0.4569208145141601,0.3789499282836914
0.4569208145141601,0.3789499282836914
0.4698251724243164,0.3742841720581054
0.4698251724243164,0.3742841720581054
0.4691825866699219,0.3892690658569336
0.4691825866699219,0.3892690658569336
0.4580240249633789,0.3688940048217773
0.4580240249633789,0.3688940048217773
0.4768478393554687,0.3869642257690429
0.4768478393554687,0.3869642257690429
0.4571302413940430,0.3794248580932617
0.4571302413940430,0.3794248580932617
0.4705335617065429,0.3751110076904297
0.4705335617065429,0.3751110076904297
0.4697633743286133,0.3903053283691406
0.4697633743286133,0.3903053283691406
0.4590087890625000,0.3703771591186523
0.4590087890625000,0.3703771591186523
0.4780271530151367,0.3887563705444336
0.4780271530151367,0.3887563705444336
0.4580085754394531,0.3811637878417969
0.4580085754394531,0.3811637878417969
0.4720613479614257,0.3773220062255859
0.4720613479614257,0.3773220062255859
0.4709993362426758,0.3925117492675781
0.4709993362426758,0.3925117492675781
0.4606212615966797,0.3727821350097656
0.4606212615966797,0.3727821350097656
0.4794948577880859,0.3913312911987304
0.4794948577880859,0.3913312911987304
0.4594568252563476,0.3835372924804688
0.4594568252563476,0.3835372924804688
0.4737344741821289,0.3799942016601562
0.4737344741821289,0.3799942016601562
0.4724658966064453,0.3951055526733399
0.4724658966064453,0.3951055526733399
0.4621484756469726,0.3752071380615234
0.4621484756469726,0.3752071380615234
0.4810169219970703,0.3937946319580078
0.4810169219970703,0.3937946319580078
0.4606664657592773,0.3858243942260742
0.4606664657592773,0.3858243942260742
0.4753824234008789,0.3825004577636719
0.4753824234008789,0.3825004577636719
0.4735857009887695,0.3971946716308594
0.4735857009887695,0.3971946716308594
0.4636493682861328,0.3774507522583008
0.4636493682861328,0.3774507522583008
0.4823198318481445,0.3958986282348633
0.4823198318481445,0.3958986282348633
0.4618240356445312,0.3876514434814453
0.4618240356445312,0.3876514434814453
0.4768398284912109,0.3845832824707031
0.4768398284912109,0.3845832824707031
0.4746694564819336,0.3991813659667969
0.4746694564819336,0.3991813659667969
0.4650112152099609,0.3794849395751953
0.4650112152099609,0.3794849395751953
0.4836313247680664,0.3979368209838867
0.4836313247680664,0.3979368209838867
0.4630863189697265,0.3897022247314453
0.4630863189697265,0.3897022247314453
0.4784008026123047,0.3869762420654297
0.4784008026123047,0.3869762420654297
0.4760948181152344,0.4014060974121094
0.4760948181152344,0.4014060974121094
0.4667924880981445,0.3820323944091797
0.4667924880981445,0.3820323944091797
0.4851779937744141,0.4005025863647461
0.4851779937744141,0.4005025863647461
0.4645957946777344,0.3921232223510742
0.4645957946777344,0.3921232223510742
0.4802450180053711,0.3896432876586914
0.4802450180053711,0.3896432876586914
0.4772638320922851,0.4037824630737304
0.4772638320922851,0.4037824630737304
0.4681051254272461,0.3839355468750000
0.4681051254272461,0.3839355468750000
0.4861249923706055,0.4017620086669922
0.4861249923706055,0.4017620086669922
0.4644235610961914,0.3916540145874023
0.4644235610961914,0.3916540145874023
0.4792207717895507,0.3874288558959961
0.4792207717895507,0.3874288558959961
0.4742734909057617,0.3986497879028320
0.4836399078369140,0.3986497879028320
0.4634164810180664,0.3757925033569336
0.4634164810180664,0.3757925033569336
0.4793340682983398,0.3909845352172852
0.4793340682983398,0.3909845352172852
0.4562868118286132,0.3788125991821289
0.4562868118286132,0.3788125991821289
0.4710113525390625,0.3742115020751953
0.4710113525390625,0.3742115020751953
0.4659650802612305,0.3862140655517578
0.4659650802612305,0.3862140655517578
0.4563772201538085,0.3649412155151367
0.4563772201538085,0.3649412155151367
0.4734369277954101,0.3824466705322265
0.4734369277954101,0.3824466705322265
0.4520267486572265,0.3723089218139649
0.4520267486572265,0.3723089218139649
0.4680776596069336,0.3697505950927734
0.4680776596069336,0.3697505950927734
0.4637197494506836,0.3830205917358399
0.4637197494506836,0.3830205917358399
0.4553003311157227,0.3632246017456054
0.4553003311157227,0.3632246017456054
0.4729396820068359,0.3816524505615234
0.4729396820068359,0.3816524505615234
0.4518087387084961,0.3722036361694336
0.4518087387084961,0.3722036361694336
0.4685520172119140,0.3702798843383789
0.4685520172119140,0.3702798843383789
0.4642421722412109,0.3838451385498047
0.4642421722412109,0.3838451385498047
0.4563182830810547,0.3644084930419922
0.4563182830810547,0.3644084930419922
0.4738471984863281,0.3834188461303711
0.4738471984863281,0.3834188461303711
0.4530263900756836,0.3739385604858398
0.4530263900756836,0.3739385604858398
0.4702022552490234,0.3728061676025390
0.4702022552490234,0.3728061676025390
0.4658357620239257,0.3866363525390625
0.4658357620239257,0.3866363525390625
0.4584463119506836,0.3675035476684570
0.4584463119506836,0.3675035476684570
0.4760484695434570,0.3869304656982422
0.4760484695434570,0.3869304656982422
0.4553318023681641,0.3775600433349609
0.4553318023681641,0.3775600433349609
0.4727005004882812,0.3764854431152344
0.4727005004882812,0.3764854431152344
0.4677652359008789,0.3898950576782226
0.4677652359008789,0.3898950576782226
0.4604736328125000,0.3701705932617188
0.4604736328125000,0.3701705932617188
0.4773542404174804,0.3892324447631836
0.4773542404174804,0.3892324447631836
0.4564304351806641,0.3789613723754883
0.4564304351806641,0.3789613723754883
0.4736337661743164,0.3776218414306641
0.4736337661743164,0.3776218414306641
0.4681159973144531,0.3903310775756836
0.4681159973144531,0.3903310775756836
0.4608976364135742,0.3704177856445313
0.4608976364135742,0.3704177856445313
0.4774183273315429,0.3894481658935547
0.4774183273315429,0.3894481658935547
0.4564910888671875,0.3789453506469727
0.4564910888671875,0.3789453506469727
0.4738494873046875,0.3778100967407226
0.4738494873046875,0.3778100967407226
0.4679254531860351,0.3905239105224609
0.4679254531860351,0.3905239105224609
0.4612936019897461,0.3709144592285156
0.4612936019897461,0.3709144592285156
0.4778503417968750,0.3904449462890625
0.4778503417968750,0.3904449462890625
0.4570838928222656,0.3798797607421875
0.4570838928222656,0.3798797607421875
0.4748165130615234,0.3794134140014648
0.4748165130615234,0.3794134140014648
0.4688764572143554,0.3922788619995117
0.4688764572143554,0.3922788619995117
0.4626405715942383,0.3726579666137695
0.4626405715942383,0.3726579666137695
0.4790336608886718,0.3926971435546875
0.4790336608886718,0.3926971435546875
0.4584835052490234,0.3820020675659180
0.4584835052490234,0.3820020675659180
0.4763311386108398,0.3818475723266602
0.4763311386108398,0.3818475723266602
0.4701192855834961,0.3945997238159180
0.4701192855834961,0.3945997238159180
0.4643915176391601,0.3750623703002929
0.4643915176391601,0.3750623703002929
0.4805351257324219,0.3952795028686523
0.4805351257324219,0.3952795028686523
0.4600278854370117,0.3843046188354492
0.4600278854370117,0.3843046188354492
0.4780099868774414,0.3845575332641601
0.4780099868774414,0.3845575332641601
0.4714565277099609,0.3968948364257812
0.4839941024780273,0.3968948364257812
0.4659227371215820,0.3774616241455078
0.4659227371215820,0.3774616241455078
0.4819581985473633,0.3977371215820312
0.4819581985473633,0.3977371215820312
0.4614578247070312,0.3863164901733399
0.4614578247070312,0.3863164901733399
0.4794158935546875,0.3865917205810547
0.4794158935546875,0.3865917205810547
0.4725139617919922,0.3987567901611328
0.4725139617919922,0.3987567901611328
0.4673332214355468,0.3794076919555664
0.4673332214355468,0.3794076919555664
0.4829355239868164,0.3997037887573242
0.4829355239868164,0.3997037887573242
0.4626617431640625,0.3881200790405273
0.4626617431640625,0.3881200790405273
0.4806238174438476,0.3887969970703125
0.4806238174438476,0.3887969970703125
0.4736188888549804,0.4007537841796875
0.4736188888549804,0.4007537841796875
0.4687528610229492,0.3814607620239258
0.4687528610229492,0.3814607620239258
0.4843191146850586,0.4022243499755859
0.4843191146850586,0.4022243499755859
0.4641695022583008,0.3902721405029297
0.4641695022583008,0.3902721405029297
0.4823438644409179,0.3913702011108398
0.4823438644409179,0.3913702011108398
0.4750883102416992,0.4030923843383789
0.4750883102416992,0.4030923843383789
0.4705816268920898,0.3840145111083984
0.4705816268920898,0.3840145111083984
0.4858303070068359,0.4048570632934570
0.4858303070068359,0.4048570632934570
0.4656847000122070,0.3925123214721680
0.4656847000122070,0.3925123214721680
0.4837251663208008,0.3936058044433594
0.4837251663208008,0.3936058044433594
0.4759214401245117,0.4045589447021484
0.4759214401245117,0.4045589447021484
0.4709644317626953,0.3841449737548828
0.4709644317626953,0.3841449737548828
0.4850612640380859,0.4032537460327149
0.4850612640380859,0.4032537460327149
0.4633008956909179,0.3879426956176757
0.4633008956909179,0.3879426956176757
0.4796379089355469,0.3865190505981445
0.4796379089355469,0.3865190505981445
0.4698045730590820,0.3942644119262695
0.4698045730590820,0.3942644119262695
0.4634805679321289,0.3718809127807617
0.4634805679321289,0.3718809127807617
0.4766510009765625,0.3903488159179687
0.4766510009765625,0.3903488159179687
0.4551778793334961,0.3751127243041992
0.4551778793334961,0.3751127243041992
0.4723239898681640,0.3755493164062500
0.4723239898681640,0.3755493164062500
0.4635629653930664,0.3851160049438476
0.4635629653930664,0.3851160049438476
0.4590929031372070,0.3652799606323242
0.4590929031372070,0.3652799606323242
0.4651491165161132,0.3681283950805664
0.4651491165161132,0.3681283950805664
0.4738763809204101,0.3866792678833008
0.4711458206176757,0.3866792678833008
0.4548391342163086,0.3660461425781250
0.4548391342163086,0.3660461425781250
0.4741350173950195,0.3806871414184570
0.4607883453369140,0.3806871414184570
0.4570426940917969,0.3788005828857422
0.4570426940917969,0.3788005828857422
0.4658615112304687,0.3689352035522461
0.4658615112304687,0.3689352035522461
0.4698348999023437,0.3878505706787109
0.4698348999023437,0.3878505706787109
0.4558359146118164,0.3674451828002930
0.4558359146118164,0.3674451828002930
0.4753526687622070,0.3828981399536133
0.4753526687622070,0.3828981399536133
0.4585166931152344,0.3809572219848633
0.4585166931152344,0.3809572219848633
0.4678138732910156,0.3717716217041016
0.4678138732910156,0.3717716217041016
0.4717861175537109,0.3909307479858398
0.4717861175537109,0.3909307479858398
0.4581985473632812,0.3707101821899414
0.4581985473632812,0.3707101821899414
0.4775648117065430,0.3866174697875976
0.4775648117065430,0.3866174697875976
0.4607454299926758,0.3842903137207031
0.4607454299926758,0.3842903137207031
0.4700386047363281,0.3751968383789062
0.4700386047363281,0.3751968383789062
0.4734626770019531,0.3937105178833007
0.4734626770019531,0.3937105178833007
0.4597675323486328,0.3727924346923828
0.4597675323486328,0.3727924346923828
0.4788116455078125,0.3884868621826172
0.4788116455078125,0.3884868621826172
0.4615036010742187,0.3852619171142578
0.4615036010742187,0.3852619171142578
0.4706680297851562,0.3760053634643555
0.4562679290771484,0.3760053634643555
0.4736623764038086,0.3940206527709961
0.4736623764038086,0.3940206527709961
0.4600461959838867,0.3729125976562500
0.4600461959838867,0.3729125976562500
0.4788242340087890,0.3888221740722656
0.4788242340087890,0.3888221740722656
0.4614664077758789,0.3853042602539062
0.4614664077758789,0.3853042602539062
0.4709066390991211,0.3764179229736328
0.4709066390991211,0.3764179229736328
0.4736600875854492,0.3943639755249023
0.4736600875854492,0.3943639755249023
0.4605096817016601,0.3735254287719726
0.4605096817016601,0.3735254287719726
0.4794748306274414,0.3900054931640625
0.4794748306274414,0.3900054931640625
0.4622709274291992,0.3863960266113281
0.4622709274291992,0.3863960266113281
0.4720602035522461,0.3779834747314453
0.4720602035522461,0.3779834747314453
0.4747140884399414,0.3962076187133789
0.4747140884399414,0.3962076187133789
0.4616437911987304,0.3754600524902343
0.4616437911987304,0.3754600524902343
0.4809528350830078,0.3923835754394531
0.4809528350830078,0.3923835754394531
0.4633769989013672,0.3884799957275391
0.4633769989013672,0.3884799957275391
0.4736251831054688,0.3806974411010742
0.4736251831054688,0.3806974411010742
0.4761302947998047,0.3985845565795899
0.4761302947998047,0.3985845565795899
0.4632946014404297,0.3778587341308594
0.4632946014404297,0.3778587341308594
0.4825492858886719,0.3950935363769531
0.4825492858886719,0.3950935363769531
0.4649208068847656,0.3908088684082031
0.4649208068847656,0.3908088684082031
0.4751066207885742,0.3832168579101562
0.4751066207885742,0.3832168579101562
0.4776025772094726,0.4009855270385742
0.4776025772094726,0.4009855270385742
0.4647514343261718,0.3802173614501953
0.4647514343261718,0.3802173614501953
0.4839912414550781,0.3974864959716797
0.4839912414550781,0.3974864959716797
0.4661882400512695,0.3928207397460937
0.4661882400512695,0.3928207397460937
0.4767608642578125,0.3855846405029297
0.4767608642578125,0.3855846405029297
0.4786119461059570,0.4028657913208007
0.4786119461059570,0.4028657913208007
0.4661098480224609,0.3820655822753906
0.4661098480224609,0.3820655822753906
0.4852094650268555,0.3997226715087890
0.4852094650268555,0.3997226715087890
0.4672760009765625,0.3945991516113281
0.4672760009765625,0.3945991516113281
0.4781839370727539,0.3877481460571289
0.4781839370727539,0.3877481460571289
0.4798490524291992,0.4049537658691406
0.4798490524291992,0.4049537658691406
0.4675426483154297,0.3843732833862304
0.4675426483154297,0.3843732833862304
0.4867504119873047,0.4020681381225586
0.4867504119873047,0.4020681381225586
0.4686338424682617,0.3967947006225586
0.4686338424682617,0.3967947006225586
0.4797740936279297,0.3903259277343750
0.4797740936279297,0.3903259277343750
0.4812984466552734,0.4073450088500977
0.4812984466552734,0.4073450088500977
0.4690967559814453,0.3867136001586914
0.4690967559814453,0.3867136001586914
0.4883485794067383,0.4046213150024414
0.4883485794067383,0.4046213150024414
0.4698211669921875,0.3989078521728516
0.4698211669921875,0.3989078521728516
0.4811107635498046,0.3922920227050781
0.4811107635498046,0.3922920227050781
0.4819673538208007,0.4082176208496094
0.4819673538208007,0.4082176208496094
0.4690246582031250,0.3862586975097656
0.4690246582031250,0.3862586975097656
0.4870456695556640,0.4019422531127930
0.4870456695556640,0.4019422531127930
0.4665178298950195,0.3930593490600586
0.4665178298950195,0.3930593490600586
0.4763734817504883,0.3839653015136719
0.4763734817504883,0.3839653015136719
0.4750213623046875,0.3969148635864257
0.4750213623046875,0.3969148635864257
0.4609382629394531,0.3731082916259765
0.4609382629394531,0.3731082916259765
0.4784173965454102,0.3886013031005859
0.4784173965454102,0.3886013031005859
0.4581928253173828,0.3802906036376953
0.4581928253173828,0.3802906036376953
0.4692180633544922,0.3731306076049805
0.4692180633544922,0.3731306076049805
0.4691402435302734,0.3882625579833984
0.4691402435302734,0.3882625579833984
0.4568035125732421,0.3670680999755859
0.4568035125732421,0.3670680999755859
0.4755094528198242,0.3845506668090820
0.4755094528198242,0.3845506668090820
0.4562845230102539,0.3775337219238281
0.4562845230102539,0.3775337219238281
0.4684564590454101,0.3721149444580078
0.4684564590454101,0.3721149444580078
0.4688484191894531,0.3879129409790039
0.4688484191894531,0.3879129409790039
0.4572120666503906,0.3675865173339843
0.4572120666503906,0.3675865173339843
0.4763883590698242,0.3857402801513672
0.4763883590698242,0.3857402801513672
0.4571496963500976,0.3788618087768554
0.4571496963500976,0.3788618087768554
0.4699195861816406,0.3741336822509765
0.4699195861816406,0.3741336822509765
0.4701873779296875,0.3901016235351563
0.4701873779296875,0.3901016235351563
0.4589550018310546,0.3702272415161132
0.4589550018310546,0.3702272415161132
0.4785032272338867,0.3888936996459961
0.4785032272338867,0.3888936996459961
0.4592170715332031,0.3822235107421875
0.4592170715332031,0.3822235107421875
0.4724224090576172,0.3779657363891601
0.4724224090576172,0.3779657363891601
0.4722787857055664,0.3938404083251953
0.4722787857055664,0.3938404083251953
0.4613748550415039,0.3737628936767578
0.4633054733276367,0.3737628936767578
0.4805116653442383,0.3920814514160156
0.4805116653442383,0.3920814514160156
0.4607774734497070,0.3846576690673828
0.4607774734497070,0.3846576690673828
0.4740228652954102,0.3801315307617187
0.4740228652954102,0.3801315307617187
0.4731891632080078,0.3951759338378906
0.4731891632080078,0.3951759338378906
0.4621742248535156,0.3747425079345703
0.4621742248535156,0.3747425079345703
0.4809448242187500,0.3926010131835938
0.4809448242187500,0.3926010131835938
0.4606836318969726,0.3846153259277343
0.4606836318969726,0.3846153259277343
0.4742277145385742,0.3802562713623047
0.4742277145385742,0.3802562713623047
0.4731061935424805,0.3950254440307617
0.4731061935424805,0.3950254440307617
0.4623092651367187,0.3748106002807617
0.4623092651367187,0.3748106002807617
0.4810861587524414,0.3928453445434570
0.4810861587524414,0.3928453445434570
0.4608180999755859,0.3849403381347656
0.4608180999755859,0.3849403381347656
0.4748823165893554,0.3810728073120117
0.4748823165893554,0.3810728073120117
0.4735038757324219,0.3960245132446289
0.4735038757324219,0.3960245132446289
0.4632671356201172,0.3761272430419922
0.4632671356201172,0.3761272430419922
0.4820955276489258,0.3944692611694336
0.4820955276489258,0.3944692611694336
0.4617776870727539,0.3865819931030273
0.4617776870727539,0.3865819931030273
0.4763248443603516,0.3831424713134766
0.4763248443603516,0.3831424713134766
0.4746088027954101,0.3979991912841797
0.4746088027954101,0.3979991912841797
0.4646072387695312,0.3782901763916016
0.4646072387695312,0.3782901763916016
0.4833932876586914,0.3967243194580078
0.4833932876586914,0.3967243194580078
0.4629501342773437,0.3887563705444336
0.4629501342773437,0.3887563705444336
0.4779155731201172,0.3855703353881836
0.4779155731201172,0.3855703353881836
0.4759477615356445,0.4002582550048828
0.4856208801269531,0.4002582550048828
0.4660932540893554,0.3806699752807617
0.4660932540893554,0.3806699752807617
0.4847305297851562,0.3991350173950195
0.4847305297851562,0.3991350173950195
0.4642593383789062,0.3907384872436523
0.4642593383789062,0.3907384872436523
0.4794754028320312,0.3878923416137695
0.4794754028320312,0.3878923416137695
0.4769153594970703,0.4023885726928711
0.4769153594970703,0.4023885726928711
0.4674619674682617,0.3826011657714843
0.4674619674682617,0.3826011657714843
0.4859676361083984,0.4010427474975586
0.4859676361083984,0.4010427474975586
0.4651319503784179,0.3925186157226562
0.4651319503784179,0.3925186157226562
0.4808567047119141,0.3899110794067382
0.4808567047119141,0.3899110794067382
0.4779596328735352,0.4040708541870117
0.4779596328735352,0.4040708541870117
0.4687602996826172,0.3844459533691406
0.4687602996826172,0.3844459533691406
0.4871160507202148,0.4029979705810547
0.4781639099121093,0.4029979705810547
0.4663095474243164,0.3943914413452148
0.4663095474243164,0.3943914413452148
0.4823112487792969,0.3919916152954102
0.4823112487792969,0.3919916152954102
0.4791349411010742,0.4062498092651367
0.4791349411010742,0.4062498092651367
0.4702394485473633,0.3866952896118164
0.4702394485473633,0.3866952896118164
0.4884172439575195,0.4052930831909179
0.4884172439575195,0.4052930831909179
0.4676708221435547,0.3964542388916015
0.4676708221435547,0.3964542388916015
0.4839076995849609,0.3943416595458984
0.4839076995849609,0.3943416595458984
0.4803314208984375,0.4082216262817382
0.4803314208984375,0.4082216262817382
0.4717065811157226,0.3885475158691406
0.4717065811157226,0.3885475158691406
0.4893739700317383,0.4068105697631836
0.4893739700317383,0.4068105697631836
0.4677984237670898,0.3965772628784179
0.4677984237670898,0.3965772628784179
0.4833709716796875,0.3927778244018554
0.4833709716796875,0.3927778244018554
0.4779047012329101,0.4040834426879883
0.4779047012329101,0.4040834426879883
0.4676868438720703,0.3815065383911133
0.4676868438720703,0.3815065383911133
0.4833189010620117,0.3967729568481445
0.4833189010620117,0.3967729568481445
0.4601446151733398,0.3839813232421875
0.4601446151733398,0.3839813232421875
0.4749332427978515,0.3794357299804688
0.4749332427978515,0.3794357299804688
0.4689725875854492,0.3907178878784179
0.4689725875854492,0.3907178878784179
0.4599683761596680,0.3695777893066406
0.4599683761596680,0.3695777893066406
0.4765073776245117,0.3869808197021484
0.4765073776245117,0.3869808197021484
0.4551280975341797,0.3764928817749023
0.4551280975341797,0.3764928817749023
0.4715457916259765,0.3743900299072265
0.4715457916259765,0.3743900299072265
0.4664960861206054,0.3872119903564453
0.4664960861206054,0.3872119903564453
0.4587478637695312,0.3674577713012695
0.4587478637695312,0.3674577713012695
0.4759225845336914,0.3863079071044922
0.4759225845336914,0.3863079071044922
0.4548688888549804,0.3764259338378906
0.4548688888549804,0.3764259338378906
0.4721380233764648,0.3750143051147461
0.4553306579589844,0.3750143051147461
0.4671340942382812,0.3882299423217773
0.4786502838134765,0.3882299423217773
0.4598779678344727,0.3688350677490234
0.4598779678344727,0.3688350677490234
0.4770298004150391,0.3879312515258789
0.4770298004150391,0.3879312515258789
0.4563028335571289,0.3783113479614258
0.4563028335571289,0.3783113479614258
0.4738821029663086,0.3776247024536133
0.4738821029663086,0.3776247024536133
0.4688283920288085,0.3911951065063476
0.4688283920288085,0.3911951065063476
0.4620918273925781,0.3720148086547851
0.4620918273925781,0.3720148086547851
0.4791938781738281,0.3917364120483398
0.4791938781738281,0.3917364120483398
0.4584669113159179,0.3815866470336914
0.4584669113159179,0.3815866470336914
0.4761056900024414,0.3810327529907226
0.4761056900024414,0.3810327529907226
0.4705884933471680,0.3939863204956054
0.4705884933471680,0.3939863204956054
0.4639509201049805,0.3743591308593750
0.4639509201049805,0.3743591308593750
0.4801946640014648,0.3937339782714844
0.4801946640014648,0.3937339782714844
0.4594013214111328,0.3827791213989258
0.4594013214111328,0.3827791213989258
0.4768100738525390,0.3819894790649414
0.4768100738525390,0.3819894790649414
0.4707801818847656,0.3941442489624024
0.4707801818847656,0.3941442489624024
0.4640853881835937,0.3743442535400390
0.4640853881835937,0.3743442535400390
0.4801614761352539,0.3937442779541016
0.4801614761352539,0.3937442779541016
0.4592548370361328,0.3825588226318359
0.4592548370361328,0.3825588226318359
0.4768358230590820,0.3820335388183594
0.4768358230590820,0.3820335388183594
0.4705404281616211,0.3943078994750976
0.4705404281616211,0.3943078994750976
0.4645282745361328,0.3747430801391601
0.4645282745361328,0.3747430801391601
0.4804733276367187,0.3947118759155273
0.4738523483276367,0.3947118759155273
0.4599769592285156,0.3834119796752929
0.4599769592285156,0.3834119796752929
0.4777038574218750,0.3835149765014648
0.4777038574218750,0.3835149765014648
0.4714748382568359,0.3957178115844727
0.4714748382568359,0.3957178115844727
0.4657367706298828,0.3764636993408203
0.4657367706298828,0.3764636993408203
0.4817390441894531,0.3967695236206055
0.4817390441894531,0.3967695236206055
0.4613714218139648,0.3854324340820313
0.4613714218139648,0.3854324340820313
0.4791904449462890,0.3858472824096680
0.4791904449462890,0.3858472824096680
0.4728384017944336,0.3980861663818359
0.4728384017944336,0.3980861663818359
0.4675271987915039,0.3791021347045898
0.4675271987915039,0.3791021347045898
0.4832445144653320,0.3996128082275390
0.4832445144653320,0.3996128082275390
0.4630474090576172,0.3878557205200195
0.4630474090576172,0.3878557205200195
0.4809202194213867,0.3887031555175781
0.4809202194213867,0.3887031555175781
0.4742597579956054,0.4006135940551758
0.4742597579956054,0.4006135940551758
0.4692426681518554,0.3815145492553711
0.4692426681518554,0.3815145492553711
0.4847236633300781,0.4022163391113281
0.4847236633300781,0.4022163391113281
0.4645809173583984,0.3900306701660156
0.4645809173583984,0.3900306701660156
0.4824743270874023,0.3910520553588867
0.4824743270874023,0.3910520553588867
0.4754384994506836,0.4027067184448242
0.4754384994506836,0.4027067184448242
0.4706686019897461,0.3834251403808593
0.4706686019897461,0.3834251403808593
0.4858697891235351,0.4043203353881836
0.4858697891235351,0.4043203353881836
0.4657196044921875,0.3918170928955078
0.4657196044921875,0.3918170928955078
0.4837039947509765,0.3930730819702148
0.4837039947509765,0.3930730819702148
0.4764541625976562,0.4044221878051757
0.4764541625976562,0.4044221878051757
0.4719337463378906,0.3853746414184570
0.4719337463378906,0.3853746414184570
0.4871017456054687,0.4064071655273437
0.4871017456054687,0.4064071655273437
0.4670076370239258,0.3936498641967773
0.4670076370239258,0.3936498641967773
0.4851053237915039,0.3954351425170898
0.4851053237915039,0.3954351425170898
0.4775722503662109,0.4066743850708008
0.4775722503662109,0.4066743850708008
0.4734609603881836,0.3877555847167969
0.4734609603881836,0.3877555847167969
0.4884378433227539,0.4088001251220703
0.4884378433227539,0.4088001251220703
0.4684198379516601,0.3956262588500977
0.4684198379516601,0.3956262588500977
0.4863338470458984,0.3974075317382812
0.4863338470458984,0.3974075317382812
0.4783321380615234,0.4075326919555664
0.4783321380615234,0.4075326919555664
0.4736938476562500,0.3874443054199219
0.4736938476562500,0.3874443054199219
0.4871589660644531,0.4065776824951172
0.4871589660644531,0.4065776824951172
0.4656183242797851,0.3902664184570312
0.4656183242797851,0.3902664184570312
0.4817207336425781,0.3896570205688477
0.4817207336425781,0.3896570205688477
0.4715366363525391,0.3966522216796875
0.4715366363525391,0.3966522216796875
0.4657333374023437,0.3745611190795898
0.4657333374023437,0.3745611190795898
0.4786685943603515,0.3933460235595703
0.4786685943603515,0.3933460235595703
0.4574941635131836,0.3774484634399414
0.4574941635131836,0.3774484634399414
0.4744371414184570,0.3788206100463867
0.4574655532836914,0.3788206100463867
0.4654031753540039,0.3876628875732422
0.4654031753540039,0.3876628875732422
0.4615751266479492,0.3682983398437500
0.4615751266479492,0.3682983398437500
0.4756216049194336,0.3888473510742188
0.4756216049194336,0.3888473510742188
0.4554668426513672,0.3741983413696289
0.4554668426513672,0.3741983413696289
0.4733373641967773,0.3771314620971680
0.4733373641967773,0.3771314620971680
0.4648315429687500,0.3868749618530273
0.4648315429687500,0.3868749618530273
0.4616884231567382,0.3683338165283203
0.4616884231567382,0.3683338165283203
0.4761114120483398,0.3894384384155273
0.4761114120483398,0.3894384384155273
0.4562301635742188,0.3749073028564453
0.4562301635742188,0.3749073028564453
0.4743850708007812,0.3785047531127930
0.4579633712768554,0.3785047531127930
0.4657945632934570,0.3881687164306640
0.4657945632934570,0.3881687164306640
0.4631114959716797,0.3700756072998047
0.4631114959716797,0.3700756072998047
0.4774583816528320,0.3917896270751953
0.4774583816528320,0.3917896270751953
0.4579124450683594,0.3773403167724609
0.4579124450683594,0.3773403167724609
0.4764335632324219,0.3816753387451172
0.4764335632324219,0.3816753387451172
0.4678030014038086,0.3914434432983399
0.4678030014038086,0.3914434432983399
0.4653310775756836,0.3736856460571289
0.4653310775756836,0.3736856460571289
0.4795520782470703,0.3952165603637695
0.4795520782470703,0.3952165603637695
0.4598676681518554,0.3801595687866211
0.4598676681518554,0.3801595687866211
0.4782772064208984,0.3844081878662109
0.4782772064208984,0.3844081878662109
0.4689308166503906,0.3933013916015625
0.4689308166503906,0.3933013916015625
0.4665143966674805,0.3752008438110351
0.4665143966674805,0.3752008438110351
0.4801849365234375,0.3961750030517578
0.4801849365234375,0.3961750030517578
0.4602842330932617,0.3804376602172851
0.4602842330932617,0.3804376602172851
0.4784929275512695,0.3849042892456054
0.4784929275512695,0.3849042892456054
0.4690200805664062,0.3933929443359375
0.4690200805664062,0.3933929443359375
0.4666391372680664,0.3754251480102539
0.4666391372680664,0.3754251480102539
0.4803022384643554,0.3965188980102539
0.4803022384643554,0.3965188980102539
0.4605354309082031,0.3807174682617188
0.4605354309082031,0.3807174682617188
0.4789867401123047,0.3856481552124023
0.4789867401123047,0.3856481552124023
0.4694492340087890,0.3941053390502929
0.4694492340087890,0.3941053390502929
0.4676725387573242,0.3768064498901367
0.4676725387573242,0.3768064498901367
0.4812057495117187,0.3980163574218750
0.4812057495117187,0.3980163574218750
0.4615888595581055,0.3822252273559570
0.4615888595581055,0.3822252273559570
0.4802358627319336,0.3877389907836914
0.4802358627319336,0.3877389907836914
0.4706216812133789,0.3960800170898438
0.4706216812133789,0.3960800170898438
0.4691345214843750,0.3792240142822266
0.4691345214843750,0.3792240142822266
0.4826087951660156,0.4004659652709961
0.4826087951660156,0.4004659652709961
0.4629535675048828,0.3844865798950195
0.4629535675048828,0.3844865798950195
0.4818798065185547,0.3904071807861328
0.4818798065185547,0.3904071807861328
0.4720132827758789,0.3984415054321289
0.4720132827758789,0.3984415054321289
0.4707292556762695,0.3818063735961914
0.4707292556762695,0.3818063735961914
0.4839952468872070,0.4030117034912109
0.4839952468872070,0.4030117034912109
0.4643955230712891,0.3868446350097656
0.4643955230712891,0.3868446350097656
0.4834819793701172,0.3929849624633789
0.4834819793701172,0.3929849624633789
0.4732583999633789,0.4007154464721679
0.4732583999633789,0.4007154464721679
0.4722284317016601,0.3843149185180664
0.4722284317016601,0.3843149185180664
0.4853261947631836,0.4052953720092773
0.4853261947631836,0.4052953720092773
0.4656852722167968,0.3888908386230469
0.4656852722167968,0.3888908386230469
0.4851110458374023,0.3952651977539062
0.4851110458374023,0.3952651977539062
0.4745321273803711,0.4027742385864257
0.4745321273803711,0.4027742385864257
0.4736869812011719,0.3866643905639648
0.4736869812011719,0.3866643905639648
0.4864551544189453,0.4074817657470703
0.4864551544189453,0.4074817657470703
0.4670127868652343,0.3910177230834961
0.4670127868652343,0.3910177230834961
0.4864900588989258,0.3977256774902344
0.4864900588989258,0.3977256774902344
0.4758361816406250,0.4048828125000000
0.4758361816406250,0.4048828125000000
0.4753011703491211,0.3890830993652344
0.4753011703491211,0.3890830993652344
0.4880567550659179,0.4099061965942383
0.4880567550659179,0.4099061965942383
0.4685085296630859,0.3934844970703125
0.4685085296630859,0.3934844970703125
0.4881288528442382,0.4005489349365234
0.4881288528442382,0.4005489349365234
0.4772838592529297,0.4073661804199218
0.4772838592529297,0.4073661804199218
0.4770503997802734,0.3917467117309570
0.4694114685058594,0.3917467117309570
0.4892675399780273,0.4121664047241211
0.4892675399780273,0.4121664047241211
0.4694978713989257,0.3949464797973632
0.4694978713989257,0.3949464797973632
0.4888395309448242,0.4007829666137695
0.4888395309448242,0.4007829666137695
0.4763168334960937,0.4054195404052734
0.4763168334960937,0.4054195404052734
0.4746831893920898,0.3873619079589843
0.4746831893920898,0.3873619079589843
0.4847917556762695,0.4045251846313476
0.4847917556762695,0.4045251846313476
0.4631280899047852,0.3842559814453125
0.4631280899047852,0.3842559814453125
0.4808401107788086,0.3879089355468750
0.4808401107788086,0.3879089355468750
0.4670991897583008,0.3910079956054687
0.4670991897583008,0.3910079956054687
0.4657333374023437,0.3735111236572266
0.4657333374023437,0.3735111236572266
0.4764936447143555,0.3920225143432617
0.4764936447143555,0.3920225143432617
0.4560842514038086,0.3739288330078125
0.4560842514038086,0.3739288330078125
0.4757572174072265,0.3803764343261719
0.4757572174072265,0.3803764343261719
0.4633495330810546,0.3854324340820313
0.4633495330810546,0.3854324340820313
0.4634387969970703,0.3701585769653320
0.4634387969970703,0.3701585769653320
0.4749744415283203,0.3896661758422851
0.4749744415283203,0.3896661758422851
0.4553981781005859,0.3726202011108398
0.4553981781005859,0.3726202011108398
0.4756484985351562,0.3801492691040039
0.4756484985351562,0.3801492691040039
0.4632734298706054,0.3855903625488281
0.4632734298706054,0.3855903625488281
0.4640727996826172,0.3707479476928711
0.4640727996826172,0.3707479476928711
0.4754270553588867,0.3906028747558594
0.4754270553588867,0.3906028747558594
0.4562072753906250,0.3738412857055664
0.4562072753906250,0.3738412857055664
0.4596193313598633,0.3684482574462891
0.4596193313598633,0.3684482574462891
0.4596193313598633,0.3704973220825195
0.4787916183471679,0.3890745162963867
0.4787916183471679,0.3890745162963867
0.4591318130493164,0.3821668624877930
0.4591318130493164,0.3821668624877930
0.4729642868041992,0.3779994964599609
0.4729642868041992,0.3779994964599609
0.4724664688110352,0.3935079574584961
0.4724664688110352,0.3935079574584961
0.4618371963500976,0.3735946655273437
0.4618371963500976,0.3735946655273437
0.4807668685913086,0.3916946411132812
0.4807668685913086,0.3916946411132812
0.4607254028320312,0.3843229293823242
0.4607254028320312,0.3843229293823242
0.4745670318603515,0.3799644470214844
0.4745670318603515,0.3799644470214844
0.4732109069824219,0.3947044372558594
0.4732109069824219,0.3947044372558594
0.4625141143798828,0.3742561340332031
0.4625141143798828,0.3742561340332031
0.4809831619262695,0.3919023513793945
0.4809831619262695,0.3919023513793945
0.4605371475219726,0.3838937759399414
0.4605371475219726,0.3838937759399414
0.4744520187377930,0.3794494628906250
0.4744520187377930,0.3794494628906250
0.4726913452148437,0.3940017700195312
0.4726913452148437,0.3940017700195312
0.4621816635131836,0.3737874984741211
0.4621816635131836,0.3737874984741211
0.4806987762451171,0.3915784835815430
0.4806987762451171,0.3915784835815430
0.4601171493530273,0.3835206985473633
0.4601171493530273,0.3835206985473633
0.4744503021240234,0.3797418594360352
0.4744503021240234,0.3797418594360352
0.4726192474365234,0.3943857192993164
0.4726192474365234,0.3943857192993164
0.4625753402709961,0.3745016098022461
0.4625753402709961,0.3745016098022461
0.4812858581542969,0.3926433563232422
0.4812858581542969,0.3926433563232422
0.4607717514038085,0.3846130371093750
0.4607717514038085,0.3846130371093750
0.4757280349731445,0.3813034057617187
0.4757280349731445,0.3813034057617187
0.4735118865966796,0.3961755752563477
0.4735118865966796,0.3961755752563477
0.4639589309692382,0.3762428283691406
0.4639589309692382,0.3762428283691406
0.4824926376342773,0.3945991516113281
0.4824926376342773,0.3945991516113281
0.4619562149047851,0.3865951538085937
0.4782709121704101,0.3865951538085937
0.4771940231323242,0.3836351394653320
0.4771940231323242,0.3836351394653320
0.4747730255126953,0.3983533859252930
0.4747730255126953,0.3983533859252930
0.4655187606811523,0.3786191940307617
0.4655187606811523,0.3786191940307617
0.4840290069580078,0.3970487594604492
0.4840290069580078,0.3970487594604492
0.4633609771728515,0.3887077331542969
0.4633609771728515,0.3887077331542969
0.4788803100585937,0.3859331130981445
0.4788803100585937,0.3859331130981445
0.4759677886962890,0.4005151748657226
0.4759677886962890,0.4005151748657226
0.4668170928955078,0.3806768417358398
0.4668170928955078,0.3806768417358398
0.4851642608642578,0.3989444732666015
0.4851642608642578,0.3989444732666015
0.4644355773925781,0.3903814315795898
0.4644355773925781,0.3903814315795898
0.4800745010375976,0.3876474380493164
0.4800745010375976,0.3876474380493164
0.4769170761108398,0.4020126342773437
0.4769170761108398,0.4020126342773437
0.4679180145263672,0.3822326660156250
0.4679180145263672,0.3822326660156250
0.4860237121582031,0.4006868362426758
0.4860237121582031,0.4006868362426758
0.4652143478393554,0.3918445587158203
0.4652143478393554,0.3918445587158203
0.4813791275024414,0.3894092559814453
0.4813791275024414,0.3894092559814453
0.4777811050415039,0.4037155151367187
0.4777811050415039,0.4037155151367187
0.4691877365112305,0.3840139389038086
0.4691877365112305,0.3840139389038086
0.4871154785156250,0.4026729583740234
0.4871154785156250,0.4026729583740234
0.4664165496826171,0.3936304092407226
0.4664165496826171,0.3936304092407226
0.4826110839843750,0.3915372848510742
0.4826110839843750,0.3915372848510742
0.4788385391235351,0.4054813385009766
0.4788385391235351,0.4054813385009766
0.4701930999755859,0.3852767944335938
0.4701930999755859,0.3852767944335938
0.4874776840209961,0.4031021118164063
0.4874776840209961,0.4031021118164063
0.4657665252685547,0.3921747207641602
0.4657665252685547,0.3921747207641602
0.4806753158569336,0.3879764556884766
0.4806753158569336,0.3879764556884766
0.4749406814575195,0.3990715026855469
0.4749406814575195,0.3990715026855469
0.4647743225097656,0.3760883331298828
0.4647743225097656,0.3760883331298828
0.4802387237548828,0.3920528411865234
0.4802387237548828,0.3920528411865234
0.4578323364257812,0.3800582885742188
0.4578323364257812,0.3800582885742188
0.4732109069824219,0.3763252258300781
0.4732109069824219,0.3763252258300781
0.4677114486694336,0.3883953094482422
0.4677114486694336,0.3883953094482422
0.4589195251464844,0.3673324584960938
0.4589195251464844,0.3673324584960938
0.4755786895751953,0.3851509094238281
0.4755786895751953,0.3851509094238281
0.4541988372802734,0.3746063232421875
0.4541988372802734,0.3746063232421875
0.4706565856933593,0.3723655700683594
0.4536466598510742,0.3723655700683594
0.4656829833984375,0.3855279922485351
0.4656829833984375,0.3855279922485351
0.4579290390014648,0.3654670715332031
0.4579290390014648,0.3654670715332031
0.4749235153198242,0.3842245101928711
0.4749235153198242,0.3842245101928711
0.4539751052856445,0.3740386962890625
0.4539751052856445,0.3740386962890625
0.4710313796997070,0.3726310729980469
0.4710313796997070,0.3726310729980469
0.4660217285156250,0.3859508514404297
0.4660217285156250,0.3859508514404297
0.4587821960449219,0.3662372589111328
0.4587821960449219,0.3662372589111328
0.4757171630859375,0.3854295730590820
0.4757171630859375,0.3854295730590820
0.4549266815185546,0.3753553390502929
0.4549266815185546,0.3753553390502929
0.4723703384399414,0.3744632720947266
0.4723703384399414,0.3744632720947266
0.4672319412231445,0.3879495620727539
0.4672319412231445,0.3879495620727539
0.4603237152099609,0.3684379577636719
0.4603237152099609,0.3684379577636719
0.4771373748779297,0.3882070541381836
0.4771373748779297,0.3882070541381836
0.4565219879150391,0.3777259826660156
0.4565219879150391,0.3777259826660156
0.4740428924560547,0.3770347595214844
0.4740428924560547,0.3770347595214844
0.4684198379516601,0.3899116516113281
0.4684198379516601,0.3899116516113281
0.4616495132446289,0.3700641632080078
0.4616495132446289,0.3700641632080078
0.4780780792236328,0.3896461486816406
0.4780780792236328,0.3896461486816406
0.4571548461914062,0.3785688400268555
0.4571548461914062,0.3785688400268555
0.4745550155639648,0.3778055191040039
0.4745550155639648,0.3778055191040039
0.4684827804565430,0.3900804519653320
0.4684827804565430,0.3900804519653320
0.4619710922241211,0.3701087951660156
0.4619710922241211,0.3701087951660156
0.4781021118164062,0.3897857666015625
0.4781021118164062,0.3897857666015625
0.4571634292602539,0.3784709930419922
0.4571634292602539,0.3784709930419922
0.4747558593750000,0.3780132293701172
0.4747558593750000,0.3780132293701172
0.4684764862060546,0.3902790069580078
0.4684764862060546,0.3902790069580078
0.4623001098632812,0.3705482482910156
0.4623001098632812,0.3705482482910156
0.4783933639526367,0.3905170440673828
0.4783933639526367,0.3905170440673828
0.4578237533569336,0.3792343139648438
0.4578237533569336,0.3792343139648438
0.4754493713378906,0.3793659210205078
0.4754493713378906,0.3793659210205078
0.4692672729492187,0.3916191101074218
0.4692672729492187,0.3916191101074218
0.4635732650756836,0.3721035003662109
0.4635732650756836,0.3721035003662109
0.4796356201171875,0.3925025939941406
0.4796356201171875,0.3925025939941406
0.4591941833496094,0.3811174392700195
0.4591941833496094,0.3811174392700195
0.4769943237304687,0.3816055297851562
0.4769943237304687,0.3816055297851562
0.4705621719360351,0.3937042236328125
0.4705621719360351,0.3937042236328125
0.4651714324951172,0.3744352340698242
0.4651714324951172,0.3744352340698242
0.4809562683105468,0.3949092864990234
0.4809562683105468,0.3949092864990234
0.4606258392333984,0.3831916809082031
0.4606258392333984,0.3831916809082031
0.4785163879394531,0.3839092254638672
0.4785163879394531,0.3839092254638672
0.4717300415039062,0.3957818984985351
0.4717300415039062,0.3957818984985351
0.4666454315185546,0.3763887405395508
0.4666454315185546,0.3763887405395508
0.4821155548095703,0.3970315933227539
0.4821155548095703,0.3970315933227539
0.4618154525756836,0.3847846984863281
0.4618154525756836,0.3847846984863281
0.4796876907348633,0.3857831954956055
0.4796876907348633,0.3857831954956055
0.4726713180541992,0.3972805023193359
0.4726713180541992,0.3972805023193359
0.4677148818969726,0.3779800415039062
0.4677148818969726,0.3779800415039062
0.4830516815185547,0.3987424850463867
0.4830516815185547,0.3987424850463867
0.4627521514892578,0.3862289428710937
0.4627521514892578,0.3862289428710937
0.4807611465454101,0.3875867843627930
0.4807611465454101,0.3875867843627930
0.4735382080078125,0.3988569259643555
0.4735382080078125,0.3988569259643555
0.4690898895263672,0.3798843383789062
0.4690898895263672,0.3798843383789062
0.4842653274536133,0.4007423400878906
0.4842653274536133,0.4007423400878906
0.4642410278320312,0.3880857467651367
0.4642410278320312,0.3880857467651367
0.4821224212646484,0.3898967742919922
0.4821224212646484,0.3898967742919922
0.4746871948242187,0.4010032653808593
0.4746871948242187,0.4010032653808593
0.4704208374023438,0.3819053649902344
0.4704208374023438,0.3819053649902344
0.4854927062988281,0.4029155731201172
0.4854927062988281,0.4029155731201172
0.4652086257934570,0.3893016815185547
0.4652086257934570,0.3893016815185547
0.4826763153076172,0.3905445098876953
0.4658609390258789,0.3905445098876953
0.4740932464599609,0.3997358322143554
0.4740932464599609,0.3997358322143554
0.4686429977416992,0.3786174774169922
0.4686429977416992,0.3786174774169922
0.4818935394287109,0.3969560623168945
0.4818935394287109,0.3969560623168945
0.4596942901611328,0.3802019119262695
0.4596942901611328,0.3802019119262695
0.4756473541259765,0.3795495986938476
0.4756473541259765,0.3795495986938476
0.4662351608276367,0.3876319885253906
0.4662351608276367,0.3876319885253906
0.4609851837158203,0.3667682647705078
0.4609851837158203,0.3667682647705078
0.4747518539428711,0.3862838745117188
0.4747518539428711,0.3862838745117188
0.4537450790405273,0.3711862564086914
0.4537450790405273,0.3711862564086914
0.4711286544799804,0.3728250503540039
0.4711286544799804,0.3728250503540039
0.4625181198120117,0.3824180603027343
0.4625181198120117,0.3824180603027343
0.4586723327636719,0.3630678176879883
0.4586723327636719,0.3630678176879883
0.4729694366455078,0.3838342666625976
0.4729694366455078,0.3838342666625976
0.4530035018920898,0.3695428848266601
0.4530035018920898,0.3695428848266601
0.4709810256958007,0.3724027633666992
0.4709810256958007,0.3724027633666992
0.4625570297241210,0.3821880340576172
0.4625570297241210,0.3821880340576172
0.4592256546020508,0.3636056900024414
0.4592256546020508,0.3636056900024414
0.4737012863159180,0.3848917007446289
0.4737012863159180,0.3848917007446289
0.4537136077880859,0.3704086303710937
0.4537136077880859,0.3704086303710937
0.4719543457031250,0.3739419937133789
0.4719543457031250,0.3739419937133789
0.4635120391845703,0.3838256835937500
0.4635120391845703,0.3838256835937500
0.4606750488281250,0.3657800674438477
0.4606750488281250,0.3657800674438477
0.4752227783203125,0.3873172760009765
0.4752227783203125,0.3873172760009765
0.4554897308349609,0.3728931427001953
0.4554897308349609,0.3728931427001953
0.4739072799682617,0.3768350601196289
0.4739072799682617,0.3768350601196289
0.4652984619140625,0.3866586685180664
0.4652984619140625,0.3866586685180664
0.4599380493164062,0.3811649322509765
0.4599380493164062,0.3811649322509765
0.4692186355590820,0.3723306655883789
0.4692186355590820,0.3723306655883789
0.4723417282104492,0.3903207778930664
0.4723417282104492,0.3903207778930664
0.4583993911743164,0.3692802429199218
0.4583993911743164,0.3692802429199218
0.4775430679321289,0.3851263046264649
0.4775430679321289,0.3851263046264649
0.4600942611694336,0.3813320159912109
0.4600942611694336,0.3813320159912109
0.4693714141845703,0.3724731445312500
0.4693714141845703,0.3724731445312500
0.4721385955810546,0.3901393890380859
0.4721385955810546,0.3901393890380859
0.4583885192871093,0.3690273284912109
0.4583885192871093,0.3690273284912109
0.4774332046508789,0.3852373123168945
0.4774332046508789,0.3852373123168945
0.4599088668823242,0.3813405990600586
0.4599088668823242,0.3813405990600586
0.4697868347167968,0.3728279113769531
0.4697868347167968,0.3728279113769531
0.4723754882812500,0.3905668258666992
0.4723754882812500,0.3905668258666992
0.4588399887084961,0.3698249816894531
0.4588399887084961,0.3698249816894531
0.4781164169311523,0.3864652633666992
0.4781164169311523,0.3864652633666992
0.4606435775756836,0.3824272155761719
0.4606435775756836,0.3824272155761719
0.4707000732421875,0.3744718551635742
0.4707000732421875,0.3744718551635742
0.4732292175292969,0.3921615600585938
0.4732292175292969,0.3921615600585938
0.4601142883300781,0.3715599060058594
0.4601142883300781,0.3715599060058594
0.4793735504150390,0.3884943008422851
0.4793735504150390,0.3884943008422851
0.4617553710937500,0.3843269348144531
0.4617553710937500,0.3843269348144531
0.4722896575927734,0.3767274856567382
0.4722896575927734,0.3767274856567382
0.4745779037475586,0.3942403793334961
0.4745779037475586,0.3942403793334961
0.4615917205810547,0.3736467361450195
0.4615917205810547,0.3736467361450195
0.4808990478515625,0.3908643722534180
0.4808990478515625,0.3908643722534180
0.4631830215454101,0.3862810134887695
0.4631830215454101,0.3862810134887695
0.4737350463867187,0.3789630889892578
0.4737350463867187,0.3789630889892578
0.4758871078491211,0.3964096069335937
0.4758871078491211,0.3964096069335937
0.4627893447875976,0.3755498886108398
0.4627893447875976,0.3755498886108398
0.4821968078613281,0.3929552078247070
0.4821968078613281,0.3929552078247070
0.4641637802124023,0.3879301071166992
0.4805419921875000,0.3879301071166992
