REDsignal,IRsignal
0.3749834060668945,0.3216333389282227
0.3732284545898437,0.3216333389282227
0.3733823776245117,0.3195974349975586
0.3735328674316406,0.3195974349975586
0.3765317916870117,0.3213140487670899
0.3785905838012695,0.3213140487670899
0.3734653472900391,0.3218090057373047
0.3698907852172851,0.3218090057373047
0.3742412567138672,0.3194686889648438
0.3793693542480469,0.3194686889648438
0.3758485794067383,0.3227760314941406
0.3736581802368164,0.3227760314941406
0.3735425949096680,0.3198085784912109
0.3732130050659180,0.3198085784912109
0.3750904083251953,0.3194807052612305
0.3765518188476563,0.3194807052612305
0.3716789245605469,0.3179849624633789
0.3673519134521484,0.3179849624633789
0.3705213546752930,0.3133678436279297
0.3749038696289063,0.3133678436279297
0.3711244583129883,0.3151359558105469
0.3686496734619141,0.3151359558105469
0.3677158355712891,0.3111516952514649
0.3674337387084961,0.3111516952514649
0.3702409744262695,0.3111865997314453
0.3721235275268555,0.3111865997314453
0.3671379089355469,0.3106590270996094
0.3630340576171875,0.3106590270996094
0.3667299270629883,0.3073522567749024
0.3715118408203125,0.3073522567749024
0.3676019668579101,0.3102081298828125
0.3655946731567383,0.3102081298828125
0.3659717559814453,0.3074878692626953
0.3658813476562500,0.3074878692626953
0.3686347961425781,0.3083467483520508
0.3706008911132813,0.3083467483520508
0.3658344268798828,0.3085573196411133
0.3619365692138672,0.3085573196411133
0.3653652191162109,0.3057083129882812
0.3701070785522461,0.3057083129882812
0.3674211502075195,0.3089910507202148
0.3655889511108398,0.3089910507202148
0.3654333114624023,0.3064876556396484
0.3652193069458008,0.3064876556396484
0.3681049346923828,0.3075788497924805
0.3701374053955078,0.3075788497924805
0.3649309158325195,0.3078128814697266
0.3612905502319336,0.3078128814697266
0.3655569076538086,0.3053644180297851
0.3704996109008789,0.3053644180297851
0.3674663543701172,0.3091077804565430
0.3657325744628906,0.3091077804565430
0.3657869338989257,0.3070312500000000
0.3656118392944336,0.3070312500000000
0.3682806015014649,0.3085859298706055
0.3705533981323242,0.3085859298706055
0.3663219451904297,0.3094099044799805
0.3629419326782227,0.3094099044799805
0.3669250488281250,0.3073608398437500
0.3715335845947266,0.3073608398437500
0.3687166213989257,0.3111780166625976
0.3670005798339844,0.3111780166625976
0.3665199279785156,0.3088531494140625
0.3663030624389648,0.3088531494140625
0.3697259902954101,0.3102561950683594
0.3718889236450195,0.3102561950683594
0.3670074462890625,0.3106504440307617
0.3634174346923828,0.3106504440307617
0.3673765182495117,0.3081602096557617
0.3717853546142578,0.3081602096557617
0.3684860229492187,0.3114011764526367
0.3667373657226562,0.3114011764526367
0.3667814254760742,0.3088840484619140
0.3665073394775391,0.3088840484619140
0.3695205688476562,0.3100553512573242
0.3715919494628906,0.3100553512573242
0.3667734146118164,0.3103294372558594
0.3631633758544922,0.3103294372558594
0.3666990280151367,0.3078649520874023
0.3711679458618164,0.3078649520874023
0.3688253402709961,0.3114126205444336
0.3671899795532226,0.3114126205444336
0.3668815612792969,0.3089733123779297
0.3665702819824219,0.3089733123779297
0.3697219848632812,0.3104398727416992
0.3719095230102539,0.3104398727416992
0.3666698455810547,0.3108032226562500
0.3631725311279297,0.3108032226562500
0.3674812316894531,0.3086780548095703
0.3720949172973633,0.3086780548095703
0.3693843841552734,0.3122983932495117
0.3678165435791015,0.3122983932495117
0.3674142837524414,0.3099649429321289
0.3669691085815430,0.3099649429321289
0.3698278427124023,0.3114320755004883
0.3720977783203125,0.3114320755004883
0.3676752090454101,0.3120031356811523
0.3643918991088867,0.3120031356811523
0.3682937622070312,0.3099317550659180
0.3726076126098632,0.3099317550659180
0.3701894760131836,0.3136905670166015
0.3686502456665039,0.3136905670166015
0.3677953720092773,0.3111820220947266
0.3674428939819336,0.3111820220947266
0.3710638046264648,0.3127841949462891
0.3733537673950195,0.3127841949462891
0.3685352325439453,0.3133592605590820
0.3650442123413086,0.3133592605590820
0.3690387725830078,0.3111562728881836
0.3733898162841797,0.3111562728881836
0.3705556869506836,0.3148338317871094
0.3689552307128906,0.3148338317871094
0.3688373565673828,0.3124420166015625
0.3685049057006836,0.3124420166015625
0.3715787887573242,0.3137815475463867
0.3739826202392578,0.3137815475463867
0.3691823959350586,0.3144527435302734
0.3656564712524414,0.3144527435302734
0.3691778182983398,0.3122171401977539
0.3735620498657227,0.3122171401977539
0.3716897964477539,0.3159931182861328
0.3702386856079101,0.3159931182861328
0.3696029663085937,0.3136362075805664
0.3691972732543945,0.3136362075805664
0.3724313735961914,0.3150959014892578
0.3746675491333007,0.3150959014892578
0.3695125579833984,0.3155799865722656
0.3660163879394531,0.3155799865722656
0.3703159332275390,0.3133718490600586
0.3746664047241211,0.3133718490600586
0.3724382400512695,0.3171140670776367
0.3707530975341797,0.3171140670776367
0.3702198028564453,0.3146438598632812
0.3696052551269531,0.3146438598632812
0.3724960327148437,0.3158592224121093
0.3747653961181641,0.3158592224121093
0.3704561233520507,0.3165212631225586
0.3669977188110352,0.3165212631225586
0.3708091735839844,0.3143898010253906
0.3751304626464844,0.3143898010253906
0.3730888366699219,0.3180999755859375
0.3714483261108398,0.3180999755859375
0.3702764511108398,0.3156629562377929
0.3698856353759766,0.3156629562377929
0.3734870910644531,0.3169887542724609
0.3759092330932617,0.3169887542724609
0.3710489273071289,0.3175964355468750
0.3674789428710937,0.3175964355468750
0.3713504791259766,0.3153202056884766
0.3711456298828125,0.3163770675659179
0.3728948593139648,0.3183111190795898
0.3709854125976562,0.3183111190795898
0.3703405380249024,0.3148109436035156
0.3693975448608398,0.3148109436035156
0.3719993591308594,0.3143777847290039
0.3737045288085937,0.3143777847290039
0.3683624267578125,0.3130886077880859
0.3640600204467773,0.3130886077880859
0.3669565200805664,0.3086791992187500
0.3706672668457031,0.3086791992187500
0.3684030532836914,0.3105754852294922
0.3663797378540039,0.3105754852294922
0.3650236129760742,0.3065134048461914
0.3640789031982422,0.3065134048461914
0.3669244766235352,0.3062913894653320
0.3689231872558594,0.3062913894653320
0.3634088516235351,0.3056602478027344
0.3594228744506836,0.3056602478027344
0.3634426116943359,0.3026155471801757
0.3676792144775390,0.3026155471801757
0.3653400421142578,0.3054382324218750
0.3635187149047852,0.3054382324218750
0.3625402450561523,0.3022996902465820
0.3617546081542969,0.3022996902465820
0.3643981933593750,0.3025983810424804
0.3667167663574218,0.3025983810424804
0.3621425628662109,0.3029651641845703
0.3584547042846680,0.3029651641845703
0.3619857788085937,0.3002695083618164
0.3662950515747070,0.3002695083618164
0.3642791748046875,0.3034452438354492
0.3624486923217773,0.3034452438354492
0.3610633850097656,0.3003879547119140
0.3603744506835938,0.3003879547119140
0.3637504577636719,0.3010253906250000
0.3662103652954101,0.3010253906250000
0.3613248825073242,0.3014551162719726
0.3575843811035156,0.3014551162719726
0.3613368988037109,0.2991107940673828
0.3656364440917969,0.2991107940673828
0.3632566452026367,0.3025337219238281
0.3616052627563476,0.3025337219238281
0.3611652374267578,0.3000904083251953
0.3606708526611328,0.3000904083251953
0.3637996673583984,0.3011981964111328
0.3664209365844727,0.3011981964111328
0.3617763519287109,0.3022579193115234
0.3580930709838867,0.3022579193115234
0.3615978240966797,0.3001384735107422
0.3660009384155273,0.3001384735107422
0.3645681381225586,0.3039653778076172
0.3630992889404297,0.3039653778076172
0.3621866226196289,0.3018236160278320
0.3615818023681641,0.3018236160278320
0.3648582458496094,0.3028461456298828
0.3674079895019531,0.3028461456298828
0.3623811721801758,0.3037073135375977
0.3586818695068359,0.3037073135375977
0.3628229141235351,0.3017429351806640
0.3674085617065430,0.3017429351806640
0.3655323028564453,0.3052453994750977
0.3637893676757812,0.3052453994750977
0.3627994537353516,0.3027345657348633
0.3620212554931641,0.3027345657348633
0.3649177551269531,0.3033960342407226
0.3673479080200195,0.3033960342407226
0.3629224777221680,0.3041032791137695
0.3592014312744141,0.3041032791137695
0.3629058837890625,0.3017784118652344
0.3671133041381836,0.3017784118652344
0.3653594970703125,0.3051990509033203
0.3636795043945312,0.3051990509033203
0.3622598648071289,0.3025995254516601
0.3615755081176757,0.3025995254516601
0.3651489257812500,0.3035482406616211
0.3677719116210937,0.3035482406616211
0.3630386352539062,0.3043081283569336
0.3593135833740234,0.3043081283569336
0.3631696701049805,0.3023563385009765
0.3673822402954102,0.3023563385009765
0.3653989791870117,0.3058422088623047
0.3638202667236328,0.3058422088623047
0.3631805419921875,0.3034549713134765
0.3624704360961914,0.3034549713134765
0.3658264160156250,0.3044986724853516
0.3683269500732422,0.3044986724853516
0.3637407302856445,0.3054719924926758
0.3600242614746094,0.3054719924926758
0.3634145736694336,0.3034618377685547
0.3676557540893555,0.3034618377685547
0.3665531158447266,0.3071262359619141
0.3651025772094726,0.3071262359619141
0.3638603210449219,0.3047332763671875
0.3631347656250000,0.3047332763671875
0.3665559768676758,0.3058496475219726
0.3690874099731445,0.3058496475219726
0.3640937805175781,0.3066020965576172
0.3604745864868164,0.3066020965576172
0.3646339416503906,0.3047475814819336
0.3689374923706055,0.3047475814819336
0.3673250198364258,0.3084062576293945
0.3657926559448242,0.3084062576293945
0.3646957397460938,0.3059423446655273
0.3638071060180664,0.3059423446655273
0.3668237686157226,0.3069660186767578
0.3694169998168945,0.3069660186767578
0.3652776718139648,0.3078357696533203
0.3617866516113281,0.3078357696533203
0.3652999877929687,0.3060052871704101
0.3694313049316406,0.3060052871704101
0.3681283950805664,0.3096811294555664
0.3665662765502929,0.3096811294555664
0.3649663925170898,0.3070501327514648
0.3641578674316406,0.3070501327514648
0.3679613113403320,0.3081945419311523
0.3706850051879882,0.3081945419311523
0.3661228179931640,0.3091129302978515
0.3624429702758789,0.3091129302978515
0.3661645889282226,0.3072532653808593
0.3702003479003906,0.3072532653808593
0.3684694290161133,0.3108798980712891
0.3670537948608398,0.3108798980712891
0.3661548614501953,0.3084228515625000
0.3653972625732422,0.3084228515625000
0.3688047409057617,0.3095380783081055
0.3713865280151367,0.3095380783081055
0.3669651031494141,0.3104124069213867
0.3633625030517578,0.3104124069213867
0.3665256500244141,0.3086259841918945
0.3706169128417969,0.3086259841918945
0.3697071075439453,0.3122423171997070
0.3683315277099609,0.3122423171997070
0.3670927047729492,0.3098075866699219
0.3661537170410156,0.3098075866699219
0.3696836471557617,0.3109502792358398
0.3722436904907226,0.3109502792358398
0.3673536300659180,0.3117176055908203
0.3637035369873047,0.3117176055908203
0.3675687789916992,0.3097486495971680
0.3716857910156250,0.3097486495971680
0.3702106475830078,0.3129541397094727
0.3684373855590820,0.3129541397094727
0.3668752670288086,0.3094722747802734
0.3654767990112305,0.3094722747802734
0.3681346893310547,0.3089355468750000
0.3701877593994141,0.3089355468750000
0.3656101226806641,0.3081270217895508
0.3614650726318359,0.3081270217895508
0.3642768859863281,0.3041999816894531
0.3676488876342773,0.3041999816894531
0.3657239913940429,0.3056682586669922
0.3636154174804687,0.3056682586669922
0.3613540649414063,0.3012548446655273
0.3600328445434570,0.3012548446655273
0.3635599136352539,0.3009309768676758
0.3658544540405274,0.3009309768676758
0.3610359191894531,0.3006671905517578
0.3569932937622070,0.3006671905517578
0.3602062225341797,0.2979246139526367
0.3640233993530274,0.2979246139526367
0.3622472763061523,0.3004983901977539
0.3604963302612305,0.3004983901977539
0.3593318939208984,0.2971372604370117
0.3582796096801757,0.2971372604370117
0.3615594863891601,0.2974639892578125
0.3639444351196289,0.2974639892578125
0.3595916748046875,0.2979240417480469
0.3556657791137695,0.2979240417480469
0.3585313796997070,0.2955425262451172
0.3624938964843750,0.2955425262451172
0.3615125656127929,0.2986398696899414
0.3599636077880859,0.2986398696899414
0.3584054946899414,0.2955974578857422
0.3573623657226562,0.2955974578857422
0.3607961654663086,0.2961210250854492
0.3632972717285156,0.2961210250854492
0.3585062026977539,0.2967058181762695
0.3547193527221680,0.2967058181762695
0.3584255218505859,0.2948284149169922
0.3625442504882813,0.2948284149169922
0.3613477706909179,0.2982210159301757
0.3597444534301757,0.2982210159301757
0.3585502624511719,0.2957050323486328
0.3575769424438476,0.2957050323486328
0.3606931686401367,0.2965278625488281
0.3634895324707031,0.2965278625488281
0.3596780776977539,0.2979440689086914
0.3561630249023438,0.2979440689086914
0.3594497680664062,0.2965593338012695
0.3637081146240234,0.2965593338012695
0.3626123428344726,0.3001876831054687
0.3610651016235352,0.3001876831054687
0.3594532012939453,0.2976985931396484
0.3586263656616211,0.2976985931396484
0.3624223709106445,0.2986255645751953
0.3652519226074218,0.2986255645751953
0.3609695434570312,0.2997694015502930
0.3571477890014648,0.2997694015502930
0.3604917526245117,0.2980287551879883
0.3644788742065430,0.2980287551879883
0.3628246307373047,0.3012016296386719
0.3611978530883789,0.3012016296386719
0.3602228164672852,0.2983285903930664
0.3593908309936523,0.2983285903930664
0.3624973297119141,0.2988584518432617
0.3651369094848633,0.2988584518432617
0.3610187530517578,0.2999107360839844
0.3571311950683594,0.2999107360839844
0.3599224090576172,0.2979143142700195
0.3640760421752929,0.2979143142700195
0.3631954193115234,0.3012428283691406
0.3616144180297852,0.3012428283691406
0.3603504180908203,0.2986398696899414
0.3593542098999024,0.2986398696899414
0.3628566741943359,0.2992303848266601
0.3654916763305664,0.2992303848266601
0.3610324859619141,0.3004343032836914
0.3572341918945313,0.3004343032836914
0.3608270645141601,0.2988304138183593
0.3650596618652344,0.2988304138183593
0.3638786315917968,0.3022693634033203
0.3622552871704102,0.3022693634033203
0.3610582351684570,0.2998106002807617
0.3601329803466797,0.2998106002807617
0.3631982803344727,0.3003776550292969
0.3659557342529297,0.3003776550292969
0.3623113632202148,0.3017784118652344
0.3587013244628906,0.3017784118652344
0.3617734909057617,0.3002826690673828
0.3660221099853516,0.3002826690673828
0.3649520874023438,0.3037845611572266
0.3632349014282226,0.3037845611572266
0.3616109848022461,0.3013624191284179
0.3607337951660156,0.3013624191284179
0.3646448135375976,0.3020605087280273
0.3674995422363281,0.3020605087280273
0.3633773803710937,0.3034463882446289
0.3596248626708984,0.3034463882446289
0.3628286361694336,0.3020467758178711
0.3669576644897461,0.3020467758178711
0.3654550552368164,0.3052116394042969
0.3638437271118164,0.3052116394042969
0.3629899978637695,0.3028570175170898
0.3621168136596680,0.3028570175170898
0.3655912399291992,0.3034658432006836
0.3683046340942382,0.3034658432006836
0.3643260955810547,0.3049695968627930
0.3604888916015625,0.3049695968627930
0.3632160186767578,0.3034189224243164
0.3674337387084961,0.3034189224243164
0.3667144775390625,0.3067182540893554
0.3651941299438476,0.3067182540893554
0.3638425827026367,0.3041639328002930
0.3628921508789062,0.3041639328002930
0.3664644241333008,0.3048980712890625
0.3691560745239258,0.3048980712890625
0.3647375106811523,0.3062707901000977
0.3609575271606445,0.3062707901000977
0.3644823074340820,0.3046880722045898
0.3687446594238281,0.3046880722045898
0.3675745010375976,0.3079427719116211
0.3658670425415039,0.3079427719116211
0.3646820068359375,0.3054817199707031
0.3635662078857422,0.3054817199707031
0.3667791366577148,0.3059532165527344
0.3695577621459961,0.3059532165527344
0.3659414291381836,0.3075696945190430
0.3622873306274414,0.3075696945190430
0.3653406143188476,0.3060562133789063
0.3695177078247070,0.3060562133789063
0.3684213638305664,0.3094591140747070
0.3667402267456055,0.3094591140747070
0.3650413513183594,0.3067926406860351
0.3640811920166016,0.3067926406860351
0.3680717468261719,0.3073980331420899
0.3708503723144531,0.3073980331420899
0.3668558120727539,0.3087318420410156
0.3629539489746094,0.3087318420410156
0.3658927917480468,0.3068584442138672
0.3696178436279297,0.3068584442138672
0.3679670333862304,0.3090379714965820
0.3658973693847656,0.3090379714965820
0.3645927429199219,0.3052139282226562
0.3631118774414062,0.3052139282226562
0.3660701751708984,0.3041107177734375
0.3682411193847656,0.3041107177734375
0.3638151168823242,0.3038000106811523
0.3593622207641601,0.3038000106811523
0.3613569259643555,0.3000526428222656
0.3647369384765625,0.3000526428222656
0.3636034011840820,0.3014184951782227
0.3615726470947265,0.3014184951782227
0.3597827911376953,0.2974908828735351
0.3582687377929688,0.2974908828735351
0.3615766525268554,0.2969369888305664
0.3639844894409179,0.2969369888305664
0.3594303131103516,0.2974056243896484
0.3554809570312500,0.2974056243896484
0.3587442398071289,0.2946292877197266
0.3587442398071289,0.2946292877197266
0.3587442398071289,0.2964265823364258
0.3597387313842773,0.2956180572509766
0.3640005111694336,0.2956180572509766
0.3597106933593750,0.2965421676635742
0.3597106933593750,0.2965421676635742
0.3571414947509766,0.2935186386108398
0.3571414947509766,0.2935186386108398
0.3604728698730469,0.2962898254394531
0.3604728698730469,0.2962898254394531
0.3578304290771484,0.2955751419067383
0.3578304290771484,0.2955751419067383
0.3589353561401367,0.2935506820678711
0.3589353561401367,0.2935506820678711
0.3590011596679688,0.2953634262084961
0.3557538986206055,0.2953634262084961
0.3567169189453125,0.2927484512329102
0.3581508636474609,0.2927484512329102
0.3600585937500000,0.2965101242065429
0.3600585937500000,0.2965101242065429
0.3577537536621094,0.2947614669799805
0.3577537536621094,0.2947614669799805
0.3593496322631836,0.2940387725830078
0.3593496322631836,0.2940387725830078
0.3598995208740234,0.2964300155639648
0.3598995208740234,0.2964300155639648
0.3576776504516602,0.2949548721313476
0.3576776504516602,0.2949548721313476
0.3613431930541992,0.2976699829101562
0.3613431930541992,0.2976699829101562
0.3590394973754883,0.2968008041381836
0.3590394973754883,0.2968008041381836
0.3607526779174804,0.2961456298828125
0.3607526779174804,0.2961456298828125
0.3611263275146484,0.2990346908569336
0.3611263275146484,0.2990346908569336
0.3588975906372070,0.2959230422973633
0.3588975906372070,0.2959230422973633
0.3622753143310547,0.2989774703979492
0.3622753143310547,0.2989774703979492
0.3599424362182617,0.2978096008300781
0.3599424362182617,0.2978096008300781
0.3610502243041992,0.2973546981811523
0.3610502243041992,0.2973546981811523
0.3613380432128906,0.2986673355102539
0.3613380432128906,0.2986673355102539
0.3587779998779297,0.2961387634277344
0.3587779998779297,0.2961387634277344
0.3625030517578125,0.2991914749145508
0.3625030517578125,0.2991914749145508
0.3600614547729492,0.2988052368164062
0.3600614547729492,0.2988052368164062
0.3612590789794922,0.2970428466796875
0.3612590789794922,0.2970428466796875
0.3617134094238281,0.2993505477905273
0.3587030410766601,0.2993505477905273
0.3595046997070312,0.2970045089721680
0.3610439300537109,0.2970045089721680
0.3630758285522461,0.3008737564086914
0.3630758285522461,0.3008737564086914
0.3607303619384766,0.2991823196411132
0.3607303619384766,0.2991823196411132
0.3619119644165039,0.2981809616088867
0.3619119644165039,0.2981809616088867
0.3626850128173828,0.3006706237792969
0.3626850128173828,0.3006706237792969
0.3603681564331054,0.2991428375244141
0.3603681564331054,0.2991428375244141
0.3640279769897461,0.3015987396240234
0.3640279769897461,0.3015987396240234
0.3616641998291015,0.3006671905517578
0.3616641998291015,0.3006671905517578
0.3631175994873047,0.2996257781982422
0.3631175994873047,0.2996257781982422
0.3636571884155274,0.3028919219970703
0.3636571884155274,0.3028919219970703
0.3614089965820312,0.3000783920288086
0.3614089965820312,0.3000783920288086
0.3649263381958008,0.3032192230224609
0.3649263381958008,0.3032192230224609
0.3627725601196289,0.3023065567016601
0.3627725601196289,0.3023065567016601
0.3639804840087891,0.3018218994140625
0.3639804840087891,0.3018218994140625
0.3646305084228516,0.3038166046142578
0.3646305084228516,0.3038166046142578
0.3623125076293945,0.3015941619873047
0.3623125076293945,0.3015941619873047
0.3661096572875976,0.3047544479370117
0.3661096572875976,0.3047544479370117
0.3636102676391602,0.3044734954833984
0.3636102676391602,0.3044734954833984
0.3647569656372070,0.3025159835815430
0.3647569656372070,0.3025159835815430
0.3653646469116211,0.3051773071289062
0.3653646469116211,0.3051773071289062
0.3633001327514648,0.3030847549438476
0.3647192001342773,0.3030847549438476
0.3669118881225586,0.3069843292236328
0.3669118881225586,0.3069843292236328
0.3646156311035156,0.3053741455078125
0.3646156311035156,0.3053741455078125
0.3657056808471680,0.3041038513183594
0.3657056808471680,0.3041038513183594
0.3666378021240234,0.3068956375122070
0.3666378021240234,0.3068956375122070
0.3642900466918945,0.3055395126342773
0.3642900466918945,0.3055395126342773
0.3679607391357422,0.3079210281372070
0.3679607391357422,0.3079210281372070
0.3655185699462891,0.3070798873901367
0.3655185699462891,0.3070798873901367
0.3667842864990234,0.3057329177856445
0.3667842864990234,0.3057329177856445
0.3675149917602539,0.3092393875122070
0.3675149917602539,0.3092393875122070
0.3652633666992187,0.3063056945800781
0.3652633666992187,0.3063056945800781
0.3688127517700195,0.3091192245483398
0.3688127517700195,0.3091192245483398
0.3661199569702148,0.3072372436523437
0.3661199569702148,0.3072372436523437
0.3657766342163086,0.3044935226440429
0.3657766342163086,0.3044935226440429
0.3651866912841797,0.3044837951660156
0.3651866912841797,0.3044837951660156
0.3616127014160156,0.3004154205322265
0.3616127014160156,0.3004154205322265
0.3642030715942383,0.3013807296752929
0.3642030715942383,0.3013807296752929
0.3605260848999023,0.2993499755859375
0.3605260848999023,0.2993499755859375
0.3605998992919922,0.2956529617309570
0.3605998992919922,0.2956529617309570
0.3606868743896484,0.2973232269287109
0.3606868743896484,0.2973232269287109
0.3579935073852539,0.2942533493041992
0.3579935073852539,0.2942533493041992
0.3610118865966797,0.2970085144042969
0.3618593215942383,0.2970085144042969
0.3581136703491211,0.2946063995361328
0.3581136703491211,0.2946063995361328
0.3585788726806641,0.2923284530639648
0.3585788726806641,0.2923284530639648
0.3592363357543945,0.2947500228881836
0.3592363357543945,0.2947500228881836
0.3566860198974609,0.2927907943725586
0.3566860198974609,0.2927907943725586
0.3600305557250976,0.2945411682128906
0.3600305557250976,0.2945411682128906
0.3572816848754883,0.2931032180786133
0.3572816848754883,0.2931032180786133
0.3581182479858399,0.2911434173583984
0.3581182479858399,0.2911434173583984
0.3586635589599609,0.2945068359375000
0.3586635589599609,0.2945068359375000
0.3565160751342774,0.2915788650512695
0.3565160751342774,0.2915788650512695
0.3599527359008789,0.2944730758666992
0.3599527359008789,0.2944730758666992
0.3604242324829102,0.2937292098999023
0.3587390899658203,0.2928537368774414
0.3587390899658203,0.2928537368774414
0.3596912384033203,0.2953519821166992
0.3596912384033203,0.2953519821166992
0.3576982498168945,0.2934888839721679
0.3576982498168945,0.2934888839721679
0.3616041183471679,0.2965747833251953
0.3616041183471679,0.2965747833251953
0.3590806961059570,0.2965049743652344
0.3590806961059570,0.2965049743652344
0.3600843429565430,0.2940759658813477
0.3600843429565430,0.2940759658813477
0.3608510971069336,0.2971298217773438
0.3608510971069336,0.2971298217773438
0.3589616775512695,0.2950326919555664
0.3589616775512695,0.2950326919555664
0.3623147964477539,0.2984064102172851
0.3623147964477539,0.2984064102172851
0.3596797943115234,0.2966972351074219
0.3596797943115234,0.2966972351074219
0.3604248046875000,0.2946556091308594
0.3604248046875000,0.2946556091308594
0.3612562179565429,0.2976070404052734
0.3612562179565429,0.2976070404052734
0.3591516494750976,0.2960186004638672
0.3591516494750976,0.2960186004638672
0.3625642776489258,0.2979452133178711
0.3625642776489258,0.2979452133178711
0.3597822189331055,0.2970668792724609
0.3597822189331055,0.2970668792724609
0.3608636856079102,0.2951654434204101
0.3608636856079102,0.2951654434204101
0.3616184234619140,0.2990306854248047
0.3616184234619140,0.2990306854248047
0.3597072601318359,0.2962697982788086
0.3597072601318359,0.2962697982788086
0.3632669448852539,0.2989854812622070
0.3632669448852539,0.2989854812622070
0.3608579635620117,0.2983760833740234
0.3608579635620117,0.2983760833740234
0.3617912292480469,0.2972562789916992
0.3617912292480469,0.2972562789916992
0.3625717163085938,0.2998632431030273
0.3625717163085938,0.2998632431030273
0.3606817245483399,0.2978502273559570
0.3606817245483399,0.2978502273559570
0.3644731521606445,0.3005968093872070
0.3644731521606445,0.3005968093872070
0.3618495941162109,0.3008028030395508
0.3618495941162109,0.3008028030395508
0.3627817153930664,0.2981998443603516
0.3627817153930664,0.2981998443603516
0.3636909484863281,0.3015890121459961
0.3636909484863281,0.3015890121459961
0.3620492935180664,0.2996028900146484
0.3620492935180664,0.2996028900146484
0.3654739379882813,0.3029434204101563
0.3654739379882813,0.3029434204101563
0.3629482269287109,0.3017852783203125
0.3629482269287109,0.3017852783203125
0.3636840820312500,0.2997562408447266
0.3636840820312500,0.2997562408447266
0.3648880004882812,0.3031728744506836
0.3648880004882812,0.3031728744506836
0.3630083084106445,0.3018476486206055
0.3630083084106445,0.3018476486206055
0.3664592742919922,0.3035945892333984
0.3664592742919922,0.3035945892333984
0.3638242721557617,0.3031711578369141
0.3638242721557617,0.3031711578369141
0.3647375106811523,0.3011821746826172
0.3647375106811523,0.3011821746826172
0.3656759262084961,0.3053163528442382
0.3656759262084961,0.3053163528442382
0.3638740539550781,0.3025583267211914
0.3638740539550781,0.3025583267211914
0.3672557830810547,0.3049861907958984
0.3672557830810547,0.3049861907958984
0.3649692535400391,0.3047035217285156
0.3649692535400391,0.3047035217285156
0.3655420303344726,0.3033353805541992
0.3655420303344726,0.3033353805541992
0.3666852951049804,0.3061620712280274
0.3666852951049804,0.3061620712280274
0.3648262023925781,0.3040632247924804
0.3648262023925781,0.3040632247924804
0.3684642791748047,0.3064739227294922
0.3684642791748047,0.3064739227294922
0.3658184051513672,0.3068984985351562
0.3658184051513672,0.3068984985351562
0.3665588378906250,0.3042222976684570
0.3665588378906250,0.3042222976684570
0.3675619125366211,0.3075765609741211
0.3675619125366211,0.3075765609741211
0.3659917831420899,0.3054925918579102
0.3659917831420899,0.3054925918579102
0.3690444946289063,0.3080303192138672
0.3690444946289063,0.3080303192138672
0.3657863616943359,0.3060104370117188
0.3619422912597656,0.3060104370117188
0.3653457641601562,0.3022092819213867
0.3653457641601562,0.3022092819213867
0.3655654907226563,0.3039419174194336
0.3655654907226563,0.3039419174194336
0.3624635696411133,0.3004926681518554
0.3624498367309570,0.3004926681518554
0.3645589828491211,0.2998334884643555
0.3645589828491211,0.2998334884643555
0.3606771469116211,0.2979560852050781
0.3606771469116211,0.2979560852050781
0.3606119155883789,0.2944696426391601
0.3606119155883789,0.2944696426391601
0.3610988616943359,0.2973981857299804
0.3610988616943359,0.2973981857299804
0.3587408065795898,0.2936782836914062
0.3587408065795898,0.2936782836914062
0.3614667892456054,0.2948610305786133
0.3614667892456054,0.2948610305786133
0.3585376739501953,0.2940805435180664
0.3585376739501953,0.2940805435180664
0.3587087631225586,0.2919828414916992
0.3587087631225586,0.2919828414916992
0.3595499038696289,0.2942293167114258
0.3595499038696289,0.2942293167114258
0.3573926925659179,0.2915348052978515
0.3573926925659179,0.2915348052978515
0.3606296539306640,0.2930202484130859
0.3606296539306640,0.2930202484130859
0.3575460433959961,0.2932771682739257
0.3575460433959961,0.2932771682739257
0.3578201293945312,0.2899904251098633
0.3578201293945312,0.2899904251098633
0.3589902877807617,0.2931467056274414
0.3589902877807617,0.2931467056274414
0.3573303222656250,0.2908590316772461
0.3573303222656250,0.2908590316772461
0.3604528427124024,0.2933950424194336
0.3624395370483398,0.2933950424194336
0.3601078033447265,0.2935804367065429
0.3601078033447265,0.2935804367065429
0.3579483032226562,0.2925453186035156
0.3560892105102539,0.2925453186035156
0.3613162994384765,0.2922397613525390
0.3650911331176758,0.2922397613525390
0.3604740142822265,0.2956964492797852
0.3567003250122070,0.2956964492797852
0.3595361709594727,0.2929046630859375
0.3619274139404297,0.2929046630859375
0.3619337081909180,0.2955602645874023
0.3609569549560547,0.2955602645874023
0.3593553543090820,0.2945085525512695
0.3570116043090820,0.2945085525512695
0.3625150680541992,0.2938842773437500
0.3660982131958008,0.2938842773437500
0.3609598159790039,0.2968637466430664
0.3571992874145508,0.2968637466430664
0.3604877471923828,0.2938310623168945
0.3628137588500976,0.2938310623168945
0.3623319625854492,0.2963224411010742
0.3613168716430664,0.2963224411010742
0.3597049713134766,0.2951316833496094
0.3573869705200195,0.2951316833496094
0.3623868942260742,0.2941360473632812
0.3660255432128906,0.2941360473632812
0.3615154266357422,0.2971647262573242
0.3579414367675781,0.2971647262573242
0.3607217788696289,0.2942750930786133
0.3628978729248047,0.2942750930786133
0.3628297805786133,0.2969364166259765
0.3618782043457031,0.2969364166259765
0.3598028182983398,0.2957548141479492
0.3575283050537109,0.2957548141479492
0.3634328842163086,0.2952020645141601
0.3672208786010742,0.2952020645141601
0.3623542785644531,0.2984189987182617
0.3586692810058594,0.2984189987182617
0.3615789413452148,0.2957021713256836
0.3638105392456055,0.2957021713256836
0.3634105682373047,0.2982564926147461
0.3625717163085938,0.2982564926147461
0.3612419128417969,0.2973747253417969
0.3591161727905273,0.2973747253417969
0.3645658493041992,0.2969398498535156
0.3683538436889648,0.2969398498535156
0.3635644912719727,0.3001527786254883
0.3599710464477539,0.3001527786254883
0.3623811721801758,0.2973203659057617
0.3646116256713867,0.2973203659057617
0.3648948669433594,0.3000652313232422
0.3641967773437500,0.3000652313232422
0.3624246597290039,0.2991897583007813
0.3601833343505859,0.2991897583007813
0.3657136917114258,0.2987680435180664
0.3695005416870117,0.2987680435180664
0.3642293930053711,0.3018190383911133
0.3607532501220703,0.3018190383911133
0.3637401580810547,0.2989849090576172
0.3659362792968750,0.2989849090576172
0.3659746170043945,0.3017286300659179
0.3652044296264648,0.3017286300659179
0.3635519027709961,0.3008365631103516
0.3612070083618164,0.3008365631103516
0.3663488388061523,0.3001287460327148
0.3701642990112304,0.3001287460327148
0.3655603408813476,0.3033983230590820
0.3621528625488281,0.3033983230590820
0.3647260665893555,0.3005424499511719
0.3667671203613281,0.3005424499511719
0.3669610977172851,0.3033828735351562
0.3662361145019531,0.3033828735351562
0.3641407012939453,0.3023414611816406
0.3618347167968750,0.3023414611816406
0.3678245544433594,0.3017103195190430
0.3717590332031250,0.3017103195190430
0.3666618347167969,0.3050188064575195
0.3630689620971679,0.3050188064575195
0.3657468795776367,0.3020902633666992
0.3677947998046875,0.3020902633666992
0.3676717758178711,0.3048488616943359
0.3670194625854492,0.3048488616943359
0.3655420303344726,0.3038515090942382
0.3633195877075195,0.3038515090942382
0.3688018798828125,0.3033668518066406
0.3726196289062500,0.3033668518066406
0.3677061080932617,0.3066741943359375
0.3642225265502930,0.3066741943359375
0.3663265228271484,0.3036209106445312
0.3683303833007812,0.3036209106445312
0.3689712524414062,0.3064567565917969
0.3684928894042969,0.3064567565917969
0.3667167663574218,0.3056047439575195
0.3642688751220703,0.3056047439575195
0.3699491500854492,0.3050308227539062
0.3737319946289062,0.3050308227539062
0.3683212280273437,0.3081590652465820
0.3648330688476563,0.3081590652465820
0.3675590515136719,0.3052528381347656
0.3697088241577148,0.3052528381347656
0.3699823379516601,0.3079038619995117
0.3693489074707031,0.3079038619995117
0.3673444747924804,0.3064247131347656
0.3644966125488281,0.3064247131347656
0.3692115783691406,0.3042160034179687
0.3724691390991211,0.3042160034179687
0.3671957015991211,0.3055583953857422
0.3632738113403320,0.3055583953857422
0.3649892807006836,0.3008331298828125
0.3663013458251953,0.3008331298828125
0.3661005020141602,0.3015987396240234
0.3649806976318359,0.3015987396240234
0.3620962142944336,0.2984985351562500
0.3590721130371093,0.2984985351562500
0.3645132064819336,0.2962818145751953
0.3680597305297851,0.2962818145751953
0.3626174926757812,0.2980894088745117
0.3588386535644531,0.2980894088745117
0.3607498168945312,0.2942064285278320
0.3623285293579102,0.2942064285278320
0.3623508453369140,0.2959407806396484
0.3616252899169922,0.2959407806396484
0.3598606109619141,0.2941497802734375
0.3572050094604492,0.2941497802734375
0.3626134872436523,0.2928657531738281
0.3662509918212891,0.2928657531738281
0.3610427856445312,0.2954051971435547
0.3574081420898437,0.2954051971435547
0.3589834213256836,0.2917613983154297
0.3607681274414062,0.2917613983154297
0.3616378784179687,0.2940153121948242
0.3612110137939453,0.2940153121948242
0.3589759826660156,0.2926374435424804
0.3563856124877929,0.2926374435424804
0.3618587493896484,0.2917974472045898
0.3655763626098633,0.2917974472045898
0.3601507186889648,0.2942327499389648
0.3566711425781250,0.2942327499389648
0.3588844299316406,0.2910055160522461
0.3608242034912109,0.2910055160522461
0.3615131378173828,0.2937406539916992
0.3612064361572265,0.2937406539916992
0.3592609405517578,0.2927925109863281
0.3567306518554688,0.2927925109863281
0.3618776321411133,0.2924125671386719
0.3658613204956054,0.2924125671386719
0.3613037109375000,0.2955036163330078
0.3580667495727539,0.2955036163330078
0.3599258422851562,0.2927118301391601
0.3618776321411133,0.2927118301391601
0.3629213333129883,0.2959711074829102
0.3627445220947266,0.2959711074829102
0.3603544235229492,0.2950000762939453
0.3578962326049804,0.2950000762939453
0.3637310028076172,0.2945417404174804
0.3677169799804688,0.2945417404174804
0.3627244949340820,0.2974920272827148
0.3593730926513672,0.2974920272827148
0.3610301971435547,0.2944467544555664
0.3628091812133789,0.2944467544555664
0.3634403228759766,0.2971755981445313
0.3632148742675781,0.2971755981445313
0.3613128662109375,0.2959430694580078
0.3589284896850586,0.2959430694580078
0.3642225265502930,0.2953062057495117
0.3679859161376953,0.2953062057495117
0.3630363464355469,0.2980367660522461
0.3596580505371094,0.2980367660522461
0.3608945846557617,0.2947935104370117
0.3625848770141601,0.2947935104370117
0.3640331268310547,0.2975887298583984
0.3639764785766602,0.2975887298583984
0.3617277145385742,0.2965089797973633
0.3592426300048828,0.2965089797973633
0.3646797180175781,0.2961124420166015
0.3685621261596679,0.2961124420166015
0.3632812500000000,0.2987915039062500
0.3599304199218750,0.2987915039062500
0.3618633270263672,0.2958034515380859
0.3636869430541992,0.2958034515380859
0.3648147583007812,0.2988292694091797
0.3647712707519531,0.2988292694091797
0.3626592636108398,0.2978668212890625
0.3600797653198242,0.2978668212890625
0.3652112960815430,0.2973810195922851
0.3691617965698242,0.2973810195922851
0.3645074844360351,0.3002025604248047
0.3613368988037109,0.3002025604248047
0.3628183364868164,0.2973060607910156
0.3645978927612304,0.2973060607910156
0.3659276962280273,0.3005229949951172
0.3658321380615234,0.3005229949951172
0.3633115768432617,0.2993906021118164
0.3607955932617187,0.2993906021118164
0.3665903091430664,0.2990999221801758
0.3706317901611328,0.2990999221801758
0.3656976699829101,0.3020393371582031
0.3624967575073242,0.3020393371582031
0.3639501571655273,0.2992870330810547
0.3657096862792968,0.2992870330810547
0.3666744232177734,0.3021383285522461
0.3667276382446289,0.3021383285522461
0.3649023056030273,0.3012205123901367
0.3624698638916016,0.3012205123901367
0.3677873611450195,0.3009893417358399
0.3716463088989257,0.3009893417358399
0.3669067382812500,0.3037113189697265
0.3636657714843750,0.3037113189697265
0.3645973205566406,0.3008331298828125
0.3663339614868164,0.3008331298828125
0.3680574417114258,0.3040048599243164
0.3683326721191406,0.3040048599243164
0.3658962249755859,0.3030515670776367
0.3634414672851562,0.3030515670776367
0.3688213348388672,0.3028398513793945
0.3726917266845703,0.3028398513793945
0.3675985336303711,0.3053220748901367
0.3644536972045898,0.3053220748901367
0.3660158157348632,0.3025817871093750
0.3678897857666015,0.3025817871093750
0.3692682266235351,0.3057941436767578
0.3693689346313476,0.3057941436767578
0.3671430587768554,0.3048265457153320
0.3645269393920899,0.3048265457153320
0.3693958282470703,0.3044403076171875
0.3733921051025391,0.3044403076171875
0.3690221786499023,0.3070295333862305
0.3659254074096679,0.3070295333862305
0.3670583724975586,0.3042760848999023
0.3687538146972656,0.3042760848999023
0.3703851699829102,0.3075611114501953
0.3705213546752930,0.3075611114501953
0.3678022384643554,0.3065179824829101
0.3652261734008789,0.3065179824829101
0.3708475112915039,0.3061706542968750
0.3748769760131836,0.3061706542968750
0.3702072143554687,0.3087026596069336
0.3669548034667969,0.3087026596069336
0.3681135177612305,0.3060487747192382
0.3698152542114257,0.3060487747192382
0.3710231781005859,0.3092433929443359
0.3713121414184570,0.3092433929443359
0.3691343307495117,0.3081716537475586
0.3666778564453125,0.3081716537475586
0.3718877792358398,0.3079610824584961
0.3759006500244140,0.3079610824584961
0.3713304519653320,0.3104473114013672
0.3680122375488281,0.3104473114013672
0.3686914443969727,0.3073001861572265
0.3702512741088867,0.3073001861572265
0.3720994949340820,0.3101692199707031
0.3721481323242187,0.3101692199707031
0.3691961288452149,0.3078100204467774
0.3657938003540039,0.3078100204467774
0.3702747344970703,0.3051904678344726
0.3735059738159179,0.3051904678344726
0.3679950714111328,0.3053415298461914
0.3641309738159180,0.3053415298461914
0.3648725509643554,0.3005081176757812
0.3659957885742187,0.3005081176757812
0.3669731140136719,0.3018550872802734
0.3665948867797851,0.3018550872802734
0.3636074066162109,0.2990678787231445
0.3604997634887695,0.2990678787231445
0.3648633956909180,0.2972768783569336
0.3685901641845703,0.2972768783569336
0.3640760421752929,0.2983657836914063
0.3606479644775391,0.2983657836914063
0.3613460540771484,0.2948232650756836
0.3627370834350586,0.2948232650756836
0.3642230987548828,0.2972156524658203
0.3641498565673828,0.2972156524658203
0.3611778259277343,0.2954046249389649
0.3583293914794922,0.2954046249389649
0.3633710861206055,0.2942350387573242
0.3674079895019531,0.2942350387573242
0.3627061843872070,0.2960254669189453
0.3592941284179688,0.2960254669189453
0.3602434158325195,0.2929058074951172
0.3616979598999023,0.2929058074951172
0.3628932952880859,0.2953954696655273
0.3630140304565430,0.2953954696655273
0.3607566833496094,0.2939895629882812
0.3580593109130859,0.2939895629882812
0.3627290725708008,0.2932491302490234
0.3667121887207031,0.2932491302490234
0.3623159408569336,0.2951637268066406
0.3589565277099609,0.2951637268066406
0.3595682144165039,0.2923685073852539
0.3613180160522461,0.2923685073852539
0.3632423400878906,0.2955116271972656
0.3637046813964844,0.2955116271972656
0.3612293243408203,0.2947694778442383
0.3585577011108398,0.2947694778442383
0.3634855270385742,0.2944559097290039
0.3675619125366211,0.2944559097290039
0.3629882812500000,0.2966989517211914
0.3598709106445312,0.2966989517211914
0.3626226425170898,0.2963270187377929
0.3626226425170898,0.2963270187377929
0.3622186660766601,0.2956151962280273
0.3663825988769531,0.2956151962280273
0.3653348922729492,0.2983972549438477
0.3653348922729492,0.2983972549438477
0.3623039245605469,0.2956907272338867
0.3623039245605469,0.2956907272338867
0.3650859832763672,0.2963819503784180
0.3650859832763672,0.2963819503784180
0.3633790969848633,0.2982873916625977
0.3633790969848633,0.2982873916625977
0.3628389358520508,0.2958469390869141
0.3628389358520508,0.2958469390869141
0.3657600402832031,0.2989791870117187
0.3657600402832031,0.2989791870117187
0.3627450942993164,0.2962371826171875
0.3627450942993164,0.2962371826171875
0.3652072906494140,0.2973913192749023
0.3652072906494140,0.2973913192749023
0.3637310028076172,0.2979618072509765
0.3637310028076172,0.2979618072509765
0.3630037307739258,0.2963064193725586
0.3630037307739258,0.2963064193725586
0.3663551330566406,0.2996246337890625
0.3663551330566406,0.2996246337890625
0.3632457733154297,0.2977684020996094
0.3632457733154297,0.2977684020996094
0.3659402847290039,0.2977352142333984
0.3659402847290039,0.2977352142333984
0.3645601272583008,0.2992361068725586
0.3645601272583008,0.2992361068725586
0.3641052246093750,0.2978084564208984
0.3641052246093750,0.2978084564208984
0.3671567916870117,0.3017669677734375
0.3671567916870117,0.3017669677734375
0.3642774581909179,0.2986804962158203
0.3642774581909179,0.2986804962158203
0.3667385101318359,0.2992670059204102
0.3667385101318359,0.2992670059204102
0.3658790588378906,0.3008920669555664
0.3658790588378906,0.3008920669555664
0.3650665283203125,0.3001647949218750
0.3650665283203125,0.3001647949218750
0.3682943344116211,0.3027711868286133
0.3682943344116211,0.3027711868286133
0.3653623580932617,0.3002477645874023
0.3653623580932617,0.3002477645874023
0.3680271148681640,0.3009876251220703
0.3680271148681640,0.3009876251220703
0.3668775558471680,0.3033943176269531
0.3668775558471680,0.3033943176269531
0.3662258148193359,0.3013372421264648
0.3662258148193359,0.3013372421264648
0.3693105697631836,0.3045839309692382
0.3693105697631836,0.3045839309692382
0.3666852951049804,0.3022396087646484
0.3666852951049804,0.3022396087646484
0.3691617965698242,0.3035963058471680
0.3691617965698242,0.3035963058471680
0.3681673049926757,0.3047080993652344
0.3681673049926757,0.3047080993652344
0.3674543380737305,0.3032037734985352
0.3674543380737305,0.3032037734985352
0.3706735610961914,0.3063886642456055
0.3706735610961914,0.3063886642456055
0.3676540374755859,0.3046943664550781
0.3676540374755859,0.3046943664550781
0.3703336715698242,0.3046245574951172
0.3703336715698242,0.3046245574951172
0.3692253112792969,0.3064023971557617
0.3692253112792969,0.3064023971557617
0.3686948776245117,0.3049215316772461
0.3726287841796875,0.3049215316772461
0.3716943740844726,0.3088022232055664
0.3716943740844726,0.3088022232055664
0.3687875747680664,0.3056476593017578
0.3687875747680664,0.3056476593017578
0.3713315963745117,0.3062610626220703
0.3713315963745117,0.3062610626220703
0.3704715728759765,0.3080966949462891
0.3704715728759765,0.3080966949462891
0.3696361541748047,0.3073150634765625
0.3696361541748047,0.3073150634765625
0.3727638244628906,0.3097251892089843
0.3727638244628906,0.3097251892089843
0.3696624755859375,0.3073013305664062
0.3696624755859375,0.3073013305664062
0.3724565505981445,0.3079799652099609
0.3724565505981445,0.3079799652099609
0.3714248657226563,0.3105222702026367
0.3714248657226563,0.3105222702026367
0.3707004547119140,0.3083232879638672
0.3707004547119140,0.3083232879638672
0.3737932205200195,0.3113588333129882
0.3737932205200195,0.3113588333129882
0.3709196090698242,0.3089698791503906
0.3709196090698242,0.3089698791503906
0.3733383178710937,0.3099849700927734
0.3733383178710937,0.3099849700927734
0.3721441268920898,0.3108982086181640
0.3721441268920898,0.3108982086181640
0.3709653854370117,0.3086494445800781
0.3709653854370117,0.3086494445800781
0.3731752395629883,0.3096324920654297
0.3731752395629883,0.3096324920654297
0.3684162139892578,0.3055297851562500
0.3684162139892578,0.3055297851562500
0.3696578979492187,0.3032175064086914
0.3696578979492187,0.3032175064086914
0.3674749374389648,0.3032661437988281
0.3674749374389648,0.3032661437988281
0.3655237197875976,0.2995897293090820
0.3655237197875976,0.2995897293090820
0.3675653457641602,0.3015810012817383
0.3675653457641602,0.3015810012817383
0.3637470245361328,0.2974399566650390
0.3637470245361328,0.2974399566650390
0.3656358718872070,0.2969621658325195
0.3656358718872070,0.2969621658325195
0.3643918991088867,0.2982072830200195
0.3643918991088867,0.2982072830200195
0.3630483627319336,0.2963865280151367
0.3630483627319336,0.2963865280151367
0.3657674789428711,0.2978565216064453
0.3657674789428711,0.2978565216064453
0.3624229431152344,0.2950372695922852
0.3624229431152344,0.2950372695922852
0.3647850036621094,0.2949388504028320
0.3647850036621094,0.2949388504028320
0.3634574890136719,0.2973392486572266
0.3634574890136719,0.2973392486572266
0.3624338150024414,0.2943128585815429
0.3624338150024414,0.2943128585815429
0.3650585174560547,0.2967103958129882
0.3650585174560547,0.2967103958129882
0.3620801925659179,0.2943105697631836
0.3620801925659179,0.2943105697631836
0.3644817352294922,0.2952089309692383
0.3644817352294922,0.2952089309692383
0.3635433197021484,0.2967504501342773
0.3635433197021484,0.2967504501342773
0.3628480911254883,0.2949228286743164
0.3628480911254883,0.2949228286743164
0.3660741806030273,0.2978679656982422
0.3660741806030273,0.2978679656982422
0.3631147384643554,0.2965690612792969
0.3631147384643554,0.2965690612792969
0.3657989501953125,0.2964208602905273
0.3657989501953125,0.2964208602905273
0.3649085998535156,0.2989900588989258
0.3649085998535156,0.2989900588989258
0.3644920349121094,0.2970365524291992
0.3644920349121094,0.2970365524291992
0.3673736572265625,0.3006374359130859
0.3673736572265625,0.3006374359130859
0.3643157958984375,0.2976980209350586
0.3643157958984375,0.2976980209350586
0.3668746948242188,0.2980339050292969
0.3668746948242188,0.2980339050292969
0.3658224105834961,0.3001785278320312
0.3658224105834961,0.3001785278320312
0.3649383544921875,0.2986764907836914
0.3649383544921875,0.2986764907836914
0.3677478790283203,0.3004074096679688
0.3677478790283203,0.3004074096679688
0.3643650054931640,0.2981472015380859
0.3643650054931640,0.2981472015380859
0.3672031402587890,0.2982736587524414
0.3672031402587890,0.2982736587524414
0.3660352706909180,0.3013114929199219
0.3660352706909180,0.3013114929199219
0.3652256011962891,0.2984046936035156
0.3652256011962891,0.2984046936035156
0.3681135177612305,0.3009944915771484
0.3681135177612305,0.3009944915771484
0.3651437759399414,0.2989322662353516
0.3651437759399414,0.2989322662353516
0.3677198410034180,0.2999090194702148
0.3708549499511719,0.2999090194702148
0.3667722702026367,0.3018110275268555
0.3667722702026367,0.3018110275268555
0.3659551620483398,0.2996103286743164
0.3659551620483398,0.2996103286743164
0.3690776824951172,0.3024072647094727
0.3690776824951172,0.3024072647094727
0.3661079406738281,0.3012845993041992
0.3661079406738281,0.3012845993041992
0.3686891555786133,0.3008073806762695
0.3686891555786133,0.3008073806762695
0.3678583145141601,0.3035236358642578
0.3678583145141601,0.3035236358642578
0.3672918319702148,0.3013132095336914
0.3672918319702148,0.3013132095336914
0.3700344085693359,0.3048225402832031
0.3700344085693359,0.3048225402832031
0.3671808242797852,0.3022756576538086
0.3671808242797852,0.3022756576538086
0.3697643280029297,0.3026475906372070
0.3697643280029297,0.3026475906372070
0.3691349029541016,0.3055166244506836
0.3691349029541016,0.3055166244506836
0.3684808731079102,0.3039379119873047
0.3684808731079102,0.3039379119873047
0.3712257385253906,0.3060544967651367
0.3712257385253906,0.3060544967651367
0.3683629989624023,0.3042566299438477
0.3683629989624023,0.3042566299438477
0.3712469100952148,0.3045318603515625
0.3712469100952148,0.3045318603515625
0.3702444076538086,0.3081304550170899
0.3702444076538086,0.3081304550170899
0.3697191238403320,0.3050943374633789
0.3697191238403320,0.3050943374633789
0.3722551345825195,0.3079456329345703
0.3722551345825195,0.3079456329345703
0.3695652008056641,0.3061574935913086
0.3678239822387695,0.3061574935913086
0.3722682952880859,0.3071313858032226
0.3722682952880859,0.3071313858032226
0.3713853836059570,0.3092840194702148
0.3713853836059570,0.3092840194702148
0.3707731246948242,0.3069259643554688
0.3707731246948242,0.3069259643554688
0.3734899520874023,0.3096204757690429
0.3734899520874023,0.3096204757690429
0.3705087661743164,0.3086271286010742
0.3705087661743164,0.3086271286010742
0.3734052658081055,0.3080509185791016
0.3734052658081055,0.3080509185791016
0.3723461151123047,0.3109828948974609
0.3723461151123047,0.3109828948974609
0.3719324111938476,0.3086105346679687
0.3719324111938476,0.3086105346679687
0.3744792938232422,0.3119613647460938
0.3744792938232422,0.3119613647460938
0.3715873718261719,0.3095077514648437
0.3715873718261719,0.3095077514648437
0.3743648529052734,0.3097000122070312
0.3743648529052734,0.3097000122070312
0.3735694885253906,0.3126714706420898
0.3735694885253906,0.3126714706420898
0.3729137420654297,0.3109468460083007
0.3729137420654297,0.3109468460083007
0.3754434585571289,0.3128322601318359
0.3754434585571289,0.3128322601318359
0.3725034713745117,0.3113239288330078
0.3725034713745117,0.3113239288330078
0.3755298614501953,0.3112598419189453
0.3755298614501953,0.3112598419189453
0.3744913101196289,0.3148727416992188
0.3744913101196289,0.3148727416992188
0.3737257003784180,0.3113782882690430
0.3737257003784180,0.3113782882690430
0.3758056640625000,0.3133266448974609
0.3758056640625000,0.3133266448974609
0.3722648620605469,0.3102109909057617
0.3722648620605469,0.3102109909057617
0.3733806610107422,0.3082031250000000
0.3733806610107422,0.3082031250000000
0.3710700988769531,0.3083713531494141
0.3710700988769531,0.3083713531494141
0.3690650939941406,0.3038240432739258
0.3690650939941406,0.3038240432739258
0.3704280853271484,0.3045764923095703
0.3704280853271484,0.3045764923095703
0.3665731430053711,0.3021989822387695
0.3665731430053711,0.3021989822387695
0.3687183380126953,0.3001796722412109
0.3687183380126953,0.3001796722412109
0.3672042846679687,0.3022642135620117
0.3672042846679687,0.3022642135620117
0.3662200927734375,0.2989963531494140
0.3662200927734375,0.2989963531494140
0.3680110931396484,0.3016319274902344
0.3680110931396484,0.3016319274902344
0.3649446487426758,0.2989414215087891
0.3649446487426758,0.2989414215087891
0.3674091339111328,0.2981826782226563
0.3674091339111328,0.2981826782226563
0.3665096282958984,0.3008108139038086
0.3665096282958984,0.3008108139038086
0.3655735015869140,0.2984939575195312
0.3655735015869140,0.2984939575195312
0.3675676345825195,0.3000308990478516
0.3675676345825195,0.3000308990478516
0.3646585464477539,0.2983377456665039
0.3646585464477539,0.2983377456665039
0.3675178527832031,0.2977901458740234
0.3675178527832031,0.2977901458740234
0.3664295196533203,0.3014734268188476
0.3664295196533203,0.3014734268188476
0.3657897949218750,0.2981849670410156
0.3657897949218750,0.2981849670410156
0.3679172515869141,0.3007593154907227
0.3679172515869141,0.3007593154907227
0.3655179977416992,0.2996366500854492
0.3655179977416992,0.2996366500854492
0.3684745788574219,0.3001556396484375
0.3684745788574219,0.3001556396484375
0.3688219070434570,0.3022264480590820
0.3705745697021484,0.3022264480590820
0.3667144775390625,0.3022756576538086
0.3635850906372070,0.3022756576538086
0.3673753738403320,0.3002328872680664
0.3723632812500000,0.3002328872680664
0.3686502456665039,0.3037502288818359
0.3664169311523438,0.3037502288818359
0.3665702819824219,0.3016033172607422
0.3670469284057617,0.3016033172607422
0.3700767517089844,0.3034864425659179
0.3717830657958984,0.3034864425659179
0.3674165725708008,0.3033176422119140
0.3640193939208984,0.3033176422119140
0.3678228378295899,0.3011077880859375
0.3726636886596680,0.3011077880859375
0.3685741424560547,0.3041982650756836
0.3664077758789062,0.3041982650756836
0.3670669555664062,0.3020233154296875
0.3676706314086914,0.3020233154296875
0.3702232360839844,0.3037851333618164
0.3719993591308594,0.3037851333618164
0.3677352905273437,0.3037845611572266
0.3643260955810547,0.3037845611572266
0.3677524566650390,0.3014339447021484
0.3727415084838867,0.3014339447021484
0.3692785263061523,0.3049049377441406
0.3672941207885742,0.3049049377441406
0.3677747726440430,0.3030424118041992
0.3682273864746093,0.3030424118041992
0.3709499359130859,0.3050090789794922
0.3727844238281250,0.3050090789794922
0.3681850433349609,0.3049633026123047
0.3648124694824219,0.3049633026123047
0.3689540863037109,0.3028999328613281
0.3740581512451172,0.3028999328613281
0.3703954696655273,0.3064876556396484
0.3683641433715820,0.3064876556396484
0.3688098907470703,0.3046497344970703
0.3692018508911133,0.3046497344970703
0.3715993881225586,0.3063663482666015
0.3735116958618164,0.3063663482666015
0.3694828033447266,0.3066135406494140
0.3660690307617188,0.3066135406494140
0.3698581695556640,0.3046125411987304
0.3747596740722656,0.3046125411987304
0.3713327407836914,0.3082065582275391
0.3693431854248047,0.3082065582275391
0.3692956924438476,0.3060934066772461
0.3696166992187500,0.3060934066772461
0.3730138778686523,0.3078712463378906
0.3749238967895508,0.3078712463378906
0.3705585479736328,0.3083759307861328
0.3671253204345703,0.3083759307861328
0.3710346221923828,0.3063097000122070
0.3758405685424804,0.3063097000122070
0.3719833374023437,0.3098447799682617
0.3700962066650391,0.3098447799682617
0.3707147598266601,0.3077465057373047
0.3710214614868164,0.3077465057373047
0.3739305496215820,0.3095758438110351
0.3759012222290039,0.3095758438110351
0.3715232849121093,0.3101102828979492
0.3679166793823242,0.3101102828979492
0.3714242935180664,0.3077682495117187
0.3763023376464844,0.3077682495117187
0.3734132766723633,0.3112398147583008
0.3715988159179687,0.3112398147583008
0.3718563079833984,0.3094345092773437
0.3719947814941406,0.3094345092773437
0.3748712539672852,0.3110635757446289
0.3768133163452148,0.3110635757446289
0.3720073699951172,0.3114538192749023
0.3685363769531250,0.3114538192749023
0.3727993011474609,0.3093343734741211
0.3776229858398437,0.3093343734741211
0.3744312286376953,0.3130640029907226
0.3726224899291992,0.3130640029907226
0.3728982925415039,0.3111808776855469
0.3730035781860351,0.3111808776855469
0.3755195617675781,0.3125976562500000
0.3776412963867187,0.3125976562500000
0.3733314514160156,0.3131109237670898
0.3698759078979492,0.3131109237670898
0.3737680435180664,0.3110652923583984
0.3785602569580078,0.3110652923583984
0.3755207061767578,0.3148338317871094
0.3737285614013672,0.3148338317871094
0.3735660552978515,0.3127326965332031
0.3735099792480469,0.3127326965332031
0.3768184661865234,0.3142152786254883
0.3790798187255859,0.3142152786254883
0.3744077682495117,0.3149477005004883
0.3708995819091797,0.3149477005004883
0.3748849868774414,0.3129901885986328
0.3795518875122070,0.3129901885986328
0.3762697219848632,0.3164279937744141
0.3744970321655273,0.3164279937744141
0.3748804092407226,0.3143486022949218
0.3748706817626953,0.3143486022949218
0.3778289794921875,0.3158397674560547
0.3799541473388672,0.3158397674560547
0.3753055572509765,0.3163141250610351
0.3716783523559570,0.3163141250610351
0.3751012802124024,0.3137025833129883
0.3796714782714843,0.3137025833129883
0.3768888473510742,0.3166786193847656
0.3748495101928711,0.3166786193847656
0.3740942001342774,0.3126691818237304
0.3731506347656250,0.3126691818237304
0.3753965377807617,0.3119304656982422
0.3768442153930664,0.3119304656982422
0.3712463378906250,0.3103958129882812
0.3671911239624023,0.3103958129882812
0.3708463668823242,0.3063526153564453
0.3750354766845703,0.3063526153564453
0.3716772079467773,0.3084445953369140
0.3694931030273437,0.3084445953369140
0.3691274642944336,0.3050914764404297
0.3685878753662109,0.3050914764404297
0.3709247589111328,0.3054388046264648
0.3729526519775391,0.3054388046264648
0.3684694290161133,0.3052934646606445
0.3647792816162109,0.3052934646606445
0.3684225082397461,0.3025932312011719
0.3729074478149414,0.3025932312011719
0.3701396942138672,0.3058399200439453
0.3682811737060547,0.3058399200439453
0.3676328659057617,0.3030933380126953
0.3672918319702148,0.3030933380126953
0.3705854415893555,0.3039871215820312
0.3727048873901367,0.3039871215820312
0.3679029464721680,0.3044357299804688
0.3642408370971680,0.3044357299804688
0.3681175231933594,0.3020645141601562
0.3725767135620117,0.3020645141601562
0.3695749282836914,0.3052219390869140
0.3679327011108398,0.3052219390869140
0.3678943634033203,0.3028244018554687
0.3676305770874023,0.3028244018554687
0.3705253601074219,0.3040769577026367
0.3727563858032226,0.3040769577026367
0.3682210922241211,0.3048648834228516
0.3645709991455078,0.3048648834228516
0.3681810379028320,0.3025434494018555
0.3726797103881836,0.3025434494018555
0.3706609725952149,0.3063034057617187
0.3691045761108399,0.3063034057617187
0.3687755584716797,0.3043190002441406
0.3684762954711914,0.3043190002441406
0.3716543197631836,0.3057661056518555
0.3739843368530273,0.3057661056518555
0.3689392089843750,0.3065357208251953
0.3654178619384765,0.3065357208251953
0.3696876525878906,0.3044757843017578
0.3743837356567383,0.3044757843017578
0.3720153808593750,0.3082735061645508
0.3703680038452148,0.3082735061645508
0.3699697494506836,0.3062662124633789
0.3695108413696289,0.3062662124633789
0.3722620010375977,0.3072154998779297
0.3745622634887695,0.3072154998779297
0.3702472686767578,0.3078351974487304
0.3667098999023438,0.3078351974487304
0.3704921722412109,0.3056213378906250
0.3748146057128906,0.3056213378906250
0.3725532531738281,0.3091049194335938
0.3708194732666015,0.3091049194335938
0.3699062347412109,0.3066255569458008
0.3693826675415039,0.3066255569458008
0.3727689743041992,0.3075473785400391
0.3752134323120117,0.3075473785400391
0.3703639984130859,0.3082214355468750
0.3667751312255859,0.3082214355468750
0.3706872940063476,0.3060808181762695
0.3749433517456054,0.3060808181762695
0.3724330902099609,0.3096033096313476
0.3708137512207031,0.3096033096313476
0.3705413818359375,0.3071840286254883
0.3700704574584961,0.3071840286254883
0.3732656478881836,0.3083467483520508
0.3756494522094727,0.3083467483520508
0.3709127426147461,0.3091552734375000
0.3673639297485352,0.3091552734375000
0.3708984375000000,0.3071084976196289
0.3752099990844727,0.3071084976196289
0.3735792160034180,0.3107110977172852
0.3721378326416016,0.3107110977172852
0.3712617874145508,0.3084531784057617
0.3707845687866211,0.3084531784057617
0.3740324020385742,0.3098304748535156
0.3765254974365234,0.3098304748535156
0.3714426040649414,0.3105159759521484
0.3679264068603516,0.3105159759521484
0.3720685958862305,0.3085309982299805
0.3764820098876953,0.3085309982299805
0.3746498107910156,0.3123785018920898
0.3730876922607422,0.3123785018920898
0.3722700119018554,0.3101211547851562
0.3717189788818359,0.3101211547851562
0.3746257781982422,0.3113107681274414
0.3770576477050781,0.3113107681274414
0.3727769851684570,0.3120277404785156
0.3692934036254883,0.3120277404785156
0.3731105804443359,0.3102092742919922
0.3773792266845703,0.3102092742919922
0.3756322860717773,0.3140871047973633
0.3741439819335937,0.3140871047973633
0.3727638244628906,0.3115322113037109
0.3721755981445312,0.3115322113037109
0.3758491516113281,0.3127109527587891
0.3784452438354492,0.3127109527587891
0.3737623214721680,0.3137180328369141
0.3701911926269531,0.3137180328369141
0.3741502761840820,0.3119235992431640
0.3783330917358398,0.3119235992431640
0.3762805938720703,0.3156349182128906
0.3748020172119140,0.3156349182128906
0.3741931915283203,0.3132785797119140
0.3735780715942383,0.3132785797119140
0.3768722534179688,0.3145030975341797
0.3794889450073242,0.3145030975341797
0.3749118804931640,0.3154249191284180
0.3711645126342774,0.3154249191284180
0.3745822906494141,0.3133735656738281
0.3788457870483398,0.3133735656738281
0.3775955200195312,0.3169778823852539
0.3762016296386719,0.3169778823852539
0.3750761032104492,0.3146896362304688
0.3743041992187500,0.3146896362304688
0.3777133941650391,0.3159690856933594
0.3802556991577148,0.3159690856933594
0.3752042770385742,0.3165962219238281
0.3716766357421875,0.3165962219238281
0.3757741928100586,0.3147228240966797
0.3800588607788086,0.3147228240966797
0.3784641265869140,0.3185508728027344
0.3770296096801758,0.3185508728027344
0.3759447097778320,0.3162139892578125
0.3751310348510742,0.3162139892578125
0.3781373977661133,0.3171873092651367
0.3807832717895508,0.3171873092651367
0.3765380859375000,0.3180593490600586
0.3729732513427734,0.3180593490600586
0.3766685485839844,0.3163352966308594
0.3808032989501953,0.3163352966308594
0.3793945312500000,0.3200386047363281
0.3778415679931640,0.3200386047363281
0.3763755798339843,0.3174728393554687
0.3756631851196289,0.3174728393554687
0.3793109893798828,0.3186304092407227
0.3820232391357422,0.3186304092407227
0.3773162841796875,0.3195253372192383
0.3737257003784180,0.3195253372192383
0.3774724960327148,0.3177984237670898
0.3815368652343750,0.3177984237670898
0.3797338485717773,0.3210514068603516
0.3781986236572266,0.3210514068603516
0.3772613525390625,0.3181961059570312
0.3763652801513672,0.3181961059570312
0.3794654846191406,0.3184616088867188
0.3813846588134766,0.3184616088867188
0.3761472702026367,0.3170854568481445
0.3716485977172851,0.3170854568481445
0.3742795944213867,0.3129558563232422
0.3777179718017578,0.3129558563232422
0.3761581420898437,0.3146129608154297
0.3741188049316406,0.3146129608154297
0.3723381042480469,0.3103025436401367
0.3709207534790039,0.3103025436401367
0.3740604400634766,0.3100496292114258
0.3761838912963867,0.3100496292114258
0.3711931228637695,0.3097835540771484
0.3671939849853516,0.3097835540771484
0.3709384918212891,0.3072154998779297
0.3748975753784179,0.3072154998779297
0.3733720779418945,0.3102596282958984
0.3717710494995117,0.3102596282958984
0.3704841613769531,0.3072898864746094
0.3693986892700195,0.3072898864746094
0.3723346710205078,0.3077665328979492
0.3748495101928711,0.3077665328979492
0.3707250595092773,0.3082036972045898
0.3670938491821289,0.3082036972045898
0.3703697204589844,0.3065042495727539
0.3743900299072265,0.3065042495727539
0.3731792449951172,0.3097160339355469
0.3714952468872070,0.3097160339355469
0.3719455718994141,0.3067016601562500
0.3725858688354492,0.3073591232299804
0.3752082824707031,0.3073591232299804
0.3707359313964844,0.3081493377685547
0.3669816970825195,0.3081493377685547
0.3704343795776367,0.3065557479858398
0.3744712829589844,0.3065557479858398
0.3728713989257812,0.3098642349243164
0.3714437484741211,0.3098642349243164
0.3725664138793945,0.3102293014526367
0.3725664138793945,0.3102293014526367
0.3722351074218750,0.3084325790405273
0.3716794967651367,0.3084325790405273
0.3738086700439453,0.3110469818115234
0.3738086700439453,0.3110469818115234
0.3717189788818359,0.3101863861083984
0.3717189788818359,0.3101863861083984
0.3741491317749023,0.3099391937255859
0.3741491317749023,0.3099391937255859
0.3737760543823242,0.3129117965698242
0.3737760543823242,0.3129117965698242
0.3716789245605469,0.3095643997192383
0.3716789245605469,0.3095643997192383
0.3747482299804688,0.3127212524414062
0.3747482299804688,0.3127212524414062
0.3727432250976562,0.3115390777587890
0.3727432250976562,0.3115390777587890
0.3747722625732422,0.3117954254150391
0.3747722625732422,0.3117954254150391
0.3741977691650391,0.3129415512084961
0.3741977691650391,0.3129415512084961
0.3719650268554687,0.3101497650146484
0.3719650268554687,0.3101497650146484
0.3751419067382812,0.3130376815795898
0.3751419067382812,0.3130376815795898
0.3727300643920898,0.3124094009399414
0.3727300643920898,0.3124094009399414
0.3747093200683594,0.3112741470336914
0.3747093200683594,0.3112741470336914
0.3740684509277344,0.3130668640136718
0.3740684509277344,0.3130668640136718
0.3722076416015625,0.3105176925659179
0.3722076416015625,0.3105176925659179
0.3753713607788086,0.3144824981689453
0.3753713607788086,0.3144824981689453
0.3731712341308593,0.3125375747680664
0.3731712341308593,0.3125375747680664
0.3752786636352539,0.3122451782226562
0.3752786636352539,0.3122451782226562
0.3749341964721680,0.3142175674438477
0.3749341964721680,0.3142175674438477
0.3729686737060547,0.3124723434448242
0.3729686737060547,0.3124723434448242
0.3761844635009766,0.3150661468505859
0.3761844635009766,0.3150661468505859
0.3738567352294922,0.3139394760131836
0.3738567352294922,0.3139394760131836
0.3761432647705078,0.3137197494506836
0.3761432647705078,0.3137197494506836
0.3757266998291016,0.3162775039672852
0.3757266998291016,0.3162775039672852
0.3737651824951172,0.3130977630615234
0.3737651824951172,0.3130977630615234
0.3770410537719727,0.3164995193481445
0.3770410537719727,0.3164995193481445
0.3748958587646484,0.3153814315795898
0.3748958587646484,0.3153814315795898
0.3769203186035156,0.3158329010009766
0.3769203186035156,0.3158329010009766
0.3766393661499023,0.3170213699340820
0.3766393661499023,0.3170213699340820
0.3745113372802734,0.3146249771118164
0.3745113372802734,0.3146249771118164
0.3779565811157227,0.3181200027465820
0.3779565811157227,0.3181200027465820
0.3756402969360351,0.3176078796386719
0.3756402969360351,0.3176078796386719
0.3776824951171875,0.3166242599487304
0.3776824951171875,0.3166242599487304
0.3773700714111328,0.3185325622558594
0.3773700714111328,0.3185325622558594
0.3755418777465820,0.3161035537719726
0.3755418777465820,0.3161035537719726
0.3788166046142578,0.3202331542968750
0.3788166046142578,0.3202331542968750
0.3764808654785156,0.3181806564331054
0.3764808654785156,0.3181806564331054
0.3782009124755859,0.3179122924804688
0.3782009124755859,0.3179122924804688
0.3782501220703125,0.3198434829711914
0.3751298904418945,0.3198434829711914
0.3762479782104492,0.3180850982666015
0.3762479782104492,0.3180850982666015
0.3795038223266601,0.3207899093627929
0.3795038223266601,0.3207899093627929
0.3772499084472656,0.3195877075195312
0.3772499084472656,0.3195877075195312
0.3790500640869141,0.3192478179931640
0.3790500640869141,0.3192478179931640
0.3790180206298828,0.3218181610107422
0.3759338378906250,0.3218181610107422
0.3770273208618164,0.3189016342163086
0.3770273208618164,0.3189016342163086
0.3802499771118164,0.3221712112426758
0.3802499771118164,0.3221712112426758
0.3781814575195312,0.3209741592407226
0.3781814575195312,0.3209741592407226
0.3798116683959961,0.3212533950805664
0.3843429565429687,0.3212533950805664
0.3798168182373047,0.3225036621093750
0.3767423629760742,0.3225036621093750
0.3779010772705078,0.3202663421630859
0.3779010772705078,0.3202663421630859
0.3813205718994140,0.3237636566162109
0.3813205718994140,0.3237636566162109
0.3789316177368164,0.3231210708618164
0.3789316177368164,0.3231210708618164
0.3806270599365234,0.3219903945922851
0.3806270599365234,0.3219903945922851
0.3804445266723633,0.3238803863525391
0.3804445266723633,0.3238803863525391
0.3786861419677734,0.3214210510253906
0.3786861419677734,0.3214210510253906
0.3817045211791992,0.3251535415649414
0.3817045211791992,0.3251535415649414
0.3786718368530274,0.3216814041137695
0.3786718368530274,0.3216814041137695
0.3789041519165039,0.3189594268798828
0.3789041519165039,0.3189594268798828
0.3776132583618164,0.3188381195068359
0.3776132583618164,0.3188381195068359
0.3743219375610352,0.3152109146118164
0.3743219375610352,0.3152109146118164
0.3767526626586914,0.3165275573730469
0.3767526626586914,0.3165275573730469
0.3731603622436523,0.3134931564331054
0.3731603622436523,0.3134931564331054
0.3747682571411133,0.3122526168823242
0.3747682571411133,0.3122526168823242
0.3740964889526367,0.3142873764038086
0.3740964889526367,0.3142873764038086
0.3717750549316406,0.3104507446289063
0.3717750549316406,0.3104507446289063
0.3750841140747070,0.3140876770019531
0.3750841140747070,0.3140876770019531
0.3721532821655273,0.3116306304931640
0.3721532821655273,0.3116306304931640
0.3741291046142578,0.3116535186767578
0.3741291046142578,0.3116535186767578
0.3735466003417969,0.3128368377685547
0.3735466003417969,0.3128368377685547
0.3713790893554688,0.3098550796508789
0.3713790893554688,0.3098550796508789
0.3751916885375977,0.3140642166137695
0.3751916885375977,0.3140642166137695
0.3719318389892578,0.3120752334594726
0.3719318389892578,0.3120752334594726
0.3741931915283203,0.3109537124633789
0.3741931915283203,0.3109537124633789
0.3736644744873047,0.3130479812622070
0.3736644744873047,0.3130479812622070
0.3718460083007812,0.3102493286132812
0.3718460083007812,0.3102493286132812
0.3757684707641601,0.3158060073852539
0.3757684707641601,0.3158060073852539
0.3725538253784180,0.3125558853149414
0.3725538253784180,0.3125558853149414
0.3750509262084961,0.3125782012939453
0.3750509262084961,0.3125782012939453
0.3748134613037109,0.3150197982788086
0.3748134613037109,0.3150197982788086
0.3729452133178711,0.3128505706787109
0.3729452133178711,0.3128505706787109
0.3770318984985351,0.3172765731811523
0.3770318984985351,0.3172765731811523
0.3735574722290039,0.3143960952758789
0.3735574722290039,0.3143960952758789
0.3763069152832031,0.3140069961547852
0.3763069152832031,0.3140069961547852
0.3756282806396484,0.3170516967773437
0.3756282806396484,0.3170516967773437
0.3735980987548828,0.3131361007690430
0.3735980987548828,0.3131361007690430
0.3774724960327148,0.3180976867675781
0.3774724960327148,0.3180976867675781
0.3738584518432617,0.3148956298828125
0.3738584518432617,0.3148956298828125
0.3765054702758789,0.3149717330932617
0.3765054702758789,0.3149717330932617
0.3755790710449219,0.3166391372680664
0.3755790710449219,0.3166391372680664
0.3736867904663086,0.3132305145263672
0.3736867904663086,0.3132305145263672
0.3778289794921875,0.3184970855712890
0.3778289794921875,0.3184970855712890
0.3738521575927734,0.3158426284790039
0.3738521575927734,0.3158426284790039
0.3767389297485351,0.3146209716796875
0.3767389297485351,0.3146209716796875
0.3758640289306641,0.3173194885253906
0.3758640289306641,0.3173194885253906
0.3741474151611328,0.3140516281127930
0.3741474151611328,0.3140516281127930
0.3784097671508789,0.3202726364135742
0.3784097671508789,0.3202726364135742
0.3745130538940429,0.3163301467895508
0.3715456008911133,0.3163301467895508
0.3774587631225586,0.3158729553222656
0.3774587631225586,0.3158729553222656
0.3767829895019531,0.3187362670898438
0.3767829895019531,0.3187362670898438
0.3750137329101562,0.3162340164184570
0.3750137329101562,0.3162340164184570
0.3792943954467773,0.3211675643920898
0.3792943954467773,0.3211675643920898
0.3751018524169922,0.3177646636962890
0.3751018524169922,0.3177646636962890
0.3784194946289062,0.3171735763549804
0.3784194946289062,0.3171735763549804
0.3776355743408203,0.3209466934204102
0.3776355743408203,0.3209466934204102
0.3757799148559570,0.3168874740600586
0.3757799148559570,0.3168874740600586
0.3802602767944336,0.3226547241210938
0.3802602767944336,0.3226547241210938
0.3761255264282227,0.3192054748535156
0.3761255264282227,0.3192054748535156
0.3792497634887695,0.3193124771118164
0.3792497634887695,0.3193124771118164
0.3783536911010742,0.3216281890869140
0.3783536911010742,0.3216281890869140
0.3764883041381836,0.3181806564331054
0.3764883041381836,0.3181806564331054
0.3811363220214843,0.3239942550659179
0.3811363220214843,0.3239942550659179
0.3766353607177734,0.3211612701416016
0.3766353607177734,0.3211612701416016
0.3800497055053711,0.3195997238159179
0.3800497055053711,0.3195997238159179
0.3790014266967773,0.3228881835937500
0.3790014266967773,0.3228881835937500
0.3773900985717774,0.3193284988403320
0.3773900985717774,0.3193284988403320
0.3818452835083008,0.3258842468261718
0.3818452835083008,0.3258842468261718
0.3773838043212890,0.3216344833374024
0.3773838043212890,0.3216344833374024
0.3806436538696289,0.3207715988159179
0.3806436538696289,0.3207715988159179
0.3798236846923828,0.3241390228271484
0.3798236846923828,0.3241390228271484
0.3780647277832031,0.3212602615356445
0.3780647277832031,0.3212602615356445
0.3826452255249023,0.3264741897583008
0.3826452255249023,0.3264741897583008
0.3781843185424805,0.3229516983032226
0.3781843185424805,0.3229516983032226
0.3816215515136719,0.3220607757568359
0.3816215515136719,0.3220607757568359
0.3806499481201172,0.3261995315551758
0.3790872573852539,0.3261995315551758
0.3789493560791016,0.3218210220336914
0.3789493560791016,0.3218210220336914
0.3833209991455078,0.3276975631713867
0.3833209991455078,0.3276975631713867
0.3788881301879883,0.3242603302001953
0.3788881301879883,0.3242603302001953
0.3821439743041992,0.3239427566528320
0.3821439743041992,0.3239427566528320
0.3813394546508789,0.3267866134643554
0.3813394546508789,0.3267866134643554
0.3796932220458984,0.3231370925903320
0.3796932220458984,0.3231370925903320
0.3841707229614258,0.3286811828613281
0.3841707229614258,0.3286811828613281
0.3794643402099609,0.3256765365600586
0.3794643402099609,0.3256765365600586
0.3819414138793945,0.3225431442260742
0.3858192443847656,0.3225431442260742
0.3799621582031250,0.3243541717529297
0.3799621582031250,0.3243541717529297
0.3771371841430664,0.3187957763671875
0.3771371841430664,0.3187957763671875
0.3803604125976562,0.3227828979492187
0.3803604125976562,0.3227828979492187
0.3746452331542969,0.3172508239746094
0.3746452331542969,0.3172508239746094
0.3768390655517578,0.3145545959472656
0.3768390655517578,0.3145545959472656
0.3756855010986328,0.3172199249267578
0.3756855010986328,0.3172199249267578
0.3734373092651367,0.3135395050048828
0.3734373092651367,0.3135395050048828
0.3775508880615234,0.3175827026367187
0.3775508880615234,0.3175827026367187
0.3725938796997070,0.3140968322753906
0.3725938796997070,0.3140968322753906
0.3754920959472656,0.3124574661254882
0.3754920959472656,0.3124574661254882
0.3746904373168945,0.3165510177612305
0.3746904373168945,0.3165510177612305
0.3728713989257812,0.3120306015014648
0.3728713989257812,0.3120306015014648
0.3772939682006836,0.3169544219970703
0.3772939682006836,0.3169544219970703
0.3727117538452148,0.3139308929443359
0.3727117538452148,0.3139308929443359
0.3754022598266601,0.3130514144897461
0.3754022598266601,0.3130514144897461
0.3748781204223633,0.3159341812133789
0.3776086807250976,0.3159341812133789
0.3730865478515625,0.3122365951538086
0.3741983413696289,0.3122365951538086
0.3776847839355469,0.3172697067260742
0.3776847839355469,0.3172697067260742
0.3731729507446289,0.3154666900634766
0.3731729507446289,0.3154666900634766
0.3760871887207031,0.3135103225708007
0.3760871887207031,0.3135103225708007
0.3757106781005859,0.3174636840820312
0.3757106781005859,0.3174636840820312
0.3743671417236328,0.3139057159423828
0.3743671417236328,0.3139057159423828
0.3788389205932617,0.3197221755981445
0.3788389205932617,0.3197221755981445
0.3742670059204101,0.3165607452392578
0.3742670059204101,0.3165607452392578
0.3769741058349609,0.3150650024414062
0.3769741058349609,0.3150650024414062
0.3765649795532227,0.3187831878662109
0.3765649795532227,0.3187831878662109
0.3749376296997070,0.3156486511230469
0.3749376296997070,0.3156486511230469
0.3794168472290039,0.3198423385620117
0.3794168472290039,0.3198423385620117
0.3744907379150391,0.3169498443603516
0.3744907379150391,0.3169498443603516
0.3773935317993164,0.3153900146484375
0.3773935317993164,0.3153900146484375
0.3766599655151367,0.3196969985961914
0.3755670547485351,0.3196969985961914
0.3750148773193359,0.3149740219116211
0.3748128890991211,0.3149740219116211
0.3793607711791992,0.3198663711547852
0.3821605682373047,0.3198663711547852
0.3745725631713867,0.3169424057006836
0.3711771011352539,0.3169424057006836
0.3776115417480468,0.3162151336669922
0.3821371078491211,0.3162151336669922
0.3768711090087891,0.3194446563720703
0.3768711090087891,0.3194446563720703
0.3754829406738281,0.3154918670654297
0.3754829406738281,0.3154918670654297
0.3801235198974609,0.3206480026245117
0.3801235198974609,0.3206480026245117
0.3750000000000000,0.3185937881469726
0.3750000000000000,0.3185937881469726
0.3782289505004883,0.3166854858398437
0.3782289505004883,0.3166854858398437
0.3774358749389649,0.3205942153930664
0.3774358749389649,0.3205942153930664
0.3763275146484375,0.3166036605834961
0.3763275146484375,0.3166036605834961
0.3808782577514648,0.3225259780883789
0.3808782577514648,0.3225259780883789
0.3756763458251953,0.3192111968994141
0.3756763458251953,0.3192111968994141
0.3787347793579102,0.3178058624267578
0.3831024169921875,0.3178058624267578
0.3786088943481445,0.3221168518066406
0.3786088943481445,0.3221168518066406
0.3770570755004883,0.3188753128051758
0.3770570755004883,0.3188753128051758
0.3816661834716797,0.3229225158691406
0.3816661834716797,0.3229225158691406
0.3764024734497070,0.3205553054809570
0.3764024734497070,0.3205553054809570
0.3796325683593750,0.3191877365112304
0.3796325683593750,0.3191877365112304
0.3791078567504882,0.3241859436035156
0.3791078567504882,0.3241859436035156
0.3778198242187500,0.3192380905151367
0.3778198242187500,0.3192380905151367
0.3823757171630859,0.3243759155273437
0.3823757171630859,0.3243759155273437
0.3770233154296875,0.3217363357543945
0.3770233154296875,0.3217363357543945
0.3806722640991211,0.3211629867553711
0.3806722640991211,0.3211629867553711
0.3798036575317383,0.3248931884765625
0.3798036575317383,0.3248931884765625
0.3784286499023438,0.3202268600463867
0.3784286499023438,0.3202268600463867
0.3834480285644531,0.3259380340576172
0.3834480285644531,0.3259380340576172
0.3774707794189453,0.3235376358032226
0.3774707794189453,0.3235376358032226
0.3814075469970703,0.3218032836914063
0.3814075469970703,0.3218032836914063
0.3803735733032226,0.3260313034057617
0.3803735733032226,0.3260313034057617
0.3790952682495117,0.3211166381835938
0.3790952682495117,0.3211166381835938
0.3840402603149414,0.3277330398559570
0.3840402603149414,0.3277330398559570
0.3777780532836914,0.3237590789794922
0.3777780532836914,0.3237590789794922
0.3817829132080078,0.3227445602416992
0.3817829132080078,0.3227445602416992
0.3810379028320313,0.3273324966430664
0.3808422088623047,0.3273324966430664
0.3796165466308594,0.3229551315307617
0.3796165466308594,0.3229551315307617
0.3847972869873047,0.3284585952758789
0.3847972869873047,0.3284585952758789
0.3784498214721679,0.3251701354980469
0.3784498214721679,0.3251701354980469
0.3828163146972656,0.3242563247680664
0.3828163146972656,0.3242563247680664
0.3817811965942383,0.3296722412109375
0.3817811965942383,0.3296722412109375
0.3803094863891601,0.3235582351684570
0.3803094863891601,0.3235582351684570
0.3853431701660156,0.3296270370483398
0.3853431701660156,0.3296270370483398
0.3788429260253906,0.3261589050292968
0.3788429260253906,0.3261589050292968
0.3828386306762695,0.3251197814941406
0.3828386306762695,0.3251197814941406
0.3811735153198242,0.3276128768920898
0.3811735153198242,0.3276128768920898
0.3782163619995117,0.3201364517211914
0.3782163619995117,0.3201364517211914
0.3823728561401367,0.3244571685791016
0.3823728561401367,0.3244571685791016
0.3744546890258789,0.3199310302734375
0.3744546890258789,0.3199310302734375
0.3778049468994141,0.3164148330688477
0.3778049468994141,0.3164148330688477
0.3762851715087890,0.3201536178588867
0.3762851715087890,0.3201536178588867
0.3742029190063477,0.3136728286743164
0.3742029190063477,0.3136728286743164
0.3790981292724609,0.3199430465698242
0.3790981292724609,0.3199430465698242
0.3720085144042969,0.3153539657592773
0.3720085144042969,0.3153539657592773
0.3762096405029297,0.3138954162597656
0.3762096405029297,0.3138954162597656
0.3754440307617187,0.3183980941772461
0.3754440307617187,0.3183980941772461
0.3733709335327148,0.3131160736083984
0.3733709335327148,0.3131160736083984
0.3782575607299805,0.3182682037353515
0.3782575607299805,0.3182682037353515
0.3715547561645507,0.3148796081542969
0.3715547561645507,0.3148796081542969
0.3759693145751953,0.3134124755859375
0.3759693145751953,0.3134124755859375
0.3753828048706054,0.3188272476196289
0.3753828048706054,0.3188272476196289
0.3733022689819336,0.3124151229858398
0.3733022689819336,0.3124151229858398
0.3784515380859375,0.3183483123779297
0.3784515380859375,0.3183483123779297
0.3720611572265625,0.3154054641723633
0.3720611572265625,0.3154054641723633
0.3762382507324218,0.3150581359863281
0.3762382507324218,0.3150581359863281
0.3760202407836914,0.3194543838500977
0.3760202407836914,0.3194543838500977
0.3740678787231445,0.3141557693481445
0.3740678787231445,0.3141557693481445
0.3795192718505859,0.3201971054077148
0.3795192718505859,0.3201971054077148
0.3732736587524414,0.3181222915649414
0.3732736587524414,0.3181222915649414
0.3774885177612304,0.3164165496826172
0.3774885177612304,0.3164165496826172
0.3774415969848633,0.3213867187500000
0.3774415969848633,0.3213867187500000
0.3754085540771484,0.3156560897827148
0.3754085540771484,0.3156560897827148
0.3802436828613281,0.3220762252807617
0.3802436828613281,0.3220762252807617
0.3736976623535156,0.3179849624633789
0.3736976623535156,0.3179849624633789
0.3776887893676757,0.3166683197021484
0.3776887893676757,0.3166683197021484
0.3776430130004882,0.3215475082397461
0.3776430130004882,0.3215475082397461
0.3751956939697266,0.3163536071777344
0.3751956939697266,0.3163536071777344
0.3800205230712890,0.3213123321533203
0.3800205230712890,0.3213123321533203
0.3736358642578125,0.3180301666259766
0.3736358642578125,0.3180301666259766
0.3778169631958008,0.3166791915893555
0.3778169631958008,0.3166791915893555
0.3774364471435547,0.3229122161865234
0.3774364471435547,0.3229122161865234
0.3751876831054687,0.3160051345825195
0.3751876831054687,0.3160051345825195
0.3802860260009766,0.3220190048217773
0.3802860260009766,0.3220190048217773
0.3739660263061523,0.3189857482910156
0.3739660263061523,0.3189857482910156
0.3783840179443359,0.3187191009521484
0.3783840179443359,0.3187191009521484
0.3784011840820312,0.3231004714965820
0.3786764144897461,0.3231004714965820
0.3757015228271484,0.3169178009033203
0.3757015228271484,0.3169178009033203
0.3810916900634765,0.3231222152709961
0.3810916900634765,0.3231222152709961
0.3745279312133789,0.3206634521484375
0.3745279312133789,0.3206634521484375
0.3789871215820312,0.3189125061035156
0.3789871215820312,0.3189125061035156
0.3789081573486328,0.3242597579956055
0.3789081573486328,0.3242597579956055
0.3765781402587891,0.3181921005249023
0.3765781402587891,0.3181921005249023
0.3817600250244140,0.3250288009643554
0.3817600250244140,0.3250288009643554
0.3754262924194336,0.3214805603027344
0.3754262924194336,0.3214805603027344
0.3796497344970703,0.3203390121459961
0.3796497344970703,0.3203390121459961
0.3803638458251953,0.3256885528564453
0.3803638458251953,0.3256885528564453
0.3773511886596679,0.3206130981445313
0.3773511886596679,0.3206130981445313
0.3824512481689453,0.3253429412841797
0.3824512481689453,0.3253429412841797
0.3762210845947265,0.3230014801025390
0.3762210845947265,0.3230014801025390
0.3802448272705078,0.3206148147583008
0.3802448272705078,0.3206148147583008
0.3812044143676758,0.3275774002075195
0.3812044143676758,0.3275774002075195
0.3833559036254883,0.3213048934936523
0.3833559036254883,0.3213048934936523
0.3830566406250000,0.3257686614990234
0.3830566406250000,0.3257686614990234
0.3775217056274414,0.3244102478027344
0.3775217056274414,0.3244102478027344
0.3804010391235351,0.3235084533691406
0.3804010391235351,0.3235084533691406
0.3820672988891601,0.3279441833496093
0.3820672988891601,0.3279441833496093
0.3743728637695312,0.3224796295166015
0.3743728637695312,0.3224796295166015
0.3836952209472656,0.3264049530029297
0.3836952209472656,0.3264049530029297
0.3784006118774414,0.3264850616455078
0.3784006118774414,0.3264850616455078
0.3808942794799804,0.3238992691040039
0.3808942794799804,0.3238992691040039
0.3826435089111328,0.3291257858276367
0.3826435089111328,0.3291257858276367
0.3798368453979492,0.3238563537597656
0.3798368453979492,0.3238563537597656
0.3844974517822266,0.3291378021240234
0.3844974517822266,0.3291378021240234
0.3789396286010742,0.3268014907836914
0.3789396286010742,0.3268014907836914
0.3817926406860351,0.3252244949340820
0.3817926406860351,0.3252244949340820
0.3837558746337891,0.3306386947631836
0.3837558746337891,0.3306386947631836
0.3803861618041992,0.3256502151489258
0.3803861618041992,0.3256502151489258
0.3853254318237305,0.3296482086181641
0.3853254318237305,0.3296482086181641
0.3796422958374023,0.3276008605957031
0.3796422958374023,0.3276008605957031
0.3825902938842773,0.3254728317260742
0.3825902938842773,0.3254728317260742
0.3828037261962891,0.3295772552490234
0.3828037261962891,0.3295772552490234
0.3781419754028320,0.3206359863281250
0.3781419754028320,0.3206359863281250
0.3816421508789062,0.3234117507934570
0.3816421508789062,0.3234117507934570
0.3748958587646484,0.3195356369018554
0.3748958587646484,0.3195356369018554
0.3767738342285156,0.3169578552246093
0.3767738342285156,0.3169578552246093
0.3775932312011719,0.3204414367675781
0.3775932312011719,0.3204414367675781
0.3735809326171875,0.3135732650756836
0.3735809326171875,0.3135732650756836
0.3781934738159179,0.3174842834472656
0.3781934738159179,0.3174842834472656
0.3724233627319336,0.3159439086914063
0.3724233627319336,0.3159439086914063
0.3748666763305664,0.3131755828857422
0.3748666763305664,0.3131755828857422
0.3762176513671875,0.3181217193603516
0.3762176513671875,0.3181217193603516
0.3727506637573242,0.3119974136352539
0.3727506637573242,0.3119974136352539
0.3772132873535156,0.3163444519042969
0.3772132873535156,0.3163444519042969
0.3719049453735351,0.3142009735107422
0.3719049453735351,0.3142009735107422
0.3739053726196289,0.3123115539550781
0.3739053726196289,0.3123115539550781
0.3785888671875000,0.3189027786254883
0.3785888671875000,0.3145105361938477
0.3785888671875000,0.3145105361938477
0.3746246337890625,0.3163324356079101
0.3711278915405273,0.3163324356079101
0.3724210739135742,0.3117193222045898
0.3734012603759765,0.3117193222045898
0.3770690917968750,0.3187265396118164
0.3769117355346679,0.3187265396118164
0.3728456497192383,0.3138479232788086
0.3686084747314453,0.3138479232788086
0.3789659500122070,0.3155410766601562
0.3837987899780274,0.3155410766601562
0.3750738143920898,0.3174419403076172
0.3713785171508789,0.3174419403076172
0.3740976333618164,0.3133638381958008
0.3751316070556641,0.3133638381958008
0.3777528762817383,0.3200551986694336
0.3788274765014648,0.3200551986694336
0.3742446899414062,0.3160051345825195
0.3700830459594727,0.3160051345825195
0.3794174194335938,0.3171730041503906
0.3844350814819336,0.3171730041503906
0.3764333724975586,0.3187551498413086
0.3730110168457031,0.3187551498413086
0.3743539810180664,0.3144899368286133
0.3752059936523438,0.3144899368286133
0.3784360885620117,0.3209169387817383
0.3794328689575195,0.3209169387817383
0.3736410140991211,0.3158391952514648
0.3696247100830078,0.3158391952514648
0.3797172546386718,0.3173074722290039
0.3845077514648437,0.3173074722290039
0.3761787414550781,0.3187105178833008
0.3729595184326172,0.3187105178833008
0.3745141983032226,0.3142948150634766
0.3750463485717773,0.3142948150634766
0.3781024932861328,0.3210960388183594
0.3793224334716797,0.3210960388183594
0.3739002227783203,0.3160017013549805
0.3701488494873047,0.3160017013549805
0.3798110961914062,0.3179780960083008
0.3847469329833984,0.3179780960083008
0.3765363693237305,0.3195196151733398
0.3731231689453125,0.3195196151733398
0.3744066238403320,0.3150318145751953
0.3751968383789062,0.3150318145751953
0.3787948608398438,0.3216745376586914
0.3800136566162109,0.3216745376586914
0.3745965957641602,0.3171873092651367
0.3707605361938476,0.3171873092651367
0.3802288055419922,0.3189331054687500
0.3852647781372070,0.3189331054687500
0.3768751144409180,0.3204746246337891
0.3735265731811523,0.3204746246337891
0.3754692077636719,0.3162117004394531
0.3763938903808594,0.3162117004394531
0.3795656204223632,0.3234020233154297
0.3809223175048828,0.3234020233154297
0.3756528854370117,0.3188175201416015
0.3715730667114258,0.3188175201416015
0.3803810119628906,0.3201913833618164
0.3857013702392578,0.3201913833618164
0.3781505584716797,0.3215291976928711
0.3746200561523437,0.3215291976928711
0.3761392593383789,0.3179809570312500
0.3773305892944336,0.3179809570312500
0.3804834365844726,0.3245870590209961
0.3814607620239258,0.3245870590209961
0.3761472702026367,0.3202388763427734
0.3721590042114258,0.3202388763427734
0.3812015533447266,0.3211727142333984
0.3864063262939453,0.3211727142333984
0.3789316177368164,0.3233173370361328
0.3752328872680664,0.3233173370361328
0.3769929885864258,0.3193937301635742
0.3779262542724609,0.3193937301635742
0.3807918548583984,0.3259225845336914
0.3821451187133789,0.3259225845336914
0.3772195816040039,0.3214828491210938
0.3731466293334961,0.3214828491210938
0.3818172454833984,0.3228641510009765
0.3874992370605468,0.3228641510009765
0.3798683166503906,0.3245389938354492
0.3760488510131836,0.3245389938354492
0.3773860931396484,0.3205982208251953
0.3785419464111328,0.3205982208251953
0.3819482803344726,0.3273965835571289
0.3834228515625000,0.3273965835571289
0.3780784606933594,0.3231857299804687
0.3739517211914062,0.3231857299804687
0.3826526641845703,0.3241819381713867
0.3882064819335938,0.3241819381713867
0.3804307937622070,0.3258230209350586
0.3765140533447265,0.3258230209350586
0.3784246444702148,0.3217969894409179
0.3796451568603516,0.3217969894409179
0.3828752517700195,0.3287961959838867
0.3841192245483399,0.3287961959838867
0.3789739608764648,0.3245538711547851
0.3747625350952148,0.3245538711547851
0.3829885482788086,0.3255546569824219
0.3886264801025390,0.3255546569824219
0.3814802169799805,0.3271133422851563
0.3778793334960938,0.3271133422851563
0.3792583465576172,0.3233865737915039
0.3801944732666016,0.3233865737915039
0.3837953567504883,0.3306421279907226
0.3852836608886719,0.3306421279907226
0.3792165756225586,0.3257961273193359
0.3752420425415039,0.3257961273193359
0.3840173721313476,0.3266790390014648
0.3895957946777344,0.3266790390014648
0.3821531295776367,0.3285226821899414
0.3786460876464844,0.3285226821899414
0.3797985076904297,0.3242574691772461
0.3805400848388672,0.3242574691772461
0.3834989547729492,0.3304349899291992
0.3845146179199219,0.3304349899291992
0.3779096603393555,0.3230833053588867
0.3732496261596679,0.3230833053588867
0.3814407348632812,0.3224338531494140
0.3862237930297852,0.3224338531494140
0.3780424118041992,0.3220390319824218
0.3741182327270507,0.3220390319824218
0.3744529724121093,0.3156251907348633
0.3745090484619141,0.3156251907348633
0.3781631469726562,0.3213855743408203
0.3796274185180664,0.3213855743408203
0.3728502273559570,0.3153608322143555
0.3686302185058594,0.3153608322143555
0.3770135879516601,0.3155714035034179
0.3822360992431640,0.3155714035034179
0.3742097854614257,0.3162734985351562
0.3708492279052734,0.3162734985351562
0.3721166610717773,0.3114452362060547
0.3726070404052734,0.3114452362060547
0.3763732910156250,0.3187168121337891
0.3780258178710937,0.3187168121337891
0.3715278625488281,0.3131938934326172
0.3674154281616211,0.3131938934326172
0.3756008148193359,0.3137580871582031
0.3809635162353516,0.3137580871582031
0.3736776351928711,0.3148281097412109
0.3705574035644531,0.3148281097412109
0.3715181350708008,0.3106143951416016
0.3720342636108399,0.3106143951416016
0.3759069442749023,0.3178928375244141
0.3776916503906250,0.3178928375244141
0.3706518173217773,0.3122766494750976
0.3667333602905273,0.3122766494750976
0.3752511978149414,0.3129055023193359
0.3808908462524414,0.3129055023193359
0.3734516143798828,0.3147348403930664
0.3702821731567383,0.3147348403930664
0.3713756561279297,0.3108415603637695
0.3720296859741211,0.3108415603637695
0.3755784988403320,0.3179574966430664
0.3774770736694336,0.3179574966430664
0.3715364456176758,0.3131040573120117
0.3677547454833984,0.3131040573120117
0.3757438659667969,0.3140356063842774
0.3815414428710938,0.3140356063842774
0.3745473861694336,0.3162134170532226
0.3711662292480469,0.3162134170532226
0.3719409942626953,0.3124351501464844
0.3728914260864258,0.3124351501464844
0.3767784118652344,0.3193187713623047
0.3786008834838867,0.3193187713623047
0.3725423812866211,0.3150438308715820
0.3685924530029297,0.3150438308715820
0.3764024734497070,0.3155307769775391
0.3822916030883789,0.3155307769775391
0.3749931335449219,0.3173320770263672
0.3715118408203125,0.3173320770263672
0.3728273391723633,0.3134857177734375
0.3738613128662109,0.3134857177734375
0.3773448944091797,0.3201999664306641
0.3790643692016601,0.3201999664306641
0.3732118606567383,0.3157773971557617
0.3689987182617188,0.3157773971557617
0.3760334014892578,0.3155754089355469
0.3821199417114258,0.3155754089355469
0.3754343032836914,0.3174625396728515
0.3719152450561523,0.3174625396728515
0.3730064392089844,0.3140533447265625
0.3739809036254882,0.3140533447265625
0.3774484634399414,0.3207098007202148
0.3793579101562500,0.3207098007202148
0.3729349136352539,0.3161281585693359
0.3688213348388672,0.3161281585693359
0.3765764236450195,0.3159290313720703
0.3827825546264648,0.3159290313720703
0.3758611679077148,0.3183706283569336
0.3723226547241211,0.3183706283569336
0.3735031127929687,0.3149946212768555
0.3744363784790039,0.3149946212768555
0.3775972366333007,0.3212911605834961
0.3795484542846679,0.3212911605834961
0.3739397048950195,0.3171089172363281
0.3698146820068359,0.3171089172363281
0.3770433425903320,0.3170820236206054
0.3834045410156250,0.3170820236206054
0.3765861511230469,0.3197708129882812
0.3730276107788086,0.3197708129882812
0.3739465713500976,0.3163501739501953
0.3749490737915039,0.3163501739501953
0.3787256240844726,0.3225191116333008
0.3808650970458984,0.3225191116333008
0.3748895645141602,0.3187808990478516
0.3706884384155273,0.3187808990478516
0.3778409957885742,0.3184604644775391
0.3842210769653320,0.3184604644775391
0.3771148681640625,0.3209753036499023
0.3736215591430664,0.3209753036499023
0.3749874114990234,0.3175712585449219
0.3760717391967773,0.3175712585449219
0.3794843673706055,0.3240571975708008
0.3816713333129882,0.3240571975708008
0.3756477355957031,0.3203636169433594
0.3713338851928711,0.3203636169433594
0.3780761718750000,0.3195356369018554
0.3845935821533203,0.3195356369018554
0.3781568527221680,0.3221380233764649
0.3747791290283203,0.3221380233764649
0.3759109497070313,0.3191551208496093
0.3767738342285156,0.3191551208496093
0.3804645538330078,0.3253967285156250
0.3825771331787109,0.3253967285156250
0.3761810302734375,0.3215755462646484
0.3720016479492188,0.3215755462646484
0.3791576385498047,0.3207630157470703
0.3858489990234375,0.3207630157470703
0.3788990020751953,0.3237121582031250
0.3755407333374023,0.3237121582031250
0.3767423629760742,0.3207767486572266
0.3776750564575195,0.3207767486572266
0.3809223175048828,0.3267002105712891
0.3832323074340820,0.3267002105712891
0.3772670745849609,0.3228109359741211
0.3731220245361328,0.3228109359741211
0.3800920486450195,0.3223234176635742
0.3866334915161133,0.3223234176635742
0.3798334121704102,0.3252199172973633
0.3765254974365234,0.3252199172973633
0.3773454666137695,0.3218936920166016
0.3781042098999023,0.3218936920166016
0.3821222305297852,0.3279047012329102
0.3846038818359375,0.3279047012329102
0.3780693054199218,0.3243885040283203
0.3738578796386718,0.3243885040283203
0.3809200286865234,0.3237516403198242
0.3873785018920898,0.3237516403198242
0.3802087783813476,0.3263580322265625
0.3770725250244141,0.3263580322265625
0.3786312103271484,0.3232652664184570
0.3794151306152344,0.3232652664184570
0.3828958511352539,0.3295257568359375
0.3855628967285156,0.3295257568359375
0.3790351867675781,0.3257326126098632
0.3745302200317382,0.3257326126098632
0.3813480377197265,0.3247947692871094
0.3878654479980468,0.3247947692871094
0.3809789657592773,0.3271751403808594
0.3780715942382812,0.3271751403808594
0.3786500930786132,0.3231107711791992
0.3785974502563477,0.3231107711791992
0.3817806243896484,0.3274909973144531
0.3836620330810547,0.3274909973144531
0.3758394241333008,0.3211830139160156
0.3707759857177734,0.3211830139160156
0.3776784896850586,0.3180204391479492
0.3835264205932617,0.3180204391479492
0.3760328292846680,0.3192878723144531
0.3726522445678711,0.3192878723144531
0.3732089996337891,0.3143966674804687
0.3731866836547851,0.3143966674804687
0.3764739990234375,0.3193502426147461
0.3789098739624023,0.3193502426147461
0.3719335556030273,0.3143474578857422
0.3675699234008789,0.3143474578857422
0.3743888854980469,0.3127761840820312
0.3806905746459961,0.3127761840820312
0.3735528945922851,0.3153985977172851
0.3706008911132813,0.3153985977172851
0.3710918426513672,0.3113576889038086
0.3713470458984375,0.3113576889038086
0.3753370285034179,0.3167495727539062
0.3781894683837890,0.3167495727539062
0.3709545135498047,0.3128305435180664
0.3664100646972656,0.3128305435180664
0.3734733581542969,0.3114395141601562
0.3798814773559570,0.3114395141601562
0.3726087570190429,0.3141632080078125
0.3698816299438477,0.3141632080078125
0.3708612442016602,0.3103923797607422
0.3713121414184570,0.3103923797607422
0.3750234603881836,0.3162294387817383
0.3778507232666016,0.3162294387817383
0.3708658218383789,0.3126354217529297
0.3664592742919922,0.3126354217529297
0.3707078933715820,0.3105657577514648
0.3677484512329102,0.3105657577514648
0.3757621765136719,0.3118000030517578
0.3757621765136719,0.3118000030517578
0.3724096298217773,0.3149894714355468
0.3724096298217773,0.3149894714355468
0.3735191345214844,0.3118532180786133
0.3735191345214844,0.3118532180786133
0.3752489089965820,0.3153917312622070
0.3752489089965820,0.3153917312622070
0.3719593048095703,0.3123962402343750
0.3719593048095703,0.3123962402343750
0.3768362045288086,0.3140876770019531
0.3768362045288086,0.3140876770019531
0.3735803604125976,0.3161281585693359
0.3735803604125976,0.3161281585693359
0.3746458053588867,0.3136528015136719
0.3746458053588867,0.3136528015136719
0.3763160705566406,0.3168537139892578
0.3763160705566406,0.3168537139892578
0.3727272033691406,0.3144996643066406
0.3727272033691406,0.3144996643066406
0.3774570465087890,0.3143131256103516
0.3774570465087890,0.3143131256103516
0.3740701675415039,0.3168285369873047
0.3740701675415039,0.3168285369873047
0.3749032974243164,0.3139898300170899
0.3749032974243164,0.3139898300170899
0.3763240814208984,0.3176427841186523
0.3763240814208984,0.3176427841186523
0.3729686737060547,0.3140665054321289
0.3729686737060547,0.3140665054321289
0.3774948120117188,0.3144184112548828
0.3774948120117188,0.3144184112548828
0.3743408203125000,0.3170906066894531
0.3743408203125000,0.3170906066894531
0.3750183105468750,0.3151330947875977
0.3780578613281250,0.3151330947875977
0.3766559600830078,0.3175054550170898
0.3766559600830078,0.3175054550170898
0.3733251571655273,0.3150123596191406
0.3733251571655273,0.3150123596191406
0.3781723022460937,0.3152715682983399
0.3781723022460937,0.3152715682983399
0.3752014160156250,0.3189891815185547
0.3752014160156250,0.3189891815185547
0.3758274078369140,0.3156520843505859
0.3758274078369140,0.3156520843505859
0.3774295806884765,0.3186492919921875
0.3774295806884765,0.3186492919921875
0.3744518280029297,0.3164451599121094
0.3744518280029297,0.3164451599121094
0.3789751052856445,0.3173200607299805
0.3789751052856445,0.3173200607299805
0.3762062072753906,0.3195579528808594
0.3762062072753906,0.3195579528808594
0.3765186309814453,0.3172410964965820
0.3765186309814453,0.3172410964965820
0.3781929016113281,0.3199138641357422
0.3781929016113281,0.3199138641357422
0.3754240036010742,0.3188901901245117
0.3754240036010742,0.3188901901245117
0.3795547485351562,0.3180685043334961
0.3795547485351562,0.3180685043334961
0.3771331787109375,0.3209867477416992
0.3771331787109375,0.3209867477416992
0.3775995254516601,0.3188449859619141
0.3775995254516601,0.3188449859619141
0.3789321899414063,0.3219995498657227
0.3789321899414063,0.3219995498657227
0.3763126373291015,0.3195241928100586
0.3763126373291015,0.3195241928100586
0.3805686950683594,0.3195087432861328
0.3858272552490234,0.3195087432861328
0.3780881881713867,0.3224081039428711
0.3780881881713867,0.3224081039428711
0.3783943176269531,0.3206708908081055
0.3783943176269531,0.3206708908081055
0.3796628952026367,0.3226535797119141
0.3796628952026367,0.3226535797119141
0.3771211624145508,0.3209009170532227
0.3771211624145508,0.3209009170532227
0.3816616058349609,0.3208797454833984
0.3816616058349609,0.3208797454833984
0.3790672302246094,0.3244651794433593
0.3790672302246094,0.3244651794433593
0.3794517517089844,0.3213426589965820
0.3794517517089844,0.3213426589965820
0.3804359436035156,0.3237888336181641
0.3804359436035156,0.3237888336181641
0.3777900695800781,0.3219165802001953
0.3777900695800781,0.3219165802001953
0.3820844650268554,0.3221431732177734
0.3820844650268554,0.3221431732177734
0.3792039871215820,0.3240652084350586
0.3792039871215820,0.3240652084350586
0.3793195724487304,0.3216053009033203
0.3793195724487304,0.3216053009033203
0.3803369522094727,0.3237316131591797
0.3803369522094727,0.3237316131591797
0.3776641845703125,0.3228693008422852
0.3776641845703125,0.3228693008422852
0.3817119598388672,0.3215864181518555
0.3817119598388672,0.3215864181518555
0.3790197372436523,0.3242649078369140
0.3790197372436523,0.3242649078369140
0.3792526245117188,0.3219652175903320
0.3792526245117188,0.3219652175903320
0.3799924850463867,0.3244897842407227
0.3799924850463867,0.3244897842407227
0.3771331787109375,0.3212699890136719
0.3771331787109375,0.3212699890136719
0.3800188064575195,0.3188014984130859
0.3800188064575195,0.3188014984130859
0.3761667251586914,0.3188707351684570
0.3733377456665039,0.3150690078735351
0.3739700317382812,0.3129987716674805
0.3739700317382812,0.3129987716674805
0.3711542129516601,0.3119848251342773
0.3711542129516601,0.3119848251342773
0.3727907180786132,0.3080245971679688
0.3727907180786132,0.3080245971679688
0.3719633102416992,0.3119544982910156
0.3719633102416992,0.3119544982910156
0.3695165634155274,0.3082105636596680
0.3695165634155274,0.3082105636596680
0.3712062835693359,0.3086008071899414
0.3712062835693359,0.3086008071899414
0.3695165634155274,0.3089778900146484
0.3695165634155274,0.3089778900146484
0.3716760635375976,0.3065723419189453
0.3716760635375976,0.3065723419189453
0.3712497711181640,0.3099203109741211
0.3712497711181640,0.3099203109741211
0.3690874099731445,0.3073104858398437
0.3690874099731445,0.3073104858398437
0.3711175918579102,0.3082122802734375
0.3711175918579102,0.3082122802734375
0.3694427490234375,0.3093412399291992
0.3694427490234375,0.3093412399291992
0.3717773437500000,0.3058799743652343
0.3776298522949219,0.3058799743652343
0.3713075637817383,0.3099494934082031
0.3713075637817383,0.3099494934082031
0.3694519042968750,0.3075222015380859
0.3694519042968750,0.3075222015380859
0.3715496063232422,0.3094991683959961
0.3715496063232422,0.3094991683959961
0.3701042175292968,0.3096982955932617
0.3701042175292968,0.3096982955932617
0.3727180480957031,0.3073133468627929
0.3727180480957031,0.3073133468627929
0.3726854324340820,0.3118057250976562
0.3726854324340820,0.3118057250976562
0.3708028793334961,0.3103202819824218
0.3746629714965820,0.3103202819824218
0.3730155944824219,0.3110807418823242
0.3730155944824219,0.3110807418823242
0.3715364456176758,0.3118829727172852
0.3715364456176758,0.3118829727172852
0.3741594314575195,0.3092988967895507
0.3741594314575195,0.3092988967895507
0.3736627578735351,0.3140905380249023
0.3736627578735351,0.3140905380249023
0.3716165542602539,0.3108924865722656
0.3716165542602539,0.3108924865722656
0.3735940933227539,0.3119047164916992
0.3735940933227539,0.3119047164916992
0.3720880508422851,0.3124357223510742
0.3720880508422851,0.3124357223510742
0.3742109298706054,0.3101268768310547
0.3742109298706054,0.3101268768310547
0.3736776351928711,0.3133644104003906
0.3736776351928711,0.3133644104003906
0.3715084075927734,0.3107522964477539
0.3715084075927734,0.3107522964477539
0.3736404418945312,0.3118228912353516
0.3736404418945312,0.3118228912353516
0.3721149444580078,0.3132699966430664
0.3721149444580078,0.3132699966430664
0.3744398117065429,0.3098258972167969
0.3744398117065429,0.3098258972167969
0.3741611480712890,0.3140544891357422
0.3741611480712890,0.3140544891357422
0.3720136642456054,0.3117341995239258
0.3720136642456054,0.3117341995239258
0.3742040634155273,0.3135074615478515
0.3742040634155273,0.3135074615478515
0.3730504989624023,0.3138605117797851
0.3730504989624023,0.3138605117797851
0.3753118515014648,0.3111951828002930
0.3753118515014648,0.3111951828002930
0.3753118515014648,0.3155765533447266
0.3753118515014648,0.3155765533447266
0.3727260589599609,0.3138965606689453
0.3727260589599609,0.3138965606689453
0.3753547668457031,0.3143297195434570
0.3753547668457031,0.3143297195434570
0.3740638732910156,0.3156480789184570
0.3740638732910156,0.3156480789184570
0.3760860443115234,0.3124780654907227
0.3821090698242187,0.3124780654907227
0.3764533996582031,0.3178070068359375
0.3764533996582031,0.3178070068359375
0.3735042572021484,0.3145998001098633
0.3735042572021484,0.3145998001098633
0.3762079238891601,0.3156234741210938
0.3762079238891601,0.3156234741210938
0.3750223159790039,0.3169321060180664
0.3750223159790039,0.3169321060180664
0.3768367767333984,0.3144556045532226
0.3768367767333984,0.3144556045532226
0.3772682189941406,0.3183986663818359
0.3772682189941406,0.3183986663818359
0.3742149353027344,0.3160074234008789
0.3782049179077148,0.3160074234008789
0.3771709442138672,0.3170969009399414
0.3771709442138672,0.3170969009399414
0.3759504318237304,0.3190143585205078
0.3759504318237304,0.3190143585205078
0.3776779174804688,0.3151943206787109
0.3776779174804688,0.3151943206787109
0.3781579971313476,0.3198143005371094
0.3781579971313476,0.3198143005371094
0.3751625061035156,0.3173767089843750
0.3751625061035156,0.3173767089843750
0.3779170989990234,0.3190401077270508
0.3779170989990234,0.3190401077270508
0.3766393661499023,0.3194171905517578
0.3766393661499023,0.3194171905517578
0.3782094955444336,0.3163061141967773
0.3782094955444336,0.3163061141967773
0.3787107467651367,0.3205163955688476
0.3787107467651367,0.3205163955688476
0.3754743576049804,0.3186424255371094
0.3793327331542969,0.3186424255371094
0.3783617019653320,0.3190755844116211
0.3783617019653320,0.3190755844116211
0.3770954132080078,0.3202795028686523
0.3770954132080078,0.3202795028686523
0.3789356231689453,0.3173583984375000
0.3849826812744140,0.3173583984375000
0.3792028427124023,0.3223423004150390
0.3792028427124023,0.3223423004150390
0.3762800216674805,0.3192615509033203
0.3762800216674805,0.3192615509033203
0.3789962768554687,0.3206319808959961
0.3789962768554687,0.3206319808959961
0.3779062271118164,0.3214719772338867
0.3779062271118164,0.3214719772338867
0.3797681808471680,0.3194046020507812
0.3797681808471680,0.3194046020507812
0.3795061111450195,0.3222358703613281
0.3795061111450195,0.3222358703613281
0.3760917663574219,0.3187105178833008
0.3760917663574219,0.3187105178833008
0.3779972076416016,0.3185880661010742
0.3779972076416016,0.3185880661010742
0.3753793716430664,0.3178287506103515
0.3753793716430664,0.3178287506103515
0.3762331008911133,0.3126176834106445
0.3762331008911133,0.3126176834106445
0.3747591018676757,0.3145820617675781
0.3686313629150391,0.3145820617675781
0.3709836959838867,0.3103563308715820
0.3709836959838867,0.3103563308715820
0.3731254577636718,0.3115716934204101
0.3731254577636718,0.3115716934204101
0.3711782455444336,0.3102893829345703
0.3711782455444336,0.3102893829345703
0.3729051589965820,0.3073699951171875
0.3729051589965820,0.3073699951171875
0.3723541259765625,0.3105062484741211
0.3723541259765625,0.3105062484741211
0.3691892623901367,0.3080348968505859
0.3691892623901367,0.3080348968505859
0.3719226837158203,0.3088577270507812
0.3719226837158203,0.3088577270507812
0.3702913284301758,0.3088153839111328
0.3702913284301758,0.3088153839111328
0.3725532531738281,0.3065282821655274
0.3725532531738281,0.3065282821655274
0.3721258163452149,0.3104753494262695
0.3721258163452149,0.3104753494262695
0.3690485000610351,0.3070999145507812
0.3690485000610351,0.3070999145507812
0.3719758987426758,0.3088079452514648
0.3719758987426758,0.3088079452514648
0.3706518173217773,0.3087100982666016
0.3706518173217773,0.3087100982666016
0.3727993011474609,0.3073785781860351
0.3727993011474609,0.3073785781860351
0.3724737167358398,0.3100376129150391
0.3724737167358398,0.3100376129150391
0.3693906784057617,0.3074792861938476
0.3693906784057617,0.3074792861938476
0.3691343307495117,0.3069763183593750
0.3760305404663086,0.3069763183593750
0.3732673645019531,0.3103540420532226
0.3702970504760742,0.3103540420532226
0.3703657150268554,0.3088462829589844
0.3703657150268554,0.3088462829589844
0.3722047805786133,0.3077516555786133
0.3722047805786133,0.3077516555786133
0.3714483261108398,0.3103717803955078
0.3714483261108398,0.3103717803955078
0.3693901062011719,0.3075736999511718
0.3693901062011719,0.3075736999511718
0.3729606628417969,0.3103500366210937
0.3729606628417969,0.3103500366210937
0.3704011917114258,0.3083765029907227
0.3704011917114258,0.3083765029907227
0.3717876434326172,0.3073677062988281
0.3717876434326172,0.3073677062988281
0.3709350585937500,0.3097829818725586
0.3709350585937500,0.3097829818725586
0.3683864593505859,0.3064973831176758
0.3683864593505859,0.3064973831176758
0.3725406646728516,0.3092021942138672
0.3725406646728516,0.3092021942138672
0.3699216842651367,0.3079153060913086
0.3692047119140625,0.3079153060913086
0.3713779449462891,0.3068126678466797
0.3713779449462891,0.3068126678466797
0.3704990386962890,0.3093223571777344
0.3704990386962890,0.3093223571777344
0.3686101913452148,0.3065134048461914
0.3686101913452148,0.3065134048461914
0.3727191925048828,0.3097246170043945
0.3727191925048828,0.3097246170043945
0.3701551437377930,0.3086568832397461
0.3701551437377930,0.3086568832397461
0.3713745117187500,0.3074712753295898
0.3713745117187500,0.3074712753295898
0.3712280273437500,0.3100381851196289
0.3712280273437500,0.3100381851196289
0.3692024230957031,0.3078432083129883
0.3692024230957031,0.3078432083129883
0.3734355926513672,0.3109777450561523
0.3734355926513672,0.3109777450561523
0.3705917358398437,0.3097852706909179
0.3705917358398437,0.3097852706909179
0.3724342346191406,0.3085515975952148
0.3724342346191406,0.3085515975952148
0.3722665786743164,0.3118778228759765
0.3722665786743164,0.3118778228759765
0.3702283859252929,0.3096456527709961
0.3702283859252929,0.3096456527709961
0.3742269515991211,0.3127412796020508
0.3742269515991211,0.3127412796020508
0.3719907760620117,0.3113199234008789
0.3719907760620117,0.3113199234008789
0.3736255645751953,0.3105342864990234
0.3736255645751953,0.3105342864990234
0.3734945297241211,0.3135618209838867
0.3734945297241211,0.3135618209838867
0.3709579467773437,0.3112890243530274
0.3709579467773437,0.3112890243530274
0.3756334304809570,0.3142278671264648
0.3756334304809570,0.3142278671264648
0.3731208801269531,0.3132728576660156
0.3731208801269531,0.3132728576660156
0.3746829986572265,0.3123023986816406
0.3746829986572265,0.3123023986816406
0.3742692947387695,0.3151302337646484
0.3742692947387695,0.3151302337646484
0.3723260879516602,0.3127527236938477
0.3723260879516602,0.3127527236938477
0.3766370773315429,0.3159255981445312
0.3766370773315429,0.3159255981445312
0.3741291046142578,0.3147640228271484
0.3741291046142578,0.3147640228271484
0.3753101348876953,0.3137002944946289
0.3753101348876953,0.3137002944946289
0.3753805160522461,0.3162660598754883
0.3753805160522461,0.3162660598754883
0.3734441757202148,0.3145746231079101
0.3734441757202148,0.3145746231079101
0.3775079727172851,0.3176033020019531
0.3775079727172851,0.3176033020019531
0.3746469497680664,0.3160383224487305
0.3746469497680664,0.3160383224487305
0.3765615463256836,0.3149059295654297
0.3765615463256836,0.3149059295654297
0.3763355255126953,0.3178602218627929
0.3763355255126953,0.3178602218627929
0.3744129180908203,0.3162443161010742
0.3744129180908203,0.3162443161010742
0.3780876159667969,0.3190572738647461
0.3780876159667969,0.3190572738647461
0.3759069442749023,0.3173629760742188
0.3759069442749023,0.3173629760742188
0.3776567459106445,0.3168485641479492
0.3776567459106445,0.3168485641479492
0.3773935317993164,0.3195648193359375
0.3717779159545898,0.3195648193359375
0.3751459121704102,0.3173463821411133
0.3751459121704102,0.3173463821411133
0.3789333343505859,0.3191602706909180
0.3789333343505859,0.3191602706909180
0.3753198623657226,0.3157642364501953
0.3753198623657226,0.3157642364501953
0.3755670547485351,0.3126113891601562
0.3755670547485351,0.3126113891601562
0.3732507705688476,0.3123830795288086
0.3732507705688476,0.3123830795288086
0.3698547363281250,0.3077733993530273
0.3698547363281250,0.3077733993530273
0.3767074584960937,0.3063508987426758
0.3684408187866211,0.3063508987426758
0.3684408187866211,0.3051109313964844
0.3678646087646484,0.3037782669067383
0.3678646087646484,0.3037782669067383
0.3686983108520508,0.3034143447875977
0.3686983108520508,0.3034143447875977
0.3668506622314453,0.2993757247924805
0.3668506622314453,0.2993757247924805
0.3655477523803711,0.2998712539672851
0.3655477523803711,0.2998712539672851
0.3673273086547851,0.3019369125366211
0.3642877578735351,0.3019369125366211
0.3647071838378906,0.2997035980224609
0.3634901046752930,0.2997035980224609
0.3662464141845703,0.2988315582275390
0.3662464141845703,0.2988315582275390
0.3659854888916015,0.3014139175415039
0.3659854888916015,0.3014139175415039
0.3637596130371094,0.2999210357666016
0.3637596130371094,0.2999210357666016
0.3679384231567382,0.3024478912353515
0.3679384231567382,0.3024478912353515
0.3654390335083008,0.3011301040649414
0.3654390335083008,0.3011301040649414
0.3674680709838867,0.3007593154907227
0.3674680709838867,0.3007593154907227
0.3671819686889649,0.3037296295166015
0.3671819686889649,0.3037296295166015
0.3657594680786133,0.3022808074951172
0.3657594680786133,0.3022808074951172
0.3697340011596680,0.3054857254028320
0.3697340011596680,0.3054857254028320
0.3672271728515625,0.3038000106811523
0.3672271728515625,0.3038000106811523
0.3689168930053711,0.3031030654907226
0.3689168930053711,0.3031030654907226
0.3689403533935547,0.3056098937988281
0.3689403533935547,0.3056098937988281
0.3671590805053711,0.3042961120605469
0.3671590805053711,0.3042961120605469
0.3708063125610351,0.3069957733154297
0.3708063125610351,0.3069957733154297
0.3677673339843750,0.3047899246215820
0.3677673339843750,0.3047899246215820
0.3698644638061523,0.3037633895874023
0.3698644638061523,0.3037633895874023
0.3696086883544922,0.3066421508789062
0.3696086883544922,0.3066421508789062
0.3676855087280274,0.3051578521728516
0.3676855087280274,0.3051578521728516
0.3711793899536133,0.3077287673950195
0.3711793899536133,0.3077287673950195
0.3687246322631836,0.3055589675903320
0.3687246322631836,0.3055589675903320
0.3706775665283203,0.3051057815551758
0.3706775665283203,0.3051057815551758
0.3704412460327148,0.3081441879272461
0.3704412460327148,0.3081441879272461
0.3683567047119141,0.3065168380737305
0.3683567047119141,0.3065168380737305
0.3724359512329101,0.3088439941406250
0.3724359512329101,0.3088439941406250
0.3697797775268555,0.3073802947998047
0.3697797775268555,0.3073802947998047
0.3717527389526367,0.3067623138427734
0.3717527389526367,0.3067623138427734
0.3712726593017578,0.3096536636352539
0.3712726593017578,0.3096536636352539
0.3697780609130859,0.3081590652465820
0.3697780609130859,0.3081590652465820
0.3736118316650390,0.3109210968017578
0.3736118316650390,0.3109210968017578
0.3710117340087891,0.3094099044799805
0.3710117340087891,0.3094099044799805
0.3726516723632812,0.3086099624633789
0.3726516723632812,0.3086099624633789
0.3727340698242188,0.3112964630126953
0.3727340698242188,0.3112964630126953
0.3709436416625976,0.3102052688598633
0.3709436416625976,0.3102052688598633
0.3747144699096679,0.3125862121582031
0.3747144699096679,0.3125862121582031
0.3717309951782227,0.3109279632568359
0.3717309951782227,0.3109279632568359
0.3739362716674804,0.3098550796508789
0.3739362716674804,0.3098550796508789
0.3739620208740234,0.3132379531860351
0.3739620208740234,0.3132379531860351
0.3717996597290039,0.3118309020996093
0.3717996597290039,0.3118309020996093
0.3756277084350586,0.3140172958374023
0.3756277084350586,0.3140172958374023
0.3730527877807617,0.3125541687011719
0.3730527877807617,0.3125541687011719
0.3747522354125977,0.3114538192749023
0.3747522354125977,0.3114538192749023
0.3752157211303711,0.3152297973632812
0.3752157211303711,0.3152297973632812
0.3723031997680664,0.3132310867309570
0.3723031997680664,0.3132310867309570
0.3769535064697265,0.3151914596557617
0.3769535064697265,0.3151914596557617
0.3740667343139648,0.3144807815551758
0.3740667343139648,0.3144807815551758
0.3757518768310547,0.3129781723022461
0.3757518768310547,0.3129781723022461
0.3760242462158203,0.3167037963867188
0.3760242462158203,0.3167037963867188
0.3736129760742187,0.3144704818725586
0.3736129760742187,0.3144704818725586
0.3777614593505859,0.3165859222412109
0.3777614593505859,0.3165859222412109
0.3747951507568359,0.3153551101684570
0.3747951507568359,0.3153551101684570
0.3759183883666992,0.3133552551269531
0.3759183883666992,0.3133552551269531
0.3762834548950195,0.3166585922241211
0.3703279495239258,0.3166585922241211
0.3735958099365234,0.3146244049072265
0.3735958099365234,0.3146244049072265
0.3773517608642578,0.3163364410400391
0.3773517608642578,0.3163364410400391
0.3740261077880859,0.3148395538330078
0.3740261077880859,0.3148395538330078
0.3752248764038086,0.3121175765991211
0.3752248764038086,0.3121175765991211
0.3745101928710937,0.3141008377075195
0.3745101928710937,0.3141008377075195
0.3706266403198242,0.3096708297729492
0.3706266403198242,0.3096708297729492
0.3725023269653320,0.3089778900146484
0.3725023269653320,0.3089778900146484
0.3684556961059570,0.3053689956665039
0.3662378311157227,0.3053689956665039
0.3687458038330078,0.3022047042846679
0.3659528732299804,0.3022047042846679
0.3682096481323242,0.3045364379882812
0.3682096481323242,0.3045364379882812
0.3649389266967774,0.3013481140136718
0.3649389266967774,0.3013481140136718
0.3683189392089843,0.3020782470703125
0.3683189392089843,0.3020782470703125
0.3653623580932617,0.3009189605712890
0.3653623580932617,0.3009189605712890
0.3666561126708984,0.2987743377685547
0.3706981658935547,0.2987743377685547
0.3664781570434570,0.3021354675292969
0.3664781570434570,0.3021354675292969
0.3641979217529297,0.2996744155883789
0.3641979217529297,0.2996744155883789
0.3677227020263672,0.3011558532714844
0.3677227020263672,0.3011558532714844
0.3652198791503906,0.3005767822265625
0.3652198791503906,0.3005767822265625
0.3661966323852539,0.2984779357910156
0.3661966323852539,0.2984779357910156
0.3669702529907227,0.3019557952880859
0.3669702529907227,0.3019557952880859
0.3645160675048828,0.3001853942871094
0.3645160675048828,0.3001853942871094
0.3681489944458008,0.3016222000122070
0.3681489944458008,0.3016222000122070
0.3656358718872070,0.3013933181762695
0.3656358718872070,0.3013933181762695
0.3671276092529297,0.2991886138916016
0.3671276092529297,0.2991886138916016
0.3681232452392578,0.3038166046142578
0.3681232452392578,0.3038166046142578
0.3657577514648437,0.3020473480224609
0.3657577514648437,0.3020473480224609
0.3693700790405273,0.3037279129028320
0.3693700790405273,0.3037279129028320
0.3673381805419922,0.3036003112792969
0.3673381805419922,0.3036003112792969
0.3690444946289063,0.3016485214233398
0.3690444946289063,0.3016485214233398
0.3699199676513672,0.3065740585327149
0.3699199676513672,0.3065740585327149
0.3667671203613281,0.3039625167846680
0.3725086212158203,0.3039625167846680
0.3673822402954102,0.3055234909057617
0.3677581787109375,0.3055234909057617
0.3684179306030274,0.3055664062500000
0.3684179306030274,0.3055664062500000
0.3700710296630859,0.3032392501831054
0.3700710296630859,0.3032392501831054
0.3703954696655273,0.3076932907104492
0.3703954696655273,0.3076932907104492
0.3678199768066406,0.3047235488891601
0.3678199768066406,0.3047235488891601
0.3716085433959961,0.3065414428710938
0.3716085433959961,0.3065414428710938
0.3689054489135742,0.3062215805053711
0.3689054489135742,0.3062215805053711
0.3703714370727539,0.3037559509277344
0.3703714370727539,0.3037559509277344
0.3710592269897461,0.3082706451416016
0.3710592269897461,0.3082706451416016
0.3685243606567383,0.3058124542236328
0.3685243606567383,0.3058124542236328
0.3723564147949219,0.3077236175537109
0.3723564147949219,0.3077236175537109
0.3693632125854492,0.3075073242187500
0.3693632125854492,0.3075073242187500
