REDsignal,IRsignal
0.3045410156250000,0.2932348251342773
0.3045410156250000,0.2932348251342773
0.2930082321166992,0.2747217178344726
0.2930082321166992,0.2747217178344726
0.3094144821166992,0.2886085510253906
0.3094144821166992,0.2886085510253906
0.3065517425537109,0.2894680023193359
0.3065517425537109,0.2878143310546875
0.2878332138061523,0.2706876754760742
0.3012296676635742,0.2706876754760742
0.3035121917724609,0.2728815078735352
0.2859884262084961,0.2728815078735352
0.2912755966186523,0.2773962020874023
0.3036111831665039,0.2773962020874023
0.2898250579833984,0.2606746673583984
0.2815040588378906,0.2606746673583984
0.3005247116088867,0.2765819549560547
0.2947580337524414,0.2765819549560547
0.2827697753906250,0.2620794296264649
0.2971984863281250,0.2620794296264649
0.3003072738647461,0.2681310653686523
0.2838821411132812,0.2681310653686523
0.2900310516357422,0.2755136489868164
0.3034040451049805,0.2755136489868164
0.2905099868774414,0.2619964599609375
0.2828624725341797,0.2619964599609375
0.3023557662963867,0.2802314758300781
0.2975166320800781,0.2802314758300781
0.2860336303710938,0.2679399490356445
0.3009017944335937,0.2679399490356445
0.3044048309326172,0.2750181198120117
0.2883092880249024,0.2750181198120117
0.2950458526611328,0.2838329315185547
0.3083547592163086,0.2838329315185547
0.2956220626831055,0.2707580566406250
0.2883098602294922,0.2707580566406250
0.3078031539916992,0.2895904541015625
0.3030006408691406,0.2895904541015625
0.2916372299194336,0.2771186828613281
0.3065425872802734,0.2771186828613281
0.3101869583129883,0.2842117309570312
0.2937589645385742,0.2842117309570312
0.2999382019042969,0.2921087265014649
0.3134273529052734,0.2921087265014649
0.3004714965820313,0.2788970947265625
0.2929115295410156,0.2788970947265625
0.3121427536010742,0.2968379974365234
0.3071422576904297,0.2968379974365234
0.2957319259643554,0.2836778640747070
0.3100753784179687,0.2836778640747070
0.3133186340332031,0.2897907257080078
0.2968076705932617,0.2897907257080078
0.3027391433715820,0.2973844528198242
0.3159204483032226,0.2973844528198242
0.3029645919799804,0.2833110809326172
0.2949588775634766,0.2833110809326172
0.3143016815185547,0.3008628845214844
0.3090648651123047,0.3008628845214844
0.2971309661865234,0.2868610382080078
0.3113536834716797,0.2868610382080078
0.3145168304443359,0.2927186965942383
0.2979257583618164,0.2927186965942383
0.3036678314208984,0.2998844146728515
0.3166757583618164,0.2998844146728515
0.3035934448242187,0.2853441238403320
0.2954412460327148,0.2853441238403320
0.3145505905151367,0.3023471832275391
0.3092090606689453,0.3023471832275391
0.2971675872802734,0.2886629104614258
0.3115871429443359,0.2886629104614258
0.3147829055786133,0.2941469192504882
0.2980573654174805,0.2941469192504882
0.3042148590087890,0.3013172149658203
0.3171226501464844,0.3013172149658203
0.3039447784423828,0.2869674682617188
0.2960397720336914,0.2869674682617188
0.3152635574340820,0.3044780731201172
0.3101623535156250,0.3044780731201172
0.2985488891601563,0.2908618927001953
0.3128002166748047,0.2908618927001953
0.3161396026611328,0.2966154098510742
0.2992464065551758,0.2966154098510742
0.3049913406372070,0.3031929016113281
0.3178579330444336,0.3031929016113281
0.3044591903686523,0.2877124786376953
0.2959098815917969,0.2877124786376953
0.3144315719604492,0.3021457672119141
0.3079862594604492,0.3021457672119141
0.2952301025390625,0.2833517074584961
0.3078781127929687,0.2833517074584961
0.3095157623291016,0.2826765060424805
0.2909786224365234,0.2826765060424805
0.2951471328735352,0.2828533172607422
0.3064292907714843,0.2828533172607422
0.2915222167968750,0.2615409851074219
0.2816516876220703,0.2615409851074219
0.2993476867675781,0.2726016998291015
0.2923942565917969,0.2726016998291015
0.2793800354003906,0.2538122177124023
0.2925985336303711,0.2538122177124023
0.2947277069091797,0.2558561325073242
0.2768646240234375,0.2558561325073242
0.2822519302368164,0.2603267669677734
0.2948112487792969,0.2603267669677734
0.2813009262084961,0.2438455581665039
0.2726045608520508,0.2438455581665039
0.2914936065673828,0.2598907470703125
0.2859661102294922,0.2598907470703125
0.2740213394165039,0.2456909179687500
0.2886503219604492,0.2456909179687500
0.2918907165527344,0.2514713287353516
0.2751348495483398,0.2514713287353516
0.2810903549194336,0.2587326049804687
0.2941503524780273,0.2587326049804687
0.2809513092041016,0.2445241928100586
0.2731510162353515,0.2445241928100586
0.2925922393798828,0.2627752304077148
0.2877038955688476,0.2627752304077148
0.2763027191162109,0.2503698348999023
0.2911760330200195,0.2503698348999023
0.2951328277587891,0.2581169128417969
0.2788330078125000,0.2581169128417969
0.2854219436645508,0.2672218322753906
0.2992109298706054,0.2672218322753906
0.2867036819458008,0.2544015884399414
0.2791282653808594,0.2544015884399414
0.2988561630249023,0.2735727310180664
0.2940404891967773,0.2735727310180664
0.2831193923950195,0.2615106582641601
0.2976144790649414,0.2615106582641601
0.3011404037475586,0.2685773849487305
0.2847393035888672,0.2685773849487305
0.2908115386962891,0.2765047073364258
0.3042280197143555,0.2765047073364258
0.2913860321044922,0.2631975173950195
0.2836292266845703,0.2631975173950195
0.3031574249267578,0.2815824508666992
0.2983022689819336,0.2815824508666992
0.2867712020874023,0.2681236267089844
0.3009229660034179,0.2681236267089844
0.3043087005615234,0.2751834869384766
0.2882228851318359,0.2751834869384766
0.2940570831298828,0.2827983856201172
0.3074157714843750,0.2827983856201172
0.2949960708618164,0.2694030761718750
0.2869485855102539,0.2694030761718750
0.3060813903808594,0.2871265411376953
0.3013360977172851,0.2871265411376953
0.2898868560791015,0.2740711212158203
0.3040500640869140,0.2740711212158203
0.3074295043945313,0.2807035446166992
0.2913156509399414,0.2807035446166992
0.2973564147949219,0.2880105972290039
0.3104438781738281,0.2880105972290039
0.2977895736694336,0.2743537902832031
0.2899967193603515,0.2743537902832031
0.3088811874389648,0.2919656753540039
0.3042222976684570,0.2919656753540039
0.2926643371582031,0.2786064147949219
0.3065889358520508,0.2786064147949219
0.3103546142578125,0.2849842071533203
0.2939323425292968,0.2849842071533203
0.2994747161865234,0.2917625427246094
0.3127178192138672,0.2917625427246094
0.3001207351684570,0.2781995773315429
0.2921104431152344,0.2781995773315429
0.3107070922851562,0.2952226638793945
0.3059074401855469,0.2952226638793945
0.2941440582275390,0.2801668167114258
0.3068979263305664,0.2801668167114258
0.3094654083251953,0.2832944869995117
0.2921974182128906,0.2832944869995117
0.2963665008544922,0.2847164154052734
0.3075794219970703,0.2847164154052734
0.2930368423461914,0.2637056350708007
0.2827320098876953,0.2637056350708007
0.2993820190429687,0.2730028152465820
0.2924720764160156,0.2730028152465820
0.2789926528930664,0.2521493911743164
0.2904899597167969,0.2521493911743164
0.2926746368408203,0.2531799316406250
0.2752252578735351,0.2531799316406250
0.2798532485961914,0.2563488006591797
0.2921401977539063,0.2563488006591797
0.2788558959960937,0.2405296325683594
0.2703706741333008,0.2405296325683594
0.2886938095092773,0.2562852859497070
0.2839914321899414,0.2562852859497070
0.2722097396850586,0.2422605514526367
0.2857137680053711,0.2422605514526367
0.2890319824218750,0.2482297897338867
0.2729621887207031,0.2482297897338867
0.2784376144409180,0.2549119949340820
0.2915628433227539,0.2549119949340820
0.2790292739868164,0.2414680480957031
0.2711019515991211,0.2414680480957031
0.2900110244750976,0.2595714569091797
0.2857515335083008,0.2595714569091797
0.2743337631225586,0.2473011016845703
0.2886400222778320,0.2473011016845703
0.2928771972656250,0.2550888061523438
0.2767839431762695,0.2550888061523438
0.2826169967651367,0.2628971099853515
0.2963304519653320,0.2628971099853515
0.2840160369873047,0.2508968353271484
0.2763010025024414,0.2508968353271484
0.2954727172851562,0.2692977905273438
0.2912956237792969,0.2692977905273438
0.2802652359008789,0.2565462112426758
0.2939981460571289,0.2565462112426758
0.2975206375122070,0.2634572982788086
0.2813558578491211,0.2634572982788086
0.2872449874877930,0.2707683563232422
0.3006883621215820,0.2707683563232422
0.2880603790283203,0.2572849273681641
0.2799510955810547,0.2572849273681641
0.2991228103637695,0.2750965118408203
0.2945068359375000,0.2750965118408203
0.2827835083007812,0.2613773345947266
0.2968414306640625,0.2613773345947266
0.3002014160156250,0.2678770065307617
0.2836795806884765,0.2678770065307617
0.2893987655639648,0.2748498916625977
0.3027826309204101,0.2748498916625977
0.2901357650756836,0.2608983993530273
0.2817918777465820,0.2608983993530273
0.3006843566894531,0.2779111862182617
0.2958686828613281,0.2779111862182617
0.2837516784667969,0.2636821746826172
0.2974479675292969,0.2636821746826172
0.3008394241333008,0.2696256637573242
0.2843570709228516,0.2696256637573242
0.2898885726928711,0.2759496688842774
0.3029359817504882,0.2759496688842774
0.2900207519531250,0.2618717193603515
0.2816619873046875,0.2618717193603515
0.3005401611328125,0.2788747787475586
0.2959390640258789,0.2788747787475586
0.2843553543090820,0.2646743774414063
0.2974554061889648,0.2646743774414063
0.3015123367309570,0.2708066940307617
0.2850906372070313,0.2708066940307617
0.2903995513916016,0.2770763397216797
0.3034852981567382,0.2770763397216797
0.2908269882202149,0.2633531570434570
0.2827251434326172,0.2633531570434570
0.3012622833251953,0.2801959991455078
0.2969913482666016,0.2801959991455078
0.2853487014770508,0.2662668228149414
0.2982793807983398,0.2662668228149414
0.3017292022705078,0.2721725463867187
0.2857000350952149,0.2721725463867187
0.2909179687500000,0.2784782409667969
0.3040786743164062,0.2784782409667969
0.2915719985961914,0.2649610519409180
0.2833402633666992,0.2649610519409180
0.3020576477050781,0.2818290710449219
0.2978273391723633,0.2818290710449219
0.2860685348510742,0.2678552627563476
0.2990581512451172,0.2678552627563476
0.3027717590332031,0.2746931076049804
0.2871660232543945,0.2746931076049804
0.2924629211425781,0.2812694549560547
0.3056619644165039,0.2812694549560547
0.2937274932861328,0.2683691024780273
0.2855592727661133,0.2683691024780273
0.3039825439453125,0.2852354049682617
0.2998380661010742,0.2852354049682617
0.2883058547973633,0.2709960937500000
0.3010419845581054,0.2709960937500000
0.3041799545288086,0.2760177612304687
0.2879739761352539,0.2760177612304687
0.2928319931030273,0.2806131362915039
0.3054296493530274,0.2806131362915039
0.2925836563110352,0.2653455734252930
0.2839227676391601,0.2653455734252930
0.3019248962402344,0.2809673309326172
0.2975612640380859,0.2809673309326172
0.2858270645141601,0.2660528182983398
0.2986392974853516,0.2660528182983398
0.3023488998413086,0.2720701217651367
0.2863323211669922,0.2720701217651367
0.2914775848388672,0.2783157348632813
0.3048093795776367,0.2783157348632813
0.2927066802978516,0.2655458450317383
0.2845973968505859,0.2655458450317383
0.3033016204833984,0.2831285476684570
0.2995153427124023,0.2831285476684570
0.2883516311645508,0.2703523635864258
0.3003782272338867,0.2872529983520508
0.3052705764770507,0.2774843215942382
0.2898759841918945,0.2774843215942382
0.2951728820800781,0.2850236892700195
0.3086563110351562,0.2850236892700195
0.2967332839965820,0.2725873947143554
0.2886800765991211,0.2725873947143554
0.3074535369873047,0.2902301788330078
0.3034017562866211,0.2902301788330078
0.2920372009277344,0.2767702102661133
0.3048145294189453,0.2767702102661133
0.3087633132934570,0.2838621139526367
0.2929738998413086,0.2838621139526367
0.2980030059814453,0.2903669357299805
0.3114629745483398,0.2903669357299805
0.2996171951293945,0.2772108078002929
0.2910272598266602,0.2772108078002929
0.3054994583129882,0.2821758270263672
0.2923112869262695,0.2821758270263672
0.3061077117919922,0.2960294723510742
0.3061077117919922,0.2960294723510742
0.2967126846313476,0.2792421340942383
0.2967126846313476,0.2792421340942383
0.3128465652465820,0.2949508666992187
0.3128465652465820,0.2949508666992187
0.2949863433837890,0.2905157089233398
0.2949863433837890,0.2905157089233398
0.3078998565673828,0.2862876892089843
0.3078998565673828,0.2862876892089843
0.3089572906494141,0.3003582000732422
0.3089572906494141,0.3003582000732422
0.2994071960449219,0.2832292556762695
0.2994071960449219,0.2832292556762695
0.3153945922851563,0.2988658905029297
0.3153945922851563,0.2988658905029297
0.2974594116210937,0.2945623397827148
0.3165876388549805,0.2945623397827148
0.3104124069213867,0.2896722793579101
0.3104124069213867,0.2896722793579101
0.3108987808227539,0.3032827377319336
0.3108987808227539,0.3032827377319336
0.3008926391601562,0.2857383728027343
0.3008926391601562,0.2857383728027343
0.3166711807250976,0.3009166717529297
0.3166711807250976,0.3009166717529297
0.2982318878173828,0.2961004257202148
0.3173973083496094,0.2961004257202148
0.3109846115112305,0.2909729003906250
0.3109846115112305,0.2909729003906250
0.3109382629394531,0.3041404724121093
0.3109382629394531,0.3041404724121093
0.3009120941162109,0.2862728118896484
0.3009120941162109,0.2862728118896484
0.3161750793457031,0.3006946563720703
0.3161750793457031,0.3006946563720703
0.2963848114013672,0.2928840637207031
0.2963848114013672,0.2928840637207031
0.3061872482299804,0.2820590972900390
0.3061872482299804,0.2820590972900390
0.3024398803710938,0.2876111984252930
0.3024398803710938,0.2876111984252930
0.2875442504882812,0.2611061096191406
0.2875442504882812,0.2611061096191406
0.2986232757568359,0.2682540893554687
0.2986232757568359,0.2682540893554687
0.2769235610961914,0.2574199676513672
0.2769235610961914,0.2574199676513672
0.2871431350708007,0.2481445312500000
0.2871431350708007,0.2481445312500000
0.2853332519531250,0.2586175918579102
0.2853332519531250,0.2586175918579102
0.2745225906372070,0.2395225524902344
0.2745225906372070,0.2395225524902344
0.2894021987915039,0.2539592742919922
0.2894021987915039,0.2539592742919922
0.2712902069091797,0.2486612319946289
0.2712902069091797,0.2486612319946289
0.2840812683105469,0.2447851181030273
0.2840812683105469,0.2447851181030273
0.2846025466918945,0.2589511871337891
0.2846025466918945,0.2589511871337891
0.2761007308959961,0.2436521530151367
0.2761007308959961,0.2436521530151367
0.2921533584594727,0.2604503631591797
0.2921533584594727,0.2604503631591797
0.2756229400634765,0.2573204040527344
0.2756229400634765,0.2573204040527344
0.2896230697631836,0.2551425933837890
0.2896230697631836,0.2551425933837890
0.2906604766845703,0.2703912734985351
0.2906604766845703,0.2703912734985351
0.2826398849487304,0.2553903579711914
0.2826398849487304,0.2553903579711914
0.2989156723022461,0.2724369049072266
0.2989156723022461,0.2724369049072266
0.2821815490722656,0.2681980133056641
0.2821815490722656,0.2681980133056641
0.2958360671997070,0.2661460876464843
0.2958360671997070,0.2661460876464843
0.2967641830444336,0.2806240081787109
0.2967641830444336,0.2806240081787109
0.2883945465087890,0.2648363113403320
0.2883945465087890,0.2648363113403320
0.3041152954101562,0.2811229705810547
0.3041152954101562,0.2811229705810547
0.2869789123535156,0.2769939422607422
0.2869789123535156,0.2769939422607422
0.3000961303710937,0.2734468460083008
0.3000961303710937,0.2734468460083008
0.3006259918212891,0.2874286651611328
0.3006259918212891,0.2874286651611328
0.2918077468872070,0.2708175659179687
0.2918077468872070,0.2708175659179687
0.3074953079223633,0.2867528915405274
0.3074953079223633,0.2867528915405274
0.2901077270507812,0.2825414657592774
0.2901077270507812,0.2825414657592774
0.3032999038696289,0.2786138534545898
0.3032999038696289,0.2786138534545898
0.3023157119750977,0.2923181533813476
0.3023157119750977,0.2923181533813476
0.2943552017211914,0.2754117965698242
0.2943552017211914,0.2754117965698242
0.3102144241333007,0.2913442611694336
0.3102144241333007,0.2913442611694336
0.2921527862548828,0.2866235733032226
0.2921527862548828,0.2866235733032226
0.3052030563354492,0.2822433471679687
0.3052030563354492,0.2822433471679687
0.3051097869873047,0.2958452224731445
0.3051097869873047,0.2958452224731445
0.2955722808837891,0.2783288955688477
0.2955722808837891,0.2783288955688477
0.3112443923950195,0.2941646575927734
0.3112443923950195,0.2941646575927734
0.2928302764892578,0.2891040802001953
0.2928302764892578,0.2891040802001953
0.3057500839233399,0.2842895507812500
0.3057500839233399,0.2842895507812500
0.3057277679443359,0.2978502273559570
0.3117794036865234,0.2978502273559570
0.2958744049072266,0.2797250747680664
0.2958744049072266,0.2797250747680664
0.3116243362426758,0.2953662872314453
0.3116243362426758,0.2953662872314453
0.2929515838623047,0.2894805908203125
0.2929515838623047,0.2894805908203125
0.3049724578857422,0.2830959320068359
0.3049724578857422,0.2830959320068359
0.3034029006958008,0.2932714462280273
0.3034029006958008,0.2932714462280273
0.2917127609252930,0.2716032028198242
0.2917127609252930,0.2716032028198242
0.3051126480102539,0.2834506988525390
0.3051126480102539,0.2834506988525390
0.2851243972778320,0.2751703262329102
0.2851243972778320,0.2751703262329102
0.2967012405395508,0.2677803039550781
0.2967012405395508,0.2677803039550781
0.2953611373901367,0.2790367126464844
0.2953611373901367,0.2790367126464844
0.2847627639770507,0.2598358154296875
0.2847627639770507,0.2598358154296875
0.2999696731567383,0.2746318817138672
0.2999696731567383,0.2746318817138672
0.2809043884277344,0.2687948226928711
0.2809043884277344,0.2687948226928711
0.2936828613281250,0.2635385513305664
0.2936828613281250,0.2635385513305664
0.2933320999145508,0.2764961242675781
0.2933320999145508,0.2764961242675781
0.2832515716552734,0.2578863143920898
0.2832515716552734,0.2578863143920898
0.2987377166748047,0.2733730316162109
0.2987377166748047,0.2733730316162109
0.2799636840820313,0.2680480957031250
0.2799636840820313,0.2680480957031250
0.2930631637573242,0.2632066726684570
0.2930631637573242,0.2632066726684570
0.2930379867553711,0.2766769409179687
0.2930379867553711,0.2766769409179687
0.2837745666503906,0.2590381622314453
0.2837745666503906,0.2590381622314453
0.2996761322021484,0.2751674652099609
0.2996761322021484,0.2751674652099609
0.2816425323486328,0.2701034545898438
0.2816425323486328,0.2701034545898438
0.2950962066650391,0.2662708282470703
0.2950962066650391,0.2662708282470703
0.2954566955566406,0.2801176071166992
0.2954566955566406,0.2801176071166992
0.2869794845581055,0.2636449813842773
0.2869794845581055,0.2636449813842773
0.3029708862304688,0.2803916931152344
0.3029708862304688,0.2803916931152344
0.2858367919921875,0.2765722274780273
0.2858367919921875,0.2765722274780273
0.2998100280761719,0.2738353729248047
0.2998100280761719,0.2738353729248047
0.3004486083984375,0.2881937026977539
0.3070970535278320,0.2881937026977539
0.2919919967651367,0.2720769882202148
0.2919919967651367,0.2720769882202148
0.3082288742065429,0.2890937805175781
0.3082288742065429,0.2890937805175781
0.2913196563720703,0.2852027893066406
0.2913196563720703,0.2852027893066406
0.3051292419433594,0.2821031570434570
0.3051292419433594,0.2821031570434570
0.3053644180297851,0.2960409164428711
0.3053644180297851,0.2960409164428711
0.2968591690063476,0.2795717239379883
0.2968591690063476,0.2795717239379883
0.3125375747680664,0.2959218978881836
0.3125375747680664,0.2959218978881836
0.2950784683227539,0.2913654327392578
0.2950784683227539,0.2913654327392578
0.3084251403808594,0.2877931594848633
0.3084251403808594,0.2877931594848633
0.3083261489868164,0.3013103485107422
0.3083261489868164,0.3013103485107422
0.2996498107910156,0.2844354629516602
0.2996498107910156,0.2844354629516602
0.3148389816284179,0.3003747940063476
0.3148389816284179,0.3003747940063476
0.2971366882324218,0.2949634552001953
0.2971366882324218,0.2949634552001953
0.3099002838134766,0.2906267166137695
0.3099002838134766,0.2906267166137695
0.3085006713867187,0.3018213272094726
0.3085006713867187,0.3018213272094726
0.2979423522949219,0.2809370040893555
0.2979423522949219,0.2809370040893555
0.3102396011352539,0.2913700103759765
0.3102396011352539,0.2913700103759765
0.2888917922973633,0.2791643142700195
0.2888917922973633,0.2791643142700195
0.2978542327880859,0.2679101943969727
0.2978542327880859,0.2679101943969727
0.2940507888793945,0.2748224258422852
0.2940507888793945,0.2748224258422852
0.2822193145751953,0.2528686523437500
0.2837511062622070,0.2528686523437500
0.2954973220825195,0.2655624389648437
0.2954973220825195,0.2655624389648437
0.2767518997192382,0.2586061477661133
0.2767518997192382,0.2586061477661133
0.2892522811889648,0.2540410995483398
0.2892522811889648,0.2540410995483398
0.2889404296875000,0.2673065185546875
0.2889404296875000,0.2673065185546875
0.2805753707885742,0.2511886596679687
0.2805753707885742,0.2511886596679687
0.2965135574340820,0.2681207656860352
0.2965135574340820,0.2681207656860352
0.2797491073608399,0.2645273208618164
0.2797491073608399,0.2645273208618164
0.2936033248901367,0.2623380661010742
0.2936033248901367,0.2623380661010742
0.2941251754760742,0.2771650314331054
0.2941251754760742,0.2771650314331054
0.2868679046630859,0.2620262145996093
0.2868679046630859,0.2620262145996093
0.3021869659423828,0.2786361694335938
0.3021869659423828,0.2786361694335938
0.2852273941040039,0.2738656997680664
0.2852273941040039,0.2738656997680664
0.2983039855957031,0.2705915451049805
0.2983039855957031,0.2705915451049805
0.2978891372680664,0.2834678649902344
0.2978891372680664,0.2834678649902344
0.2893186569213867,0.2665494918823242
0.2893186569213867,0.2665494918823242
0.3040260314941406,0.2821844100952148
0.3040260314941406,0.2821844100952148
0.2860479354858398,0.2766431808471679
0.2860479354858398,0.2766431808471679
0.2989391326904297,0.2725885391235351
0.2989391326904297,0.2725885391235351
0.2982908248901367,0.2855495452880859
0.2982908248901367,0.2855495452880859
0.2890062332153320,0.2679130554199219
0.2890062332153320,0.2679130554199219
0.3042514801025391,0.2838518142700195
0.3042514801025391,0.2838518142700195
0.2861412048339844,0.2784450531005859
0.3052711486816406,0.2784450531005859
0.2992647171020508,0.2742404937744141
0.2992647171020508,0.2742404937744141
0.2986101150512695,0.2872266769409180
0.2986101150512695,0.2872266769409180
0.2896940231323242,0.2698717117309570
0.2896940231323242,0.2698717117309570
0.3049764633178711,0.2862476348876953
0.3049764633178711,0.2862476348876953
0.2872547149658203,0.2813392639160156
0.2872547149658203,0.2813392639160156
0.3013647079467773,0.2781675338745117
0.3013647079467773,0.2781675338745117
0.3014265060424804,0.2915079116821289
0.3014265060424804,0.2915079116821289
0.2926111221313477,0.2743280410766601
0.2926111221313477,0.2743280410766601
0.3077888488769531,0.2903537750244141
0.3077888488769531,0.2903537750244141
0.2900030136108399,0.2851638793945312
0.2900030136108399,0.2851638793945312
0.3031087875366211,0.2811550140380859
0.3031087875366211,0.2811550140380859
0.3024679183959961,0.2941280364990234
0.3024679183959961,0.2941280364990234
0.2939340591430664,0.2769258499145508
0.2939340591430664,0.2769258499145508
0.3086339950561524,0.2926179885864258
0.3086339950561524,0.2926179885864258
0.3070089340209961,0.2945251464843750
0.3031797409057617,0.2945251464843750
0.3002277374267578,0.2763822555541992
0.3002277374267578,0.2763822555541992
0.3042285919189453,0.2793548583984375
0.2873771667480469,0.2793548583984375
0.2904064178466797,0.2789400100708008
0.3024541854858399,0.2789400100708008
0.2888517379760742,0.2599262237548828
0.2781675338745117,0.2599262237548828
0.2952346801757812,0.2715860366821289
0.2906089782714844,0.2715860366821289
0.2777538299560547,0.2528366088867187
0.2888740539550781,0.2528366088867187
0.2928514480590820,0.2586936950683594
0.2767559051513672,0.2586936950683594
0.2808597564697266,0.2629503250122070
0.2946401596069336,0.2629503250122070
0.2827148437500000,0.2496162414550781
0.2736310958862305,0.2496162414550781
0.2922363281250000,0.2671657562255859
0.2891807556152344,0.2671657562255859
0.2774162292480469,0.2530403137207031
0.2899085998535156,0.2530403137207031
0.2947311401367188,0.2620714187622070
0.2793823242187500,0.2620714187622070
0.2843914031982422,0.2688737869262695
0.2986404418945313,0.2688737869262695
0.2867523193359375,0.2572231292724609
0.2784421920776367,0.2572231292724609
0.2975160598754883,0.2765642166137695
0.2949085235595703,0.2765642166137695
0.2834558486938477,0.2631145477294922
0.2960872650146484,0.2631145477294922
0.3011661529541015,0.2727258682250976
0.2858848571777344,0.2727258682250976
0.2908246994018555,0.2795980453491211
0.3048036575317383,0.2795980453491211
0.2935455322265625,0.2677179336547851
0.2845727920532227,0.2677179336547851
0.3032867431640625,0.2858419418334961
0.3001550674438476,0.2858419418334961
0.2886039733886719,0.2714092254638672
0.3008131027221679,0.2714092254638672
0.3052059173583984,0.2796970367431640
0.2895509719848633,0.2796970367431640
0.2942052841186523,0.2855421066284179
0.3080944061279297,0.2855421066284179
0.2959156036376953,0.2727281570434570
0.2870773315429687,0.2727281570434570
0.3058891296386719,0.2902164459228516
0.3023345947265625,0.2902164459228516
0.2904836654663086,0.2749357223510742
0.3024026870727539,0.2749357223510742
0.3069585800170898,0.2829008102416992
0.2910026550292968,0.2829008102416992
0.2957811355590820,0.2883756637573242
0.3095798492431641,0.2883756637573242
0.2974119186401367,0.2747966766357422
0.2882623672485352,0.2747966766357422
0.3066593170166015,0.2917264938354492
0.3031013488769531,0.2917264938354492
0.2911731719970703,0.2762048721313476
0.3032346725463867,0.2762048721313476
0.3073865890502930,0.2836343765258789
0.2911422729492187,0.2836343765258789
0.2959167480468750,0.2885524749755859
0.3094837188720703,0.2885524749755859
0.2970874786376953,0.2746358871459961
0.2878137588500976,0.2746358871459961
0.3063051223754883,0.2916641235351562
0.3025869369506836,0.2916641235351562
0.2903675079345703,0.2754524230957031
0.3026676177978516,0.2754524230957031
0.3070466995239258,0.2828882217407226
0.2903720855712891,0.2828882217407226
0.2949291229248047,0.2878601074218750
0.3086809158325195,0.2878601074218750
0.2959590911865234,0.2737346649169922
0.2867637634277344,0.2737346649169922
0.3056430816650391,0.2909866333007812
0.3018035888671875,0.2909866333007812
0.2898107528686523,0.2751194000244140
0.3021257400512695,0.2751194000244140
0.3061569213867187,0.2824378967285156
0.2895137786865234,0.2824378967285156
0.2942773818969727,0.2878921508789062
0.3081527709960937,0.2878921508789062
0.2957702636718750,0.2742187500000000
0.2866498947143555,0.2742187500000000
0.3057060241699219,0.2919101715087891
0.3020341873168945,0.2919101715087891
0.2900173187255859,0.2765945434570312
0.3026178359985351,0.2765945434570312
0.3067090988159180,0.2836887359619141
0.2899686813354492,0.2836887359619141
0.2942070007324218,0.2865606307983398
0.3071971893310547,0.2865606307983398
0.2939826965332031,0.2684457778930664
0.2831348419189453,0.2684457778930664
0.3001476287841797,0.2789794921875000
0.2945514678955078,0.2789794921875000
0.2806337356567383,0.2561193466186523
0.2906850814819336,0.2561193466186523
0.2932474136352539,0.2570285797119141
0.2755233764648438,0.2570285797119141
0.2787889480590820,0.2574565887451172
0.2913854598999023,0.2574565887451172
0.2783918380737305,0.2415390014648438
0.2688772201538086,0.2415390014648438
0.2871002197265625,0.2579338073730469
0.2837802886962891,0.2579338073730469
0.2716318130493164,0.2421615600585937
0.2835502624511719,0.2421615600585937
0.2881645202636718,0.2503778457641602
0.2723064422607422,0.2503778457641602
0.2771249771118164,0.2567407608032227
0.2915679931640625,0.2567407608032227
0.2796140670776367,0.2448051452636719
0.2708616256713867,0.2448051452636719
0.2902748107910156,0.2643327713012695
0.2874652862548828,0.2643327713012695
0.2761980056762695,0.2509746551513672
0.2888975143432617,0.2509746551513672
0.2939083099365234,0.2612960815429687
0.2785337448120117,0.2612960815429687
0.2835903167724609,0.2688692092895508
0.2982524871826172,0.2688692092895508
0.2868347167968750,0.2578153610229492
0.2782459259033203,0.2578153610229492
0.2972911834716797,0.2770397186279297
0.2946664810180664,0.2770397186279297
0.2832401275634766,0.2630825042724609
0.2953170776367187,0.2630825042724609
0.3000314712524414,0.2726131439208984
0.2849985122680664,0.2726131439208984
0.2895092010498047,0.2785583496093750
0.3035562515258789,0.2785583496093750
0.2921035766601562,0.2665391921997070
0.2830587387084961,0.2665391921997070
0.3009996414184570,0.2837373733520508
0.2985706329345703,0.2837373733520508
0.2869714736938476,0.2694242477416992
0.2981517791748047,0.2694242477416992
0.3029754638671875,0.2779872894287109
0.2880363464355469,0.2779872894287109
0.2923633575439453,0.2832178115844726
0.3059240341186523,0.2832178115844726
0.2944061279296875,0.2710229873657227
0.2853258132934570,0.2710229873657227
0.3031866073608399,0.2881061553955078
0.3006477355957031,0.2881061553955078
0.2889278411865234,0.2733467102050781
0.3001842498779297,0.2733467102050781
0.3051006317138672,0.2819726943969726
0.2897752761840820,0.2819726943969726
0.2940273284912109,0.2871036529541016
0.3079273223876953,0.2871036529541016
0.2962268829345703,0.2746999740600586
0.2871191024780274,0.2746999740600586
0.3054101943969726,0.2919387817382812
0.3027145385742188,0.2919387817382812
0.2910507202148437,0.2770826339721680
0.3025257110595703,0.2770826339721680
0.3071153640747070,0.2853240966796875
0.2918518066406250,0.2853240966796875
0.2960449218750000,0.2907033920288086
0.3097778320312500,0.2907033920288086
0.2982164382934570,0.2780599594116211
0.2891206741333008,0.2780599594116211
0.3075662612915039,0.2951694488525390
0.3046365737915039,0.2951694488525390
0.2927576065063476,0.2799179077148438
0.3042926788330078,0.2799179077148438
0.3089727401733398,0.2883047103881836
0.2935941696166992,0.2883047103881836
0.2978422164916992,0.2936714172363281
0.3118738174438476,0.2936714172363281
0.2999902725219726,0.2802978515625000
0.2903675079345703,0.2802978515625000
0.3083553314208984,0.2954710006713867
0.3045324325561523,0.2954710006713867
0.2912206649780273,0.2757780075073242
0.3012359619140625,0.2757780075073242
0.3039173126220703,0.2770368576049805
0.2860754013061523,0.2770368576049805
0.2881570816040039,0.2740837097167969
0.2999073028564453,0.2740837097167969
0.2857818603515625,0.2531908035278320
0.2742473602294922,0.2531908035278320
0.2911582946777344,0.2642234802246093
0.2866064071655273,0.2642234802246093
0.2731796264648437,0.2438970565795898
0.2838855743408203,0.2438970565795898
0.2877325057983398,0.2487510681152344
0.2707443237304688,0.2487510681152344
0.2741426467895507,0.2513763427734375
0.2878543853759766,0.2513763427734375
0.2754083633422851,0.2368623733520508
0.2656167984008789,0.2368623733520508
0.2841190338134765,0.2535655975341797
0.2809312820434570,0.2535655975341797
0.2688606262207031,0.2376628875732422
0.2806091308593750,0.2376628875732422
0.2853137969970703,0.2458448410034180
0.2693166732788086,0.2458448410034180
0.2737890243530273,0.2518672943115234
0.2884626388549805,0.2518672943115234
0.2766746520996093,0.2404684066772461
0.2679433822631836,0.2404684066772461
0.2872301101684570,0.2595405578613281
0.2845018386840820,0.2595405578613281
0.2732545852661133,0.2455902099609375
0.2855175018310547,0.2455902099609375
0.2908481597900390,0.2562223434448242
0.2759044647216797,0.2562223434448242
0.2806812286376953,0.2632049560546875
0.2951116561889648,0.2632049560546875
0.2838621139526367,0.2520606994628906
0.2749156951904297,0.2520606994628906
0.2934848785400391,0.2706212997436523
0.2909008026123047,0.2706212997436523
0.2794195175170898,0.2565073013305664
0.2914180755615234,0.2565073013305664
0.2958995819091797,0.2656499862670899
0.2807922363281250,0.2656499862670899
0.2854602813720703,0.2719671249389649
0.2997425079345703,0.2719671249389649
0.2883607864379883,0.2601911544799805
0.2793497085571289,0.2601911544799805
0.2976436614990234,0.2784095764160156
0.2951328277587891,0.2784095764160156
0.2832887649536133,0.2636638641357422
0.2948787689208984,0.2636638641357422
0.2999570846557617,0.2726675033569336
0.2844955444335938,0.2726675033569336
0.2887310028076172,0.2783409118652344
0.3029634475708008,0.2783409118652344
0.2913053512573242,0.2659566879272461
0.2821557998657226,0.2659566879272461
0.3005567550659179,0.2838397979736328
0.2979984283447266,0.2838397979736328
0.2862819671630859,0.2689693450927734
0.2977998733520508,0.2689693450927734
0.3026378631591797,0.2780960083007812
0.2873147964477539,0.2780960083007812
0.2916761398315429,0.2838512420654297
0.3061100006103515,0.2838512420654297
0.2946733474731445,0.2718721389770508
0.2855140686035156,0.2718721389770508
0.3039402008056640,0.2897077560424804
0.3013338088989257,0.2897077560424804
0.2895423889160156,0.2745912551879883
0.3009933471679687,0.2745912551879883
0.3058153152465820,0.2837574005126953
0.2905139923095703,0.2837574005126953
0.2948398590087891,0.2890960693359375
0.3089429855346680,0.2890960693359375
0.2974508285522461,0.2766952514648438
0.2882080078125000,0.2766952514648438
0.3064790725708008,0.2942447662353516
0.3038040161132812,0.2942447662353516
0.2919490814208984,0.2788742065429687
0.3033233642578125,0.2788742065429687
0.3080669403076172,0.2874418258666992
0.2925167083740234,0.2874418258666992
0.2964443206787109,0.2916790008544922
0.3098670959472656,0.2916790008544922
0.2973192214965820,0.2763055801391601
0.2869577407836914,0.2763055801391601
0.3040992736816406,0.2891418457031250
0.2998844146728515,0.2891418457031250
0.2861881256103516,0.2672075271606445
0.2955900192260742,0.2672075271606445
0.2987251281738281,0.2688468933105468
0.2810468673706055,0.2688468933105468
0.2832944869995117,0.2669935226440430
0.2955802917480468,0.2669935226440430
0.2823726654052734,0.2490320205688477
0.2718933105468750,0.2490320205688477
0.2892053604125976,0.2628650665283203
0.2857297897338867,0.2628650665283203
0.2733118057250977,0.2451444625854492
0.2840538024902344,0.2451444625854492
0.2885839462280274,0.2526952743530274
0.2729925155639648,0.2526952743530274
0.2769556045532227,0.2575304031372070
0.2910261154174805,0.2575304031372070
0.2795637130737305,0.2452680587768555
0.2704839706420898,0.2452680587768555
0.2889730453491211,0.2633892059326172
0.2865726470947266,0.2633892059326172
0.2749328613281250,0.2489433288574219
0.2866064071655273,0.2489433288574219
0.2918958663940430,0.2591772079467773
0.2768457412719726,0.2591772079467773
0.2810914993286133,0.2653804779052734
0.2955162048339844,0.2653804779052734
0.2843193054199218,0.2539278030395508
0.2751457214355469,0.2539278030395508
0.2938528060913086,0.2723293304443359
0.2913625717163086,0.2594610214233398
0.2795024871826172,0.2576683044433594
0.2911897659301758,0.2576683044433594
0.2962308883666992,0.2667949676513672
0.2805255889892578,0.2667949676513672
0.2846363067626953,0.2717622756958007
0.2986982345581055,0.2717622756958007
0.2861898422241211,0.2585094451904297
0.2767839431762695,0.2585094451904297
0.2952919006347656,0.2756750106811524
0.2921899795532226,0.2756750106811524
0.2799648284912109,0.2596120834350586
0.2920989990234375,0.2596120834350586
0.2961730957031250,0.2679468154907226
0.2801874160766601,0.2679468154907226
0.2840532302856445,0.2727149963378906
0.2982576370239258,0.2727149963378906
0.2861972808837890,0.2597717285156250
0.2765665054321289,0.2597717285156250
0.2949863433837890,0.2767416000366211
0.2918701171875000,0.2767416000366211
0.2798646926879882,0.2605630874633789
0.2911880493164062,0.2605630874633789
0.2957015991210937,0.2692571640014648
0.2798801422119140,0.2692571640014648
0.2840480804443359,0.2740516662597656
0.2980928421020508,0.2740516662597656
0.2862911224365234,0.2610420227050781
0.2769035339355468,0.2610420227050781
0.2956861495971679,0.2786155700683594
0.2928857803344727,0.2786155700683594
0.2808900833129883,0.2631786346435547
0.2925201416015625,0.2631786346435547
0.2977209091186523,0.2726846694946289
0.2822101593017578,0.2726846694946289
0.2995325088500976,0.2809656143188476
0.2995325088500976,0.2802457809448242
0.2822994232177734,0.2742055892944336
0.2822994232177734,0.2742055892944336
0.2961730957031250,0.2717737197875976
0.2961730957031250,0.2717737197875976
0.2953639984130859,0.2858047485351562
0.2953639984130859,0.2858047485351562
0.2882766723632812,0.2695552825927734
0.2882766723632812,0.2695552825927734
0.3039733886718750,0.2871168136596680
0.3039733886718750,0.2871168136596680
0.2868043899536133,0.2812082290649414
0.2868043899536133,0.2812082290649414
0.3010025024414062,0.2791482925415039
0.3010025024414062,0.2791482925415039
0.3006208419799805,0.2930076599121094
0.3006208419799805,0.2930076599121094
0.2933172225952148,0.2763610839843750
0.2933172225952148,0.2763610839843750
0.3078311920166015,0.2920497894287109
0.3078311920166015,0.2920497894287109
0.2888803482055664,0.2818456649780273
0.2888803482055664,0.2818456649780273
0.2996709823608398,0.2728826522827149
0.2996709823608398,0.2728826522827149
0.2944793701171875,0.2773263931274414
0.2944793701171875,0.2773263931274414
0.2821443557739258,0.2515886306762695
0.2821443557739258,0.2515886306762695
0.2924852371215820,0.2610116958618164
0.2924852371215820,0.2610116958618164
0.2723499298095703,0.2490062713623047
0.2723499298095703,0.2490062713623047
0.2832120895385742,0.2428327560424804
0.2832120895385742,0.2428327560424804
0.2799608230590820,0.2526620864868164
0.2799608230590820,0.2526620864868164
0.2715602874755859,0.2350175857543945
0.2715602874755859,0.2350175857543945
0.2854557037353516,0.2508218765258789
0.2854557037353516,0.2508218765258789
0.2681482315063476,0.2445688247680664
0.2681482315063476,0.2445688247680664
0.2816951751708984,0.2429008483886719
0.2816951751708984,0.2429008483886719
0.2811109542846680,0.2569564819335937
0.2811109542846680,0.2569564819335937
0.2747234344482422,0.2422863006591797
0.2747234344482422,0.2422863006591797
0.2902736663818359,0.2606082916259765
0.2902736663818359,0.2606082916259765
0.2739887237548828,0.2561857223510742
0.2739887237548828,0.2561857223510742
0.2883344650268554,0.2556787490844726
0.2883344650268554,0.2556787490844726
0.2880786895751953,0.2704622268676758
0.2880786895751953,0.2704622268676758
0.2815944671630859,0.2556512832641601
0.2815944671630859,0.2556512832641601
0.2970108032226562,0.2739269256591797
0.2970108032226562,0.2739269256591797
0.2807201385498047,0.2689687728881836
0.2807201385498047,0.2689687728881836
0.2949674606323242,0.2676738739013672
0.2949674606323242,0.2676738739013672
0.2939100265502930,0.2815401077270508
0.2939100265502930,0.2815401077270508
0.2874309539794922,0.2657146453857422
0.2874309539794922,0.2657146453857422
0.3025102615356445,0.2826765060424805
0.3025102615356445,0.2826765060424805
0.2849504470825195,0.2766340255737305
0.2849504470825195,0.2766340255737305
0.2991622924804687,0.2744390487670899
0.2991622924804687,0.2744390487670899
0.2986942291259765,0.2876838684082031
0.2986942291259765,0.2876838684082031
0.2901002883911133,0.2704925537109375
0.2901002883911133,0.2704925537109375
0.3050851821899414,0.2873050689697266
0.3050851821899414,0.2873050689697266
0.2871242523193359,0.2804260253906250
0.2871242523193359,0.2804260253906250
0.3008863449096680,0.2776805877685547
0.3008863449096680,0.2776805877685547
0.2996583938598633,0.2908927917480469
0.2996583938598633,0.2908927917480469
0.2918157577514648,0.2735910415649414
0.2918157577514648,0.2735910415649414
0.3070718765258789,0.2908876419067383
0.3070718765258789,0.2908876419067383
0.2891292572021484,0.2844291687011719
0.2891292572021484,0.2844291687011719
0.3029073715209961,0.2814245223999023
0.3029073715209961,0.2814245223999023
0.3017028808593750,0.2948684692382812
0.3017028808593750,0.2948684692382812
0.2938201904296875,0.2773275375366211
0.2938201904296875,0.2773275375366211
0.3089115142822266,0.2942230224609375
0.2980430603027344,0.2942230224609375
0.2903074264526367,0.2868701934814453
0.2903074264526367,0.2868701934814453
0.3035379409790039,0.2819515228271484
0.3035379409790039,0.2819515228271484
0.3008136749267578,0.2920246124267578
0.3008136749267578,0.2920246124267578
0.2899497985839843,0.2683170318603516
0.2899497985839843,0.2683170318603516
0.3010110855102539,0.2769659042358398
0.3010110855102539,0.2769659042358398
0.2777778625488281,0.2603210449218750
0.2944879531860352,0.2603210449218750
0.2870000839233398,0.2488826751708984
0.2870000839233398,0.2488826751708984
0.2819240570068359,0.2560312271118164
0.2819240570068359,0.2560312271118164
0.2713880538940430,0.2349678039550781
0.2713880538940430,0.2349678039550781
0.2847473144531250,0.2493638992309570
0.2847473144531250,0.2493638992309570
0.2658679962158203,0.2410806655883789
0.2658679962158203,0.2410806655883789
0.2793376922607422,0.2378969192504883
0.2793376922607422,0.2378969192504883
0.2776914596557617,0.2512086868286132
0.2776914596557617,0.2512086868286132
0.2703620910644531,0.2343778610229492
0.2703620910644531,0.2343778610229492
0.2858814239501953,0.2522741317749023
0.2858814239501953,0.2522741317749023
0.2683319091796875,0.2460823059082031
0.2683319091796875,0.2460823059082031
0.2831960678100586,0.2450437545776367
0.2831960678100586,0.2450437545776367
0.2823623657226562,0.2597608566284180
0.2823623657226562,0.2597608566284180
0.2759611129760742,0.2446191787719726
0.2759611129760742,0.2446191787719726
0.2922746658325195,0.2639356613159179
0.2825523376464844,0.2639356613159179
0.2911136627197266,0.2593854904174804
0.2911136627197266,0.2593854904174804
0.2846305847167969,0.2599245071411133
0.2846305847167969,0.2599245071411133
0.2837574005126953,0.2733083724975586
0.2837574005126953,0.2733083724975586
0.2866727828979492,0.2684406280517578
0.2866727828979492,0.2692136764526367
0.2974863052368164,0.2863912582397461
0.2970205307006836,0.2863912582397461
0.3056905746459961,0.2889781951904297
0.3056905746459961,0.2889781951904297
0.3056905746459961,0.2881090164184570
0.2886016845703125,0.2818073272705078
0.2886016845703125,0.2818073272705078
0.3025915145874024,0.2800168991088867
0.3025915145874024,0.2800168991088867
0.3005390167236328,0.2931106567382812
0.3005390167236328,0.2931106567382812
0.2938173294067383,0.2764720916748047
0.2954624176025391,0.2764720916748047
0.3087627410888672,0.2934024810791016
0.2978685379028320,0.2934024810791016
0.2908372879028320,0.2865720748901367
0.2908372879028320,0.2865720748901367
0.3044769287109375,0.2841030120849609
0.3044769287109375,0.2841030120849609
0.3022481918334961,0.2967201232910156
0.3022481918334961,0.2967201232910156
0.2947860717773437,0.2792358398437500
0.2947860717773437,0.2792358398437500
0.3089921951293945,0.2953691482543945
0.3089921951293945,0.2953691482543945
0.2908544540405273,0.2878623962402344
0.2908544540405273,0.2878623962402344
0.3043241500854492,0.2849458694458007
0.3043241500854492,0.2849458694458007
0.3026063919067383,0.2980361938476562
0.3026063919067383,0.2980361938476562
0.2955516815185547,0.2810583114624023
0.2955516815185547,0.2810583114624023
0.3103197097778320,0.2975131988525391
0.3103197097778320,0.2975131988525391
0.2925996780395508,0.2904069900512695
0.2925996780395508,0.2904069900512695
0.3065443038940430,0.2882205963134766
0.3065443038940430,0.2882205963134766
0.3049032211303711,0.3007976531982422
0.3124271392822265,0.3007976531982422
0.2975578308105469,0.2837636947631836
0.2975578308105469,0.2837636947631836
0.3119110107421875,0.3000251770019531
0.3119110107421875,0.3000251770019531
0.2935867309570312,0.2911834716796875
0.2935867309570312,0.2911834716796875
0.3055131912231445,0.2849744796752929
0.3055131912231445,0.2849744796752929
0.3012411117553711,0.2923152923583984
0.3012411117553711,0.2923152923583984
0.2905557632446289,0.2691438674926758
0.2905780792236328,0.2691438674926758
0.3026836395263672,0.2810543060302734
0.3026836395263672,0.2810543060302734
0.2822713851928711,0.2697893142700195
0.3001121520996093,0.2697893142700195
0.2945463180541992,0.2647459030151367
0.2945463180541992,0.2647459030151367
0.2922626495361328,0.2763330459594727
0.2922626495361328,0.2763330459594727
0.2847192764282226,0.2593883514404297
0.2847192764282226,0.2593883514404297
0.2997797012329101,0.2772022247314453
0.2997797012329101,0.2772022247314453
0.2827297210693359,0.2711505889892578
0.2827297210693359,0.2711505889892578
0.2974657058715820,0.2703695297241211
0.2974657058715820,0.2703695297241211
0.2969724655151367,0.2849452972412109
0.2969724655151367,0.2849452972412109
0.2908681869506836,0.2696210861206055
0.2908681869506836,0.2696210861206055
0.3060316085815429,0.2878034591674805
0.3060316085815429,0.2878034591674805
0.2894411087036133,0.2816413879394531
0.3081344604492187,0.2816413879394531
0.3038652420043945,0.2806686401367187
0.3038652420043945,0.2806686401367187
0.3022121429443359,0.2938076019287109
0.3022121429443359,0.2938076019287109
0.2957674026489258,0.2781366348266601
0.2957674026489258,0.2781366348266601
0.3107460021972656,0.2955579757690430
0.3107460021972656,0.2955579757690430
0.2939592361450195,0.2891761779785156
0.2939592361450195,0.2891761779785156
0.3077110290527343,0.2875299453735352
0.3077110290527343,0.2875299453735352
0.3063451766967774,0.3008474349975586
0.3063451766967774,0.3008474349975586
0.2993597030639648,0.2844245910644531
0.2993597030639648,0.2844245910644531
0.3144121170043945,0.3016611099243164
0.3144121170043945,0.3016611099243164
0.2969089508056640,0.2951534271240234
0.2969089508056640,0.2951534271240234
0.3109840393066406,0.2930677413940430
0.3109840393066406,0.2930677413940430
0.3096776962280273,0.3059915542602539
0.3096776962280273,0.3059915542602539
0.3018167495727539,0.2887086868286133
0.3018167495727539,0.2887086868286133
0.3164445877075195,0.3054244995117187
0.3164445877075195,0.3054244995117187
0.2985128402709961,0.2980997085571289
0.2985128402709961,0.2980997085571289
0.2998100280761719,0.2899297714233398
0.2998100280761719,0.2899297714233398
0.2998100280761719,0.2910003662109375
0.3154621124267578,0.2998031616210937
0.2998277664184570,0.2998031616210937
0.3032472610473633,0.3034687042236328
0.3175678253173828,0.3034687042236328
0.3053552627563477,0.2898427963256836
0.2953926086425781,0.2898427963256836
0.3136722564697266,0.3064865112304687
0.3109336853027344,0.3064865112304687
0.2981878280639648,0.2890851974487305
0.3091003417968750,0.2890851974487305
0.3139892578125000,0.2980653762817383
0.2982164382934570,0.2980653762817383
0.3017280578613281,0.3016702651977539
0.3157808303833008,0.3016702651977539
0.3038526535034179,0.2874979019165039
0.2934230804443359,0.2874979019165039
0.3107116699218750,0.3020021438598633
0.3074031829833984,0.3020021438598633
0.2938201904296875,0.2808980941772461
0.3028432846069336,0.2808980941772461
0.3065013885498047,0.2838758468627929
0.2889970779418945,0.2838758468627929
0.2907451629638672,0.2803356170654297
0.3029668807983398,0.2803356170654297
0.2889976501464844,0.2599296569824219
0.2774551391601562,0.2599296569824219
0.2942378997802734,0.2712358474731445
0.2905431747436523,0.2712358474731445
0.2768205642700195,0.2497770309448242
0.2861869812011719,0.2497770309448242
0.2911685943603515,0.2560478210449219
0.2746204376220703,0.2560478210449219
0.2776576995849609,0.2578411102294922
0.2918312072753906,0.2578411102294922
0.2792901992797852,0.2435874938964844
0.2696342468261719,0.2435874938964844
0.2880254745483398,0.2606025695800781
0.2856101989746094,0.2606025695800781
0.2733501434326172,0.2438890457153320
0.2855724334716797,0.2438890457153320
0.2899400711059570,0.2533395767211914
0.2740774154663086,0.2533395767211914
0.2779169082641602,0.2579498291015625
0.2927988052368164,0.2579498291015625
0.2810028076171875,0.2456829071044922
0.2712364196777344,0.2456829071044922
0.2902015686035156,0.2641479492187500
0.2879293441772461,0.2641479492187500
0.2756509780883789,0.2484231948852539
0.2873388290405273,0.2484231948852539
0.2929252624511718,0.2595548629760742
0.2775026321411133,0.2595548629760742
0.2817489624023438,0.2654359817504883
0.2967384338378906,0.2654359817504883
0.2853206634521484,0.2540559768676758
0.2757928848266601,0.2540559768676758
0.2944908142089844,0.2734199523925781
0.2926671981811523,0.2734199523925781
0.2806858062744140,0.2586576461791992
0.2922025680541992,0.2586576461791992
0.2978851318359375,0.2699449539184570
0.2825483322143554,0.2699449539184570
0.2869199752807617,0.2760555267333984
0.3019729614257812,0.2760555267333984
0.2907222747802734,0.2650405883789063
0.2814359664916992,0.2650405883789063
0.3001367568969727,0.2841012954711914
0.2980882644653320,0.2841012954711914
0.2860713958740234,0.2686872482299805
0.2976276397705078,0.2686872482299805
0.3036300659179688,0.2801170349121094
0.2882555007934570,0.2801170349121094
0.2923044204711914,0.2855249404907226
0.3072704315185547,0.2855249404907226
0.2959396362304688,0.2741214752197266
0.2866390228271484,0.2741214752197266
0.3051258087158203,0.2925264358520508
0.3030241012573242,0.2925264358520508
0.2911846160888672,0.2766981124877930
0.3022607803344726,0.2766981124877930
0.3079050064086914,0.2870859146118164
0.2924308776855469,0.2870859146118164
0.2962823867797851,0.2922042846679687
0.3109434127807617,0.2922042846679687
0.2994689941406250,0.2797920227050781
0.2897678375244140,0.2797920227050781
0.3082082748413086,0.2975149154663086
0.3058410644531250,0.2975149154663086
0.2935878753662109,0.2810800552368164
0.3040798187255859,0.2810800552368164
0.3097612380981445,0.2909282684326172
0.2943471908569336,0.2909282684326172
0.2978221893310547,0.2949565887451172
0.3122817993164063,0.2949565887451172
0.3009286880493164,0.2820098876953125
0.2907005310058594,0.2820098876953125
0.3084514617919922,0.2983709335327148
0.3060859680175781,0.2983709335327148
0.2933647155761719,0.2807373046875000
0.3037788391113281,0.2807373046875000
0.3086334228515625,0.2882955551147461
0.2922615051269531,0.2882955551147461
0.2948318481445312,0.2880203247070313
0.3075845718383789,0.2880203247070313
0.2941555023193359,0.2682832717895507
0.2820510864257812,0.2682832717895507
0.2979509353637695,0.2770963668823242
0.2934288024902343,0.2770963668823242
0.2787757873535156,0.2522850036621094
0.2872987747192383,0.2522850036621094
0.2911514282226562,0.2554264068603516
0.2740556716918945,0.2554264068603516
0.2763301849365234,0.2548954010009766
0.2898902893066406,0.2548954010009766
0.2776004791259766,0.2397623062133789
0.2670965194702148,0.2397623062133789
0.2844869613647461,0.2552095413208008
0.2820585250854492,0.2552095413208008
0.2696342468261719,0.2380622863769531
0.2800638198852539,0.2380622863769531
0.2852319717407226,0.2472496032714844
0.2698436737060547,0.2472496032714844
0.2732093811035156,0.2514925003051758
0.2879247665405273,0.2514925003051758
0.2764795303344726,0.2393611907958984
0.2667200088500977,0.2393611907958984
0.2850053787231445,0.2572740554809570
0.2832973480224609,0.2572740554809570
0.2712175369262695,0.2419944763183594
0.2820419311523437,0.2419944763183594
0.2879688262939453,0.2531003952026367
0.2731235504150391,0.2531003952026367
0.2769321441650390,0.2586141586303711
0.2919622421264648,0.2586141586303711
0.2807350158691406,0.2477663040161133
0.2714521408081055,0.2477663040161133
0.2901638031005859,0.2668149948120117
0.2887001037597656,0.2668149948120117
0.2768079757690430,0.2524480819702148
0.2881788253784179,0.2524480819702148
0.2941612243652343,0.2641370773315430
0.2792089462280273,0.2641370773315430
0.2831995010375977,0.2698699951171875
0.2981929779052734,0.2698699951171875
0.2869600296020507,0.2587526321411133
0.2775426864624023,0.2587526321411133
0.2960168838500977,0.2773841857910156
0.2944049835205078,0.2773841857910156
0.2822095870971680,0.2619283676147461
0.2932165145874023,0.2619283676147461
0.2990358352661133,0.2725679397583008
0.2837270736694336,0.2725679397583008
0.2874040603637695,0.2771450042724609
0.3019918441772461,0.2771450042724609
0.2908710479736328,0.2652843475341797
0.2812282562255859,0.2652843475341797
0.2993133544921875,0.2829963684082031
0.2974245071411133,0.2829963684082031
0.2852056503295898,0.2670982360839844
0.2957937240600586,0.2670982360839844
0.3016216278076172,0.2768869400024414
0.2863878250122070,0.2768869400024414
0.2899343490600586,0.2813192367553711
0.3043218612670898,0.2813192367553711
0.2929281234741211,0.2690723419189453
0.2831623077392578,0.2690723419189453
0.3012445449829101,0.2860731124877929
0.2990261077880859,0.2860731124877929
0.2868209838867187,0.2699094772338867
0.2970211029052734,0.2699094772338867
0.3026378631591797,0.2799179077148438
0.2874584197998047,0.2799179077148438
0.2909860610961914,0.2839033126831055
0.3055200576782227,0.2839033126831055
0.2941406250000000,0.2713159561157226
0.2839885711669922,0.2713159561157226
0.3021492004394531,0.2884397506713867
0.2999645233154297,0.2884397506713867
0.2875127792358398,0.2721422195434570
0.2982810974121093,0.2721422195434570
0.3035316467285156,0.2814617156982422
0.2880168914794922,0.2814617156982422
0.2912269592285156,0.2851678848266602
0.3056196212768554,0.2851678848266602
0.2939809799194336,0.2724718093872070
0.2840829849243164,0.2724718093872070
0.3020713806152344,0.2896711349487305
0.3000011444091797,0.2896711349487305
0.2875986099243164,0.2732740402221679
0.2981019973754883,0.2732740402221679
0.3036741256713867,0.2826496124267578
0.2884363174438476,0.2826496124267578
0.2916160583496094,0.2864742279052734
0.3060104370117188,0.2864742279052734
0.2945852279663086,0.2739406585693359
0.2847106933593750,0.2739406585693359
0.3026247024536133,0.2910358428955078
0.3007364273071289,0.2910358428955078
0.2885805130004883,0.2748023986816406
0.2990501403808594,0.2748023986816406
0.3043561935424804,0.2840171813964844
0.2892259597778320,0.2840171813964844
0.2924188613891601,0.2877696990966797
0.3069414138793945,0.2877696990966797
0.2954235076904297,0.2750661849975586
0.2855335235595703,0.2750661849975586
0.3037399291992187,0.2920549392700195
0.3014699935913086,0.2920549392700195
0.2888792037963867,0.2745260238647461
0.2992418289184570,0.2745260238647461
0.3045186996459961,0.2835760116577148
0.2890394210815430,0.2835760116577148
0.2922712326049804,0.2868684768676757
0.3069025039672851,0.2868684768676757
0.2955430984497070,0.2739870071411133
0.2856445312500000,0.2739870071411133
0.3039030075073242,0.2911273956298828
0.3019809722900391,0.2911273956298828
0.2895406723022461,0.2743469238281250
0.3001785278320312,0.2743469238281250
0.3058473587036133,0.2840692520141602
0.2904493331909180,0.2840692520141602
0.2939540863037109,0.2876935958862304
0.3084468841552734,0.2876935958862304
0.2969478607177734,0.2747755050659180
0.2870166778564453,0.2747755050659180
0.3049753189086914,0.2921018600463867
0.3030246734619140,0.2921018600463867
0.2907434463500976,0.2757751464843750
0.3011341094970703,0.2757751464843750
0.3069849014282227,0.2859941482543945
0.2918930053710938,0.2859941482543945
0.2953708648681641,0.2903509140014648
0.3099609375000000,0.2903509140014648
0.2989030838012695,0.2792192459106445
0.2894771575927734,0.2792192459106445
0.3074197769165039,0.2971063613891601
0.3060911178588867,0.2971063613891601
0.2941160202026367,0.2819721221923828
0.3044488906860351,0.2819721221923828
0.3102201461791992,0.2924091339111328
0.2955287933349609,0.2924091339111328
0.2988859176635742,0.2970960617065430
0.3136802673339844,0.2970960617065430
0.3022939682006836,0.2853870391845703
0.2925676345825195,0.2853870391845703
0.3108009338378906,0.3028718948364258
0.3089538574218750,0.3028718948364258
0.2965599060058594,0.2865594863891601
0.3072326660156250,0.2865594863891601
0.3127693176269531,0.2968706130981445
0.2976202011108398,0.2968706130981445
0.3009120941162109,0.3009824752807617
0.3154981613159180,0.3009824752807617
0.3042755126953125,0.2886898040771484
0.2942699432373047,0.2886898040771484
0.3123470306396484,0.3058702468872070
0.3103672027587890,0.3058702468872070
0.2978404998779297,0.2896104812622070
0.3086082458496094,0.2896104812622070
0.3142324447631836,0.2996944427490234
0.2989643096923828,0.2996944427490234
0.3026756286621093,0.3040054321289062
0.3172399520874024,0.3040054321289062
0.3058055877685547,0.2915353775024414
0.2958995819091797,0.2915353775024414
0.3141672134399414,0.3091129302978515
0.3121662139892578,0.3091129302978515
0.2997550964355469,0.2926603317260742
0.3106058120727539,0.2926603317260742
0.3163209915161133,0.3028049468994141
0.3007301330566406,0.3028049468994141
0.3042148590087890,0.3066312789916992
0.3189022064208984,0.3066312789916992
0.3071371078491211,0.2936880111694336
0.2971830368041992,0.2936880111694336
0.3154191970825195,0.3109325408935547
0.3130537033081054,0.3109325408935547
0.3006694793701172,0.2939666748046875
0.3112987518310547,0.2939666748046875
0.3165115356445312,0.3027379989624023
0.3002923965454101,0.3027379989624023
0.3032987594604492,0.3048374176025391
0.3173006057739258,0.3048374176025391
0.3041685104370117,0.2873296737670898
0.2925355911254883,0.2873296737670898
0.3096204757690429,0.2980258941650391
0.3047063827514648,0.2980258941650391
0.2896133422851562,0.2714962005615234
0.2979560852050781,0.2714962005615234
0.3003747940063476,0.2707202911376953
0.2816442489624023,0.2707202911376953
0.2831514358520508,0.2661724090576172
0.2957777023315429,0.2661724090576172
0.2823291778564453,0.2467311859130859
0.2707998275756836,0.2467311859130859
0.2843593597412109,0.2455141067504883
0.2843593597412109,0.2455141067504883
0.2811681747436524,0.2560340881347656
0.2881027221679687,0.2560340881347656
0.2721073150634766,0.2371839523315430
0.2721073150634766,0.2371839523315430
0.2871007919311523,0.2539987564086914
0.2871007919311523,0.2539987564086914
0.2690340042114258,0.2466390609741211
0.2690340042114258,0.2466390609741211
0.2833368301391602,0.2443983078002930
0.2833368301391602,0.2443983078002930
0.2817844390869140,0.2577919006347656
0.2817844390869140,0.2577919006347656
0.2745609283447266,0.2413524627685547
0.2745609283447266,0.2413524627685547
0.2902713775634765,0.2598896026611328
0.2902713775634765,0.2598896026611328
0.2728797912597656,0.2539981842041015
0.2728797912597656,0.2539981842041015
0.2874063491821289,0.2531147003173828
0.2874063491821289,0.2531147003173828
0.2866779327392578,0.2679479598999023
0.2866779327392578,0.2679479598999023
0.2805273056030274,0.2530071258544922
0.2805273056030274,0.2530071258544922
0.2967029571533203,0.2723442077636719
0.2967029571533203,0.2723442077636719
0.2796895980834961,0.2669494628906250
0.2796895980834961,0.2669494628906250
0.2948661804199219,0.2664854049682617
0.2948661804199219,0.2664854049682617
0.2937715530395508,0.2808162689208984
0.3019334793090820,0.2808162689208984
0.2870779037475586,0.2649467468261719
0.2870779037475586,0.2649467468261719
0.3028861999511719,0.2833797454833984
0.3028861999511719,0.2833797454833984
0.2853263854980468,0.2768033981323242
0.2853263854980468,0.2768033981323242
0.2999364852905274,0.2755411148071289
0.2999364852905274,0.2755411148071289
0.2985151290893555,0.2891258239746093
0.2985151290893555,0.2891258239746093
0.2915948867797851,0.2726886749267578
0.2915948867797851,0.2726886749267578
0.3067176818847656,0.2900911331176758
0.3067176818847656,0.2900911331176758
0.2890285491943359,0.2830701828002929
0.2890285491943359,0.2830701828002929
0.3029966354370117,0.2811990737915039
0.3029966354370117,0.2811990737915039
0.3009418487548828,0.2938934326171875
0.3009418487548828,0.2938934326171875
0.2937749862670898,0.2771753311157226
0.2937749862670898,0.2771753311157226
0.3084228515625000,0.2941577911376953
0.3084228515625000,0.2941577911376953
0.2908910751342773,0.2868295669555664
0.3089847564697266,0.2868295669555664
0.3045335769653320,0.2848634719848633
0.3045335769653320,0.2848634719848633
0.3027694702148437,0.2973575592041016
0.3027694702148437,0.2973575592041016
0.2954338073730469,0.2804597854614257
0.2954338073730469,0.2804597854614257
0.3097177505493164,0.2970760345458984
0.3097177505493164,0.2970760345458984
0.2920806884765625,0.2894433975219726
0.2920806884765625,0.2894433975219726
0.3055406570434570,0.2868696212768554
0.3055406570434570,0.2868696212768554
0.3031843185424805,0.2989826202392578
0.3031843185424805,0.2989826202392578
0.2956626892089844,0.2817895889282226
0.2956626892089844,0.2817895889282226
0.3099231719970703,0.2979686737060547
0.3099231719970703,0.2979686737060547
0.2924400329589844,0.2903503417968750
0.2924400329589844,0.2903503417968750
0.3056894302368164,0.2879344940185547
0.3056894302368164,0.2879344940185547
0.3036329269409180,0.2999931335449219
0.3036329269409180,0.2999931335449219
0.2965862274169922,0.2831314086914062
0.2965862274169922,0.2831314086914062
0.3110361099243164,0.2995697021484375
0.3110361099243164,0.2995697021484375
0.2934362411499024,0.2919960021972656
0.2934362411499024,0.2919960021972656
0.3069643020629882,0.2897283554077149
0.3069643020629882,0.2897283554077149
0.3049478530883789,0.3017818450927734
0.3049478530883789,0.3017818450927734
0.2980093002319336,0.2850294113159180
0.2980093002319336,0.2850294113159180
0.3124111175537109,0.3015043258666992
0.3124111175537109,0.3015043258666992
0.2946195602416992,0.2940393447875976
0.2946195602416992,0.2940393447875976
0.3081029891967773,0.2913825988769531
0.3081029891967773,0.2913825988769531
0.3060058593750000,0.3034818649291992
0.3060058593750000,0.3034818649291992
0.2983892440795898,0.2861366271972656
0.2983892440795898,0.2861366271972656
0.3127281188964844,0.3024152755737304
0.3127281188964844,0.3024152755737304
0.2948318481445312,0.2949926376342774
0.2948318481445312,0.2949926376342774
0.3086133956909179,0.2924509048461914
0.3086133956909179,0.2924509048461914
0.3063755035400391,0.3044815063476562
0.3063755035400391,0.3044815063476562
0.2987428665161133,0.2870046615600586
0.2987428665161133,0.2870046615600586
0.3131504058837891,0.3035058975219727
0.3131504058837891,0.3035058975219727
0.2952901840209961,0.2958738327026367
0.2952901840209961,0.2958738327026367
0.3084840774536133,0.2927570343017578
0.3084840774536133,0.2927570343017578
0.3061815261840820,0.3045993804931640
0.3061815261840820,0.3045993804931640
0.2988155364990234,0.2875980377197265
0.2988155364990234,0.2875980377197265
0.3133392333984375,0.3041484832763672
0.3133392333984375,0.3041484832763672
0.2957136154174805,0.2965873718261718
0.2957136154174805,0.2965873718261718
0.3091541290283203,0.2942316055297852
0.3091541290283203,0.2942316055297852
0.3071880340576172,0.3062696456909180
0.3071880340576172,0.3062696456909180
0.3005584716796875,0.2898599624633789
0.3005584716796875,0.2898599624633789
0.3147771835327148,0.3065557479858398
0.3147771835327148,0.3065557479858398
0.2981288909912109,0.2996681213378906
0.2981288909912109,0.2996681213378906
0.3119470596313477,0.2981969833374024
0.3119470596313477,0.2981969833374024
0.3097618103027344,0.3102430343627929
0.3097618103027344,0.3102430343627929
0.3032672882080078,0.2943563461303711
0.3032672882080078,0.2943563461303711
0.3179105758666992,0.3111871719360351
0.3179105758666992,0.3111871719360351
0.3012428283691406,0.3044088363647461
0.3012428283691406,0.3044088363647461
0.3150770187377930,0.3027820587158203
0.3150770187377930,0.3027820587158203
0.3130960464477539,0.3151576995849609
0.3130960464477539,0.3151576995849609
0.3066598892211914,0.2991296768188477
0.3066598892211914,0.2991296768188477
0.3210834503173828,0.3156623840332031
0.3210834503173828,0.3156623840332031
0.3040328979492187,0.3085264205932617
0.3040328979492187,0.3085264205932617
0.3174356460571289,0.3064395904541016
0.3174356460571289,0.3064395904541016
0.3151279449462890,0.3177274703979492
0.3151279449462890,0.3177274703979492
0.3071559906005859,0.2989248275756836
0.3071559906005859,0.2989248275756836
0.3189050674438477,0.3102945327758789
0.3189050674438477,0.3102945327758789
0.2982444763183594,0.2957450866699219
0.2982444763183594,0.2957450866699219
0.3069780349731445,0.2841482162475586
0.3069780349731445,0.2841482162475586
0.2998701095581054,0.2866132736206055
0.2998701095581054,0.2866132736206055
0.2880655288696289,0.2614643096923828
0.2880655288696289,0.2614643096923828
0.2984315872192383,0.2713972091674804
0.2984315872192383,0.2713972091674804
0.2784175872802734,0.2597167968750000
0.2784175872802734,0.2597167968750000
0.2902673721313476,0.2547449111938476
0.2902673721313476,0.2547449111938476
0.2872089385986328,0.2652248382568359
0.2872089385986328,0.2652248382568359
0.2791116714477539,0.2473440170288086
0.2791116714477539,0.2473440170288086
0.2933069229125976,0.2632753372192383
0.2933069229125976,0.2632753372192383
0.2753145217895508,0.2559064865112304
0.2753145217895508,0.2559064865112304
0.2892597198486328,0.2539981842041015
0.2892597198486328,0.2539981842041015
0.2878503799438477,0.2673156738281250
0.2878503799438477,0.2673156738281250
0.2810268402099609,0.2514289855957031
0.2810268402099609,0.2514289855957031
0.2966062545776367,0.2699460983276367
0.2966062545776367,0.2699460983276367
0.2797433853149414,0.2645708084106445
0.2797433853149414,0.2645708084106445
0.2947299957275391,0.2642801284790039
0.2947299957275391,0.2642801284790039
0.2941371917724609,0.2793565750122070
0.2941371917724609,0.2793565750122070
0.2880872726440429,0.2645404815673828
0.2880872726440429,0.2645404815673828
0.3041381835937500,0.2833728790283203
0.3041381835937500,0.2833728790283203
0.2870235443115234,0.2777818679809570
0.2870235443115234,0.2777818679809570
0.3016897201538086,0.2768308639526367
0.3016897201538086,0.2768308639526367
0.3007049560546875,0.2907886505126953
0.3007049560546875,0.2907886505126953
0.2933864593505859,0.2742296218872070
0.2933864593505859,0.2742296218872070
0.3086259841918945,0.2915937423706055
0.3086259841918945,0.2915937423706055
0.2905477523803711,0.2847707748413086
0.2905477523803711,0.2847707748413086
0.3041330337524414,0.2816476821899414
0.3041330337524414,0.2816476821899414
0.3021903991699219,0.2939655303955078
0.3093864440917969,0.2939655303955078
0.2941194534301758,0.2759113311767578
0.2941194534301758,0.2759113311767578
0.3082242965698242,0.2922346115112305
0.3082242965698242,0.2922346115112305
0.2896980285644531,0.2838111877441406
0.2896980285644531,0.2838111877441406
0.3026544570922852,0.2797765731811523
0.3026544570922852,0.2797765731811523
0.3002569198608399,0.2913700103759765
0.3002569198608399,0.2913700103759765
0.2919713973999024,0.2731550216674805
0.2919713973999024,0.2731550216674805
0.3065225601196289,0.2893793106079102
0.3065225601196289,0.2893793106079102
0.2885141372680664,0.2819692611694336
0.2885141372680664,0.2819692611694336
0.3020713806152344,0.2787088394165039
0.3020713806152344,0.2787088394165039
0.3000160217285156,0.2906049728393554
0.3000160217285156,0.2906049728393554
0.2916057586669922,0.2715396881103516
0.2916057586669922,0.2715396881103516
0.3041690826416015,0.2836074829101562
0.3041690826416015,0.2836074829101562
0.2825643539428711,0.2689161300659180
0.2825643539428711,0.2689161300659180
0.2915622711181641,0.2580024719238281
0.2915622711181641,0.2580024719238281
0.2858579635620117,0.2633886337280273
0.2858579635620117,0.2633886337280273
0.2755348205566406,0.2414869308471680
0.2755348205566406,0.2414869308471680
0.2874898910522461,0.2543128967285156
0.2874898910522461,0.2543128967285156
0.2687994003295898,0.2448343276977539
0.2687994003295898,0.2448343276977539
0.2814291000366211,0.2412059783935547
0.2814291000366211,0.2412059783935547
0.2788404464721679,0.2522003173828125
0.2788404464721679,0.2522003173828125
0.2713811874389648,0.2352046966552734
0.2718950271606445,0.2352046966552734
0.2851690292358398,0.2507909774780273
0.2851690292358398,0.2507909774780273
0.2680337905883789,0.2437437057495117
0.2680337905883789,0.2437437057495117
0.2814250946044922,0.2417060852050781
0.2682586669921875,0.2417060852050781
0.2796804428100586,0.2540685653686524
0.2796804428100586,0.2540685653686524
0.2727670669555664,0.2380565643310547
0.2727670669555664,0.2380565643310547
0.2873697280883789,0.2549892425537109
0.2873697280883789,0.2549892425537109
0.2702968597412109,0.2484964370727539
0.2702968597412109,0.2484964370727539
0.2841161727905273,0.2472095489501953
0.2841161727905273,0.2472095489501953
0.2830610275268555,0.2609321594238281
0.2830610275268555,0.2609321594238281
0.2766260147094726,0.2456497192382812
0.2766260147094726,0.2456497192382812
0.2920246124267578,0.2639350891113281
0.2920246124267578,0.2639350891113281
0.2753694534301758,0.2588109970092773
0.2753694534301758,0.2588109970092773
0.2900161743164062,0.2583435058593750
0.2900161743164062,0.2583435058593750
0.2897563934326172,0.2730588912963867
0.2897563934326172,0.2730588912963867
0.2831617355346679,0.2577346801757812
0.2831617355346679,0.2577346801757812
0.2989036560058594,0.2762741088867187
0.2989036560058594,0.2762741088867187
0.2817770004272461,0.2708227157592774
0.2817770004272461,0.2708227157592774
0.2845676422119141,0.2662994384765625
0.2958229064941406,0.2662994384765625
0.3010980606079102,0.2767026901245117
0.2856605529785156,0.2767026901245117
0.2897306442260742,0.2820796966552734
0.3043207168579101,0.2820796966552734
0.2927684783935547,0.2701126098632812
0.2832939147949219,0.2701126098632812
0.3020290374755859,0.2882663726806641
0.2995891571044922,0.2882663726806641
0.2874727249145508,0.2725627899169922
0.2987983703613281,0.2725627899169922
0.3040351867675781,0.2826375961303711
0.2886171340942383,0.2826375961303711
0.2927078247070312,0.2880638122558594
0.3075485229492188,0.2880638122558594
0.2960020065307617,0.2755645751953125
0.2863763809204101,0.2755645751953125
0.3048814773559570,0.2935518264770507
0.3027191162109375,0.2935518264770507
0.2904819488525390,0.2777063369750977
0.3019540786743164,0.2777063369750977
0.3072086334228515,0.2875791549682617
0.2913042068481445,0.2875791549682617
0.2954658508300781,0.2922666549682617
0.3099414825439453,0.2922666549682617
0.2980344772338867,0.2792844772338867
0.2883739471435547,0.2792844772338867
0.3068704605102539,0.2969552993774414
0.3042646408081054,0.2969552993774414
0.2918718338012695,0.2805112838745117
0.3033227920532227,0.2805112838745117
0.3085098266601562,0.2895200729370117
0.2920131683349609,0.2895200729370117
0.2959030151367187,0.2936771392822266
0.3104301452636719,0.2936771392822266
0.2981918334960937,0.2803934097290039
0.2884157180786133,0.2803934097290039
0.3067777633666992,0.2974685668945312
0.3037788391113281,0.2974685668945312
0.2910100936889649,0.2791082382202149
0.3017778396606445,0.2791082382202149
0.3061574935913086,0.2859140396118164
0.2893615722656250,0.2859140396118164
0.2926534652709961,0.2877914428710938
0.3063657760620117,0.2877914428710938
0.2938608169555664,0.2719551086425781
0.2832469940185547,0.2719551086425781
0.3011461257934570,0.2865022659301757
0.2976104736328125,0.2865022659301757
0.2847438812255859,0.2670764923095703
0.2956048965454102,0.2670764923095703
0.3002489089965820,0.2743560791015625
0.2840841293334961,0.2743560791015625
0.2880861282348633,0.2781543731689453
0.3025468826293945,0.2781543731689453
0.2910329818725586,0.2654628753662109
0.2816923141479492,0.2654628753662109
0.3004257202148438,0.2835680007934570
0.2983314514160156,0.2835680007934570
0.2864936828613281,0.2688531875610352
0.2982387542724609,0.2688531875610352
0.3037748336791992,0.2791580200195312
0.2883138656616211,0.2791580200195312
0.2928113937377930,0.2848772048950195
0.3074134826660156,0.2848772048950195
0.2959362030029297,0.2731887817382813
0.2866556167602539,0.2731887817382813
0.3055818557739258,0.2921333312988281
0.3033376693725586,0.2921333312988281
0.2915256500244141,0.2770906448364258
0.3029502868652343,0.2770906448364258
0.3085121154785156,0.2873823165893555
0.2930236816406250,0.2873823165893555
0.2971904754638672,0.2931249618530273
0.3119304656982422,0.2931249618530273
0.3004159927368164,0.2816356658935547
0.2912567138671875,0.2816356658935547
0.3099231719970703,0.3003547668457031
0.3075399398803711,0.3003547668457031
0.2959058761596680,0.2853406906127929
0.3074220657348632,0.2853406906127929
0.3127573013305664,0.2955093383789062
0.2972551345825195,0.2955093383789062
0.3013641357421875,0.3010047912597656
0.3159885406494141,0.3010047912597656
0.3044677734375000,0.2888734817504883
0.2950687408447266,0.2888734817504883
0.3136407852172852,0.3070072174072265
0.3112409591674805,0.3070072174072265
0.2991582870483399,0.2911525726318359
0.3103271484375000,0.2911525726318359
0.3154603958129883,0.3007844924926757
0.3000354766845703,0.3007844924926757
0.3039070129394531,0.3054479598999023
0.3183151245117187,0.3054479598999023
0.3066404342651367,0.2930122375488281
0.2970811843872070,0.2930122375488281
0.3153213500976562,0.3103042602539062
0.3131343841552734,0.3103042602539062
0.3009527206420898,0.2945989608764648
0.3115219116210937,0.2945989608764648
0.3171609878540039,0.3039476394653320
0.3017972946166992,0.3039476394653320
0.3059028625488281,0.3084331512451172
0.3200500488281250,0.3084331512451172
0.3074781417846680,0.2955093383789062
0.2984945297241211,0.2955093383789062
0.3167490005493164,0.3126823425292969
0.3143245697021484,0.3126823425292969
0.3020084381103516,0.2964935302734375
0.3123979568481445,0.2964935302734375
0.3180810928344727,0.3056350708007812
0.3023912429809570,0.3056350708007812
0.3062301635742187,0.3099323272705078
0.3205295562744140,0.3099323272705078
0.3079851150512695,0.2969060897827148
0.2989110946655273,0.2969060897827148
0.3173612594604492,0.3141632080078125
0.3146884918212891,0.3141632080078125
0.3025983810424804,0.2980516433715820
0.3128757476806641,0.2980516433715820
0.3183832168579102,0.3063411712646484
0.3024232864379883,0.3063411712646484
0.3059932708740234,0.3091999053955078
0.3195161819458008,0.3091999053955078
0.3056493759155273,0.2926614761352539
0.2956689834594726,0.2926614761352539
0.3129896163940429,0.3042205810546875
0.3085630416870117,0.3042205810546875
0.2944078445434570,0.2805152893066406
0.3028776168823242,0.2805152893066406
0.3063972473144531,0.2809799194335937
0.2885593414306640,0.2809799194335937
0.2907903671264648,0.2778373718261719
0.3030349731445313,0.2778373718261719
0.2881954193115234,0.2586421966552734
0.2784633636474609,0.2586421966552734
0.2958932876586914,0.2716861724853515
0.2922077178955078,0.2716861724853515
0.2792095184326172,0.2527919769287109
0.2891349792480469,0.2527919769287109
0.2942178726196289,0.2596052169799805
0.2780118942260742,0.2596052169799805
0.2818834304809570,0.2631769180297852
0.2957347869873047,0.2631769180297852
0.2837448120117188,0.2495435714721680
0.2740282058715820,0.2495435714721680
0.2923936843872070,0.2668167114257812
0.2895538330078125,0.2668167114257812
0.2773612976074218,0.2510993957519531
0.2889547348022461,0.2510993957519531
0.2942419052124023,0.2605316162109375
0.2785429000854492,0.2605316162109375
0.2829843521118164,0.2661140441894531
0.2975852966308594,0.2661140441894531
0.2855369567871094,0.2544988632202148
0.2763690948486328,0.2544988632202148
0.2953233718872070,0.2731761932373047
0.2930459976196289,0.2731761932373047
0.2815189361572266,0.2591571807861328
0.2932285308837890,0.2591571807861328
0.2987709045410156,0.2698694229125976
0.2837739944458008,0.2698694229125976
0.2881484985351562,0.2764686584472656
0.3031814575195312,0.2764686584472656
0.2920051574707031,0.2656150817871094
0.2829156875610351,0.2656150817871094
0.3015180587768554,0.2834175109863281
0.2868942260742187,0.2683067321777344
0.3032695770263672,0.2775953292846680
0.2881147384643555,0.2775953292846680
0.2917734146118164,0.2821123123168945
0.3053758621215820,0.2821123123168945
0.2940776824951172,0.2696514129638672
0.2843708038330078,0.2696514129638672
0.3017606735229492,0.2858688354492188
0.2995782852172851,0.2858688354492188
0.2877834320068359,0.2709045410156250
0.2982130050659180,0.2709045410156250
0.3032821655273437,0.2797880172729492
0.2887544631958008,0.2797880172729492
0.2921258926391602,0.2842712402343750
0.3060602188110351,0.2842712402343750
0.2950195312500000,0.2726634979248047
0.2854539871215820,0.2726634979248047
0.3031190872192382,0.2895120620727539
0.3012462615966797,0.2895120620727539
0.2894159317016601,0.2748235702514648
0.3000411987304688,0.2748235702514648
0.3056053161621093,0.2843982696533203
0.2906713485717773,0.2843982696533203
0.2943185806274414,0.2892053604125976
0.3085515975952148,0.2892053604125976
0.2971870422363281,0.2774408340454101
0.2879156112670898,0.2774408340454101
0.3059257507324218,0.2947225570678711
0.3037645339965820,0.2947225570678711
0.2918214797973633,0.2796358108520507
0.3026670455932617,0.2796358108520507
0.3077608108520508,0.2888317108154297
0.2928199768066406,0.2888317108154297
0.2965358734130859,0.2935489654541015
0.3106830596923828,0.2935489654541015
0.2992858886718750,0.2812414169311523
0.2898622512817383,0.2812414169311523
0.3079462051391602,0.2982725143432617
0.3055561065673828,0.2982725143432617
0.2934968948364258,0.2826662063598633
0.3043910980224609,0.2826662063598633
0.3092840194702148,0.2914323806762695
0.2941160202026367,0.2914323806762695
0.2976665496826172,0.2952678680419922
0.3113616943359375,0.2952678680419922
0.3004680633544922,0.2811395645141602
0.2894050598144531,0.2811395645141602
0.3065614700317383,0.2951763153076172
0.3033382415771484,0.2951763153076172
0.2903938293457031,0.2765230178833007
0.3007678985595703,0.2765230178833007
0.3048311233520508,0.2820207595825195
0.2885610580444336,0.2820207595825195
0.2916664123535156,0.2836132049560547
0.3050508499145508,0.2836132049560547
0.2926980972290039,0.2685287475585937
0.2828046798706055,0.2685287475585937
0.3005950927734375,0.2844177246093750
0.2977552413940430,0.2844177246093750
0.2855409622192382,0.2682043075561523
0.2962823867797851,0.2682043075561523
0.3017286300659179,0.2766809463500977
0.2860124588012695,0.2766809463500977
0.2900625228881836,0.2814748764038086
0.3042406082153320,0.2814748764038086
0.2920944213867188,0.2689739227294922
0.2830924987792969,0.2689739227294922
0.3015008926391601,0.2867134094238281
0.2989082336425781,0.2867134094238281
0.2871963500976563,0.2717514038085938
0.2987560272216797,0.2717514038085938
0.3037279129028320,0.2808877944946289
0.2882286071777344,0.2808877944946289
0.2923542022705078,0.2859930038452148
0.3065231323242187,0.2859930038452148
0.2949239730834961,0.2731613159179687
0.2852720260620117,0.2731613159179687
0.3037193298339844,0.2902393341064453
0.3007175445556641,0.2902393341064453
0.2885810852050781,0.2742816925048828
0.3001075744628906,0.2742816925048828
0.3047069549560547,0.2826221466064453
0.2888277053833008,0.2826221466064453
0.2928829193115234,0.2869949340820312
0.3068727493286132,0.2869949340820312
0.2948049545288086,0.2732666015625000
0.2849613189697265,0.2732666015625000
0.3034286499023438,0.2901718139648438
0.3001121520996093,0.2901718139648438
0.2878229141235352,0.2740179061889648
0.2996463775634766,0.2740179061889648
0.3041736602783203,0.2820402145385742
0.2880443572998047,0.2820402145385742
0.2923931121826172,0.2869279861450195
0.3064596176147461,0.2869279861450195
0.2942338943481445,0.2734462738037109
0.2846334457397461,0.2734462738037109
0.3030858993530273,0.2904653549194336
0.2998580932617188,0.2904653549194336
0.2877479553222656,0.2744161605834961
0.2995393753051758,0.2744161605834961
0.3042686462402344,0.2828435897827148
0.2880271911621093,0.2828435897827148
0.2922843933105468,0.2875202178955078
0.3063280105590820,0.2875202178955078
0.2938293457031250,0.2738451004028320
0.2841384887695312,0.2738451004028320
0.3025949478149414,0.2906965255737304
0.2993637084960937,0.2906965255737304
0.2874715805053711,0.2749677658081054
0.2994667053222656,0.2749677658081054
0.3043046951293945,0.2835416793823242
0.2884317398071289,0.2835416793823242
0.2927032470703125,0.2887968063354492
0.3069477081298828,0.2887968063354492
0.2949165344238281,0.2755651473999023
0.2855289459228516,0.2755651473999023
0.3041158676147461,0.2928949356079101
0.3011386871337891,0.2928949356079101
0.2890800476074218,0.2771232604980469
0.3006071090698242,0.2771232604980469
0.3055166244506836,0.2862070083618164
0.2899864196777344,0.2862070083618164
0.2941709518432617,0.2912641525268554
0.3083845138549804,0.2912641525268554
0.2969181060791016,0.2789485931396484
0.2877748489379883,0.2789485931396484
0.3030000686645508,0.2841081619262695
0.3030000686645508,0.2841081619262695
0.3096565246582031,0.2977598190307617
0.3081905364990234,0.2977598190307617
0.2946876525878906,0.2807441711425781
0.2946876525878906,0.2807441711425781
0.3097303390502930,0.2963687896728516
0.3097303390502930,0.2963687896728516
0.2907016754150391,0.2881393432617188
0.2907016754150391,0.2881393432617188
0.3028861999511719,0.2817375183105469
0.3028861999511719,0.2817375183105469
0.3004697799682617,0.2914901733398437
0.3004697799682617,0.2914901733398437
0.2905740737915039,0.2704730987548828
0.2905740737915039,0.2704730987548828
0.3041576385498047,0.2834873199462891
0.3041576385498047,0.2834873199462891
0.2844623565673828,0.2740602493286133
0.2844623565673828,0.2740602493286133
0.2966657638549804,0.2678758621215820
0.2966657638549804,0.2678758621215820
0.2949571609497070,0.2793703079223633
0.2949571609497070,0.2793703079223633
0.2857761383056641,0.2606529235839843
0.2857761383056641,0.2606529235839843
0.3007701873779297,0.2763570785522461
0.3007701873779297,0.2763570785522461
0.2824281692504882,0.2697898864746094
0.2824281692504882,0.2697898864746094
0.2956483840942383,0.2656185150146484
0.2820487976074219,0.2656185150146484
0.2949256896972656,0.2788810729980469
0.2949256896972656,0.2788810729980469
0.2863397598266602,0.2613956451416016
0.2863397598266602,0.2613956451416016
0.3019186019897461,0.2779981613159180
0.2908561706542969,0.2779981613159180
0.2837596893310547,0.2729358673095703
0.2837596893310547,0.2729358673095703
0.2977031707763672,0.2697858810424805
0.2977031707763672,0.2697858810424805
0.2963453292846679,0.2845350265502929
0.2963453292846679,0.2845350265502929
0.2896551132202148,0.2681613922119140
0.2896551132202148,0.2681613922119140
0.3058811187744140,0.2864238739013672
0.3058811187744140,0.2864238739013672
0.2882698059082031,0.2821243286132812
0.2882698059082031,0.2821243286132812
0.3025474548339844,0.2795448303222656
0.3025474548339844,0.2795448303222656
0.3032941818237305,0.2946693420410156
0.3032941818237305,0.2946693420410156
0.2945137023925781,0.2775981903076172
0.2945137023925781,0.2775981903076172
0.3104267120361328,0.2948564529418945
0.3104267120361328,0.2948564529418945
0.2921504974365234,0.2893798828125000
0.2921504974365234,0.2893798828125000
0.3059108734130859,0.2855358123779297
0.3059108734130859,0.2855358123779297
0.3056877136230469,0.2994832992553711
0.3056877136230469,0.2994832992553711
0.2967138290405273,0.2810165405273438
0.2967138290405273,0.2810165405273438
0.3122566223144531,0.2978010177612305
0.3122566223144531,0.2978010177612305
0.2935232162475586,0.2917350769042968
0.2935232162475586,0.2917350769042968
0.3070203781127930,0.2876020431518554
0.3070203781127930,0.2876020431518554
0.3063594818115234,0.3011112213134766
0.3063594818115234,0.3011112213134766
0.2971446990966797,0.2828887939453125
0.2971446990966797,0.2828887939453125
0.3128946304321289,0.2997734069824219
0.3128946304321289,0.2997734069824219
0.2940021514892578,0.2937086105346680
0.3132888793945313,0.2937086105346680
0.3072355270385742,0.2889976501464844
0.3072355270385742,0.2889976501464844
0.3061386108398437,0.3013618469238281
0.3061386108398437,0.3013618469238281
0.2955356597900390,0.2794063568115234
0.2955356597900390,0.2794063568115234
0.3075645446777344,0.2888368606567382
0.3075645446777344,0.2888368606567382
0.2839673995971679,0.2732248306274414
0.2839673995971679,0.2732248306274414
0.2921813964843750,0.2596418380737305
0.2921813964843750,0.2596418380737305
0.2875968933105469,0.2658794403076172
0.2875968933105469,0.2658794403076172
0.2759233474731445,0.2431348800659180
0.2759233474731445,0.2431348800659180
0.2894102096557617,0.2561216354370117
0.2894102096557617,0.2561216354370117
0.2698505401611328,0.2475116729736328
0.2698505401611328,0.2475116729736328
0.2818599700927734,0.2417078018188477
0.2818599700927734,0.2417078018188477
0.2808626174926758,0.2537950515747070
0.2808626174926758,0.2537950515747070
0.2715116500854492,0.2359142303466797
0.2715116500854492,0.2359142303466797
0.2863323211669922,0.2517179489135742
0.2863323211669922,0.2517179489135742
0.2683147430419922,0.2460783004760742
0.2683147430419922,0.2460783004760742
0.2816333770751953,0.2429552078247070
0.2816333770751953,0.2429552078247070
0.2819091796875000,0.2567276000976562
0.2819091796875000,0.2567276000976562
0.2734457015991211,0.2404392242431641
0.2734457015991211,0.2404392242431641
0.2893186569213867,0.2581163406372070
0.2893186569213867,0.2581163406372070
0.2721691131591797,0.2539747238159180
0.2721691131591797,0.2539747238159180
0.2864793777465820,0.2521327972412109
0.2864793777465820,0.2521327972412109
0.2873331069946289,0.2679193496704101
0.2873331069946289,0.2679193496704101
0.2797451019287109,0.2525224685668945
0.2797451019287109,0.2525224685668945
0.2964008331298828,0.2712066650390625
0.2964008331298828,0.2712066650390625
0.2793016433715820,0.2677099227905274
0.2793016433715820,0.2677099227905274
0.2937704086303711,0.2658279418945312
0.2937704086303711,0.2658279418945312
0.2944164276123047,0.2813478469848633
0.2944164276123047,0.2813478469848633
0.2864639282226563,0.2651321411132813
0.2864639282226563,0.2651321411132813
0.3027906417846680,0.2831279754638672
0.3027906417846680,0.2831279754638672
0.2850282669067383,0.2786590576171875
0.2850282669067383,0.2786590576171875
0.2990192413330078,0.2756383895874023
0.2990192413330078,0.2756383895874023
0.2992469787597656,0.2901117324829102
0.2992469787597656,0.2901117324829102
0.2905385971069336,0.2729461669921875
0.2905385971069336,0.2729461669921875
0.3064996719360352,0.2901054382324219
0.3064996719360352,0.2901054382324219
0.2884225845336914,0.2850477218627930
0.2884225845336914,0.2850477218627930
0.3020982742309570,0.2813329696655273
0.3020982742309570,0.2813329696655273
0.3020410537719727,0.2953222274780273
0.3020410537719727,0.2953222274780273
0.2930145263671875,0.2778339385986328
0.2930145263671875,0.2778339385986328
0.3089326858520507,0.2945554733276367
0.3089326858520507,0.2945554733276367
0.2906610488891602,0.2893123626708984
0.2906610488891602,0.2893123626708984
0.3040946960449218,0.2852531433105469
0.3040946960449218,0.2852531433105469
0.3039659500122070,0.2991731643676758
0.3039659500122070,0.2991731643676758
0.2948719024658203,0.2812740325927734
0.2948719024658203,0.2812740325927734
0.3104684829711914,0.2977409362792969
0.3104684829711914,0.2977409362792969
0.2917831420898437,0.2919107437133789
0.2917831420898437,0.2919107437133789
0.3044775009155273,0.2870475769042969
0.3044775009155273,0.2870475769042969
0.3045009613037109,0.3001012802124023
0.3045009613037109,0.3001012802124023
0.2936571121215820,0.2792118072509766
0.2936571121215820,0.2792118072509766
0.3070049285888672,0.2908590316772461
0.3070049285888672,0.2908590316772461
0.2852411270141602,0.2791917800903320
0.3027671813964843,0.2791917800903320
0.2951877593994141,0.2684463500976562
0.2951877593994141,0.2684463500976562
0.2919736862182617,0.2765773773193359
0.2919736862182617,0.2765773773193359
0.2800861358642578,0.2541601181030274
0.2800861358642578,0.2541601181030274
0.2939809799194336,0.2674633026123047
0.2939809799194336,0.2674633026123047
0.2739927291870117,0.2595977783203125
0.2739927291870117,0.2595977783203125
0.2862934112548828,0.2537120819091797
0.2862934112548828,0.2537120819091797
0.2857566833496094,0.2666547775268555
0.2857566833496094,0.2666547775268555
0.2757957458496094,0.2479980468750000
0.2757957458496094,0.2479980468750000
0.2913677215576172,0.2642606735229492
0.2913677215576172,0.2642606735229492
0.2726938247680664,0.2587423324584961
0.2726938247680664,0.2587423324584961
0.2858179092407226,0.2541555404663086
0.2858179092407226,0.2541555404663086
0.2854848861694336,0.2680028915405273
0.2854848861694336,0.2680028915405273
0.2762901306152344,0.2503995895385742
0.2762901306152344,0.2503995895385742
0.2920566558837890,0.2669443130493164
0.2920566558837890,0.2669443130493164
0.2734056472778320,0.2616491317749023
0.2734056472778320,0.2616491317749023
0.2866207122802734,0.2571012496948242
0.2866207122802734,0.2571012496948242
0.2867048263549805,0.2708209991455078
0.2867048263549805,0.2708209991455078
0.2776554107666016,0.2532726287841797
0.2776554107666016,0.2532726287841797
0.2934122085571289,0.2696914672851562
0.2934122085571289,0.2696914672851562
0.2752023696899414,0.2644077301025390
0.2752023696899414,0.2644077301025390
0.2886388778686523,0.2605012893676757
0.2886388778686523,0.2605012893676757
0.2889616012573242,0.2739149093627929
0.2889616012573242,0.2739149093627929
0.2797491073608399,0.2568923950195313
0.2797491073608399,0.2568923950195313
0.2951431274414062,0.2729970932006836
0.2951431274414062,0.2729970932006836
0.2776548385620117,0.2682249069213867
0.2776548385620117,0.2682249069213867
0.2908098220825195,0.2645290374755859
0.2908098220825195,0.2645290374755859
0.2908601760864258,0.2781051635742187
0.2908601760864258,0.2781051635742187
0.2822605133056640,0.2613595962524414
0.2822605133056640,0.2613595962524414
0.2981746673583984,0.2778917312622070
0.2981746673583984,0.2778917312622070
0.2806560516357422,0.2731475830078125
0.2806560516357422,0.2731475830078125
0.2940118789672851,0.2697240829467774
0.2940118789672851,0.2697240829467774
0.2943780899047851,0.2835943222045899
0.2943780899047851,0.2835943222045899
0.2859569549560547,0.2671440124511719
0.2859569549560547,0.2671440124511719
0.3016365051269531,0.2835737228393554
0.3016365051269531,0.2835737228393554
0.2845264434814453,0.2792879104614258
0.2845264434814453,0.2792879104614258
0.2976293563842773,0.2756298065185547
0.2976293563842773,0.2756298065185547
0.2980201721191406,0.2892162322998047
0.2980201721191406,0.2892162322998047
0.2894153594970703,0.2724168777465820
0.2894153594970703,0.2724168777465820
0.3047315597534180,0.2885026931762695
0.3047315597534180,0.2885026931762695
0.2874538421630859,0.2835027694702149
0.2874538421630859,0.2835027694702149
0.3001029968261719,0.2800020217895507
0.3001029968261719,0.2800020217895507
0.3003593444824219,0.2930837631225586
0.3003593444824219,0.2930837631225586
0.2914157867431640,0.2757202148437500
0.2914157867431640,0.2757202148437500
0.3055721282958984,0.2893060684204101
0.3055721282958984,0.2893060684204101
0.2863477706909179,0.2807052612304687
0.2863477706909179,0.2807052612304687
0.2969392776489257,0.2720884323120117
0.2825271606445313,0.2720884323120117
0.2943626403808594,0.2803401947021484
0.2943626403808594,0.2803401947021484
0.2829322814941406,0.2588178634643555
0.2829322814941406,0.2588178634643555
0.2961187362670898,0.2707191467285156
0.2961187362670898,0.2707191467285156
0.2769916534423828,0.2633611679077149
0.2769916534423828,0.2633611679077149
0.2888265609741211,0.2576499938964844
0.2888265609741211,0.2576499938964844
0.2891424179077148,0.2705572128295898
0.2950716018676758,0.2705572128295898
0.2799848556518554,0.2534986495971679
0.2799848556518554,0.2534986495971679
0.2957056045532226,0.2696811676025391
0.2957056045532226,0.2696811676025391
0.2784919738769531,0.2658233642578125
0.2784919738769531,0.2658233642578125
0.2918958663940430,0.2628707885742188
0.2918958663940430,0.2628707885742188
0.2931203842163086,0.2776948928833008
0.2931203842163086,0.2776948928833008
0.2850608825683594,0.2625726699829101
0.2850608825683594,0.2625726699829101
0.3013681411743164,0.2797061920166016
0.3013681411743164,0.2797061920166016
0.2848983764648437,0.2764102935791016
0.2848983764648437,0.2764102935791016
0.2981878280639648,0.2736934661865234
0.2858390808105469,0.2736934661865234
0.2992435455322265,0.2879676818847656
0.3054491043090820,0.2879676818847656
0.2905340194702148,0.2720357894897461
0.2905340194702148,0.2720357894897461
0.3059892654418945,0.2880884170532226
0.3059892654418945,0.2880884170532226
0.2887384414672852,0.2838129043579101
0.2887384414672852,0.2838129043579101
0.3011947631835937,0.2797153472900391
0.3011947631835937,0.2797153472900391
0.3012147903442383,0.2927152633666992
0.3012147903442383,0.2927152633666992
0.2919879913330078,0.2760046005249023
0.2919879913330078,0.2760046005249023
0.3071365356445312,0.2913459777832031
0.3071365356445312,0.2913459777832031
0.2894159317016601,0.2863592147827148
0.2894159317016601,0.2863592147827148
0.3014448165893555,0.2817226409912109
0.3014448165893555,0.2817226409912109
0.3013635635375976,0.2947786331176758
0.3013635635375976,0.2947786331176758
0.2920595169067383,0.2776262283325195
0.2920595169067383,0.2776262283325195
0.3074157714843750,0.2931289672851562
0.3074157714843750,0.2931289672851562
0.2903142929077148,0.2888895034790039
0.2903142929077148,0.2888895034790039
0.3031740188598633,0.2849212646484375
0.3031740188598633,0.2849212646484375
0.3031986236572266,0.2976625442504883
0.3031986236572266,0.2976625442504883
0.2943197250366211,0.2811355590820312
0.2943197250366211,0.2811355590820312
0.3091758728027343,0.2961965560913086
0.3091758728027343,0.2961965560913086
0.2916429519653320,0.2909397125244140
0.2916429519653320,0.2909397125244140
0.3035436630249023,0.2864622116088867
0.3035436630249023,0.2864622116088867
0.3031076431274414,0.2985443115234375
0.3031076431274414,0.2985443115234375
0.2939546585083008,0.2815835952758789
0.2939546585083008,0.2815835952758789
0.3076206207275390,0.2947980880737305
0.3076206207275390,0.2947980880737305
0.2884340286254883,0.2858734130859375
0.2884340286254883,0.2858734130859375
0.2980093002319336,0.2755714416503906
0.2980093002319336,0.2755714416503906
0.2941217422485352,0.2817129135131836
0.2941217422485352,0.2817129135131836
0.2816997528076172,0.2579858779907226
0.2816997528076172,0.2579858779907226
0.2938207626342773,0.2681459426879882
0.2938207626342773,0.2681459426879882
0.2740900039672852,0.2598134994506836
0.2740900039672852,0.2598134994506836
0.2861011505126953,0.2540365219116211
0.2861011505126953,0.2540365219116211
0.2857503890991211,0.2668510437011719
0.2857503890991211,0.2668510437011719
0.2765802383422851,0.2494600296020508
0.2765802383422851,0.2494600296020508
0.2923467636108398,0.2653238296508789
0.2923467636108398,0.2653238296508789
0.2748533248901367,0.2612085342407227
0.2748533248901367,0.2612085342407227
0.2883321762084961,0.2579029083251953
0.2883321762084961,0.2579029083251953
0.2891796112060547,0.2724700927734375
0.2891796112060547,0.2724700927734375
0.2805799484252929,0.2564340591430664
0.2805799484252929,0.2564340591430664
0.2968734741210937,0.2733518600463867
0.2968734741210937,0.2733518600463867
0.2796318054199219,0.2699157714843750
0.2796318054199219,0.2699157714843750
0.2933418273925781,0.2667320251464844
0.2933418273925781,0.2667320251464844
0.2947259902954101,0.2816499710083007
0.2947259902954101,0.2816499710083007
0.2852239608764648,0.2653873443603516
0.2852239608764648,0.2653873443603516
0.3015501022338867,0.2820825576782227
0.3015501022338867,0.2820825576782227
0.2838037490844726,0.2779512405395508
0.2838037490844726,0.2779512405395508
0.2970205307006836,0.2739400863647461
0.2835765838623047,0.2739400863647461
0.2977415084838867,0.2880758285522461
0.2977415084838867,0.2880758285522461
0.2878515243530274,0.2706350326538086
0.2878515243530274,0.2706350326538086
0.3037187576293945,0.2867883682250976
0.3037187576293945,0.2867883682250976
0.2854722976684570,0.2819423675537109
0.2854722976684570,0.2819423675537109
0.2985076904296875,0.2774070739746093
0.2985076904296875,0.2774070739746093
0.2987771987915039,0.2912017822265625
0.2987771987915039,0.2912017822265625
0.2891796112060547,0.2735675811767578
0.2891796112060547,0.2735675811767578
0.3054124832153320,0.2897380828857422
0.3054124832153320,0.2897380828857422
0.2869251251220703,0.2848617553710938
0.2869251251220703,0.2848617553710938
0.3000881195068359,0.2799453735351562
0.3000881195068359,0.2799453735351562
0.3005487442016602,0.2938201904296875
0.3005487442016602,0.2938201904296875
0.2903423309326172,0.2757270812988281
0.2903423309326172,0.2757270812988281
0.3064699172973633,0.2916355133056641
0.3064699172973633,0.2916355133056641
0.2876827239990234,0.2865268707275391
0.2876827239990234,0.2865268707275391
0.3004411697387695,0.2811750411987304
0.3004411697387695,0.2811750411987304
0.3008869171142578,0.2949399948120117
0.3008869171142578,0.2949399948120117
0.2904733657836914,0.2766683578491211
0.2904733657836914,0.2766683578491211
0.3065757751464844,0.2925350189208984
0.3065757751464844,0.2925350189208984
0.2878623962402344,0.2874835968017578
0.2878623962402344,0.2874835968017578
0.3008411407470703,0.2824487686157227
0.3008411407470703,0.2824487686157227
0.3012737274169922,0.2964677810668945
0.3012737274169922,0.2964677810668945
0.2907028198242188,0.2778785705566406
0.2907028198242188,0.2778785705566406
0.3066919326782226,0.2933103561401367
0.3066919326782226,0.2933103561401367
0.2873680114746094,0.2877542495727539
0.2873680114746094,0.2877542495727539
0.2996807098388672,0.2805152893066406
0.2996807098388672,0.2805152893066406
0.2985551834106445,0.2908424377441406
0.2985551834106445,0.2908424377441406
0.2860868453979492,0.2680074691772461
0.2860868453979492,0.2680074691772461
0.3000829696655273,0.2785755157470703
0.2863929748535156,0.2785755157470703
0.2787546157836914,0.2693069458007812
0.2787546157836914,0.2693069458007812
0.2900871276855468,0.2606746673583984
0.2900871276855468,0.2606746673583984
0.2898170471191406,0.2726594924926758
0.2898170471191406,0.2726594924926758
0.2786035537719727,0.2529024124145507
0.2786035537719727,0.2529024124145507
0.2946058273315429,0.2680515289306640
0.2946058273315429,0.2680515289306640
0.2762260437011719,0.2636175155639648
0.2762260437011719,0.2636175155639648
0.2899400711059570,0.2590021133422851
0.2899400711059570,0.2590021133422851
0.2914157867431640,0.2739749908447265
0.2914157867431640,0.2739749908447265
0.2815126419067382,0.2567459106445312
0.2815126419067382,0.2567459106445312
0.2987102508544922,0.2741701126098633
0.2987102508544922,0.2741701126098633
0.2812883377075195,0.2717679977416992
0.2812883377075195,0.2717679977416992
0.2957387924194336,0.2689630508422852
0.2957387924194336,0.2689630508422852
0.2977993011474609,0.2853481292724609
0.2977993011474609,0.2853481292724609
0.2888769149780273,0.2694952011108399
0.2888769149780273,0.2694952011108399
0.3060539245605469,0.2871110916137695
0.3060539245605469,0.2871110916137695
0.2888248443603516,0.2842941284179688
0.2888248443603516,0.2842941284179688
0.3024501800537109,0.2807132720947266
0.3024501800537109,0.2807132720947266
0.3038904190063477,0.2962280273437500
0.3038904190063477,0.2962280273437500
0.2944347381591797,0.2797307968139648
0.2944347381591797,0.2797307968139648
0.3108369827270508,0.2960157394409180
0.3108369827270508,0.2960157394409180
0.2929510116577148,0.2924749374389649
0.3121438980102539,0.2924749374389649
0.3060688018798828,0.2885707855224609
0.3060688018798828,0.2885707855224609
0.3068441390991211,0.3027957916259765
0.3068441390991211,0.3027957916259765
0.2973730087280274,0.2859609603881836
0.2973730087280274,0.2859609603881836
0.3131155014038086,0.3015272140502930
0.3131155014038086,0.3015272140502930
0.2954063415527344,0.2972694396972656
0.2954063415527344,0.2972694396972656
0.3082557678222656,0.2929790496826172
0.3082557678222656,0.2929790496826172
0.3087329864501953,0.3063869476318359
0.3087329864501953,0.3063869476318359
0.2986787796020507,0.2891687393188476
0.2986787796020507,0.2891687393188476
0.3144441604614258,0.3046228408813477
0.3144441604614258,0.3046228408813477
0.2969244003295898,0.3003038406372070
0.2969244003295898,0.3003038406372070
0.3095775604248047,0.2956466674804688
0.2963710784912109,0.2956466674804688
0.3102275848388672,0.3095672607421875
0.3102275848388672,0.3095672607421875
0.3004440307617187,0.2923645019531250
0.3004440307617187,0.2923645019531250
0.3164508819580078,0.3075096130371094
0.3164508819580078,0.3075096130371094
0.2984270095825195,0.3029485702514648
0.2984270095825195,0.3029485702514648
0.3108930587768555,0.2979658126831055
0.3108930587768555,0.2979658126831055
0.3111539840698242,0.3108180999755859
0.3111539840698242,0.3108180999755859
0.3005361557006836,0.2916812896728516
0.3005361557006836,0.2916812896728516
0.3144475936889649,0.3023443222045898
0.3144475936889649,0.3023443222045898
0.2934637069702148,0.2915468215942383
0.2934637069702148,0.2915468215942383
0.3023180007934570,0.2790830612182617
0.3023180007934570,0.2790830612182617
0.2991279602050781,0.2855964660644531
0.2991279602050781,0.2855964660644531
0.2856771469116211,0.2619815826416015
0.2856771469116211,0.2619815826416015
0.2991874694824219,0.2729181289672851
0.2991874694824219,0.2729181289672851
0.2793474197387695,0.2657604217529297
0.2793474197387695,0.2657604217529297
0.2905815124511719,0.2585752487182617
0.2905815124511719,0.2585752487182617
0.2908109664916992,0.2715894699096680
0.2908109664916992,0.2715894699096680
0.2802532196044922,0.2535461425781250
0.2802532196044922,0.2535461425781250
0.2964385986328125,0.2691329956054687
0.2964385986328125,0.2691329956054687
0.2783048629760742,0.2651075363159179
0.2783048629760742,0.2651075363159179
0.2912046432495117,0.2602649688720703
0.2912046432495117,0.2602649688720703
0.2925184249877930,0.2752143859863281
0.2925184249877930,0.2752143859863281
0.2823160171508789,0.2582416534423828
0.2823160171508789,0.2582416534423828
0.2993122100830078,0.2748086929321289
0.2993122100830078,0.2748086929321289
0.2817438125610351,0.2718830108642578
0.2817438125610351,0.2718830108642578
0.2956787109375000,0.2681081771850586
0.2956787109375000,0.2681081771850586
0.2971944808959961,0.2834976196289062
0.2971944808959961,0.2834976196289062
0.2872959136962890,0.2667675018310547
0.2914787292480469,0.2667675018310547
0.3037622451782226,0.2829168319702148
0.2920034408569336,0.2829168319702148
0.2857515335083008,0.2788158416748047
0.3047790527343750,0.2788158416748047
0.2984699249267578,0.2744155883789062
0.2853143692016601,0.2744155883789062
0.2992761611938476,0.2888757705688477
0.3055051803588867,0.2888757705688477
0.2894966125488281,0.2718904495239258
0.2894966125488281,0.2718904495239258
0.3055727005004883,0.2875608444213867
0.3055727005004883,0.2875608444213867
0.2872713088989258,0.2831743240356445
0.2872713088989258,0.2831743240356445
0.3000171661376953,0.2781103134155273
0.3000171661376953,0.2781103134155273
0.3007289886474609,0.2919656753540039
0.3007289886474609,0.2919656753540039
0.2904619216918945,0.2741889953613281
0.2904619216918945,0.2741889953613281
0.3064973831176758,0.2895566940307617
0.3064973831176758,0.2895566940307617
0.2884901046752930,0.2851810455322266
0.3077425003051757,0.2851810455322266
0.3010139465332031,0.2801416397094726
0.3010139465332031,0.2801416397094726
0.3019128799438476,0.2942768096923828
0.3019128799438476,0.2942768096923828
0.2916641235351562,0.2768411636352539
0.2916641235351562,0.2768411636352539
0.3083215713500976,0.2928852081298828
0.3083215713500976,0.2928852081298828
0.2904041290283203,0.2892259597778320
0.2904041290283203,0.2892259597778320
0.2916830062866211,0.2844795227050781
0.2916830062866211,0.2827898025512695
0.3042737960815430,0.2985528945922851
0.3098579406738281,0.2985528945922851
0.2936834335327148,0.2800512313842773
0.2936834335327148,0.2800512313842773
0.3087873458862305,0.2928268432617188
0.3087873458862305,0.2928268432617188
0.2884225845336914,0.2839324951171875
0.2884225845336914,0.2839324951171875
0.2975172042846679,0.2718709945678711
0.2975172042846679,0.2718709945678711
0.2945056915283203,0.2782075881958008
0.2945056915283203,0.2782075881958008
0.2804906845092773,0.2541154861450195
0.2804906845092773,0.2541154861450195
0.2940273284912109,0.2647436141967773
0.2940273284912109,0.2647436141967773
0.2737987518310547,0.2575080871582031
0.2737987518310547,0.2575080871582031
0.2850866317749023,0.2498891830444336
0.2850866317749023,0.2498891830444336
0.2854064941406250,0.2629554748535156
0.2854064941406250,0.2629554748535156
0.2743246078491211,0.2445035934448242
0.2743246078491211,0.2445035934448242
0.2903795242309570,0.2595182418823242
0.2903795242309570,0.2595182418823242
0.2721324920654297,0.2554464340209961
0.2721324920654297,0.2554464340209961
0.2846197128295898,0.2501266479492187
0.2846197128295898,0.2501266479492187
0.2858774185180664,0.2644203186035156
0.2914421081542969,0.2644203186035156
0.2752052307128906,0.2470584869384765
0.2752052307128906,0.2470584869384765
0.2927089691162109,0.2639419555664063
0.2927089691162109,0.2639419555664063
0.2750387191772461,0.2612783432006836
0.2750387191772461,0.2612783432006836
0.2885210037231445,0.2573987960815430
0.2885210037231445,0.2573987960815430
0.2908018112182617,0.2736024856567383
0.2908018112182617,0.2736024856567383
0.2811950683593750,0.2576053619384766
0.2811950683593750,0.2576053619384766
0.2986003875732422,0.2744556427001953
0.2986003875732422,0.2744556427001953
0.2807682037353516,0.2715414047241211
0.2807682037353516,0.2715414047241211
0.2939054489135742,0.2669025421142578
0.2939054489135742,0.2669025421142578
0.2954973220825195,0.2820098876953125
0.2954973220825195,0.2820098876953125
0.2849023818969726,0.2645164489746094
0.2849023818969726,0.2645164489746094
0.3015546798706055,0.2803064346313476
0.3015546798706055,0.2803064346313476
0.2831222534179688,0.2767982482910156
0.2831222534179688,0.2767982482910156
0.2959007263183593,0.2713342666625976
0.2826169967651367,0.2713342666625976
0.2970560073852539,0.2855701446533203
0.2970560073852539,0.2855701446533203
0.2859809875488281,0.2675903320312500
0.2859809875488281,0.2675903320312500
0.3024038314819336,0.2832046508789062
0.3024038314819336,0.2832046508789062
0.2841625213623047,0.2794824600219726
0.2841625213623047,0.2794824600219726
0.2971366882324218,0.2745700836181640
0.2971366882324218,0.2745700836181640
0.2986490249633789,0.2892190933227539
0.2986490249633789,0.2892190933227539
0.2880140304565429,0.2715974807739258
0.2880140304565429,0.2715974807739258
0.3050331115722656,0.2875362396240234
0.3050331115722656,0.2875362396240234
0.2870023727416992,0.2837516784667969
0.2870023727416992,0.2837516784667969
0.2997098922729492,0.2784118652343750
0.2997098922729492,0.2784118652343750
0.3006975173950195,0.2926414489746094
0.3006975173950195,0.2926414489746094
0.2902667999267578,0.2749385833740234
0.2902667999267578,0.2749385833740234
0.3065969467163086,0.2901266098022461
0.3065969467163086,0.2901266098022461
0.2884672164916992,0.2860754013061523
0.2884672164916992,0.2860754013061523
0.3007347106933594,0.2808855056762695
0.3007347106933594,0.2808855056762695
0.3013664245605469,0.2942722320556641
0.3067794799804687,0.2942722320556641
0.2902994155883789,0.2755634307861328
0.2902994155883789,0.2755634307861328
0.3051280975341797,0.2881473541259765
0.3051280975341797,0.2881473541259765
0.2851295471191406,0.2802171707153320
0.2851295471191406,0.2802171707153320
0.2956998825073242,0.2712718963623047
0.2956998825073242,0.2712718963623047
0.2944856643676758,0.2808013916015625
0.2944856643676758,0.2808013916015625
0.2823543548583984,0.2599702835083008
0.2823543548583984,0.2599702835083008
0.2970783233642578,0.2724014282226562
0.2970783233642578,0.2724014282226562
0.2783872604370117,0.2667692184448242
0.2783872604370117,0.2667692184448242
0.2902393341064453,0.2604995727539062
0.2902393341064453,0.2604995727539062
0.2905952453613281,0.2736047744750976
0.2905952453613281,0.2736047744750976
0.2806314468383789,0.2564546585083008
0.2806314468383789,0.2564546585083008
0.2969924926757813,0.2716157913208008
0.2969924926757813,0.2716157913208008
0.2795980453491211,0.2682020187377930
0.2982828140258789,0.2682020187377930
0.2921722412109375,0.2638944625854492
0.2921722412109375,0.2638944625854492
0.2937211990356445,0.2784330368041992
0.2937211990356445,0.2784330368041992
0.2840028762817383,0.2627986907958984
0.2840028762817383,0.2627986907958984
0.3007925033569336,0.2785709381103516
0.3007925033569336,0.2785709381103516
0.2838958740234375,0.2759044647216797
0.2838958740234375,0.2759044647216797
0.2963087081909180,0.2720907211303711
0.2963087081909180,0.2720907211303711
0.2981323242187500,0.2866281509399414
0.3040580749511719,0.2866281509399414
0.2880769729614258,0.2704736709594727
0.2880769729614258,0.2704736709594727
0.3044374465942383,0.2857681274414062
0.3044374465942383,0.2857681274414062
0.2870052337646484,0.2821838378906250
0.2870052337646484,0.2821838378906250
0.2991754531860352,0.2773767471313476
0.2991754531860352,0.2773767471313476
0.3004743576049805,0.2911045074462891
0.3004743576049805,0.2911045074462891
0.2900396347045898,0.2744682312011719
0.2900396347045898,0.2744682312011719
0.3063325881958008,0.2892162322998047
0.3063325881958008,0.2892162322998047
0.2884803771972656,0.2854579925537109
0.2884803771972656,0.2854579925537109
0.3004085540771484,0.2799287796020508
0.3004085540771484,0.2799287796020508
0.3016279220581055,0.2938425064086914
0.3072103500366211,0.2938425064086914
0.2908281326293945,0.2763765335083008
0.2908281326293945,0.2763765335083008
0.3072956085205078,0.2913116455078125
0.3072956085205078,0.2913116455078125
0.2889060974121094,0.2871706008911133
0.2889060974121094,0.2871706008911133
0.3010602951049804,0.2815383911132812
0.3010602951049804,0.2815383911132812
0.3019226074218750,0.2950510025024414
0.3019226074218750,0.2950510025024414
0.2907766342163086,0.2773830413818359
0.2907766342163086,0.2773830413818359
0.3068407058715820,0.2918369293212891
0.3068407058715820,0.2918369293212891
0.2883327484130859,0.2877902984619141
0.2883327484130859,0.2877902984619141
0.3001979827880859,0.2820127487182617
0.3001979827880859,0.2820127487182617
0.3011489868164062,0.2954698562622070
0.3011489868164062,0.2954698562622070
0.2898399353027344,0.2775478363037109
0.2898399353027344,0.2775478363037109
0.3061952590942383,0.2921602249145508
0.3061952590942383,0.2921602249145508
0.2874080657958984,0.2874240875244141
0.2874080657958984,0.2874240875244141
0.2983297348022461,0.2792501449584961
0.2983297348022461,0.2792501449584961
0.2968980789184570,0.2876472473144531
0.2968980789184570,0.2876472473144531
0.2820316314697265,0.2621000289916992
0.2820316314697265,0.2621000289916992
0.2940485000610352,0.2680830001831054
0.2940485000610352,0.2680830001831054
0.2716690063476562,0.2566514968872070
0.2716690063476562,0.2566514968872070
0.2808528900146484,0.2456130981445312
0.2808528900146484,0.2456130981445312
0.2795608520507812,0.2555168151855469
0.2795608520507812,0.2555168151855469
0.2667675018310547,0.2356098175048828
0.2667675018310547,0.2356098175048828
0.2822622299194336,0.2489885330200195
0.2822622299194336,0.2489885330200195
0.2639574050903320,0.2442317962646484
0.2639574050903320,0.2442317962646484
0.2754261016845703,0.2386722564697266
0.2754261016845703,0.2386722564697266
0.2766855239868164,0.2530889511108398
0.2766855239868164,0.2530889511108398
0.2668664932250976,0.2374094009399414
0.2668664932250976,0.2374094009399414
0.2835325241088867,0.2533298492431640
0.2835325241088867,0.2533298492431640
0.2669219970703125,0.2511428833007812
0.2669219970703125,0.2511428833007812
0.2800586700439453,0.2481302261352539
0.2800586700439453,0.2481302261352539
0.2824733734130859,0.2640169143676758
0.2824733734130859,0.2640169143676758
0.2732013702392578,0.2489627838134766
0.2732013702392578,0.2489627838134766
0.2905534744262695,0.2655143737792969
0.2905534744262695,0.2655143737792969
0.2735172271728515,0.2631832122802734
0.2735172271728515,0.2631832122802734
0.2865943908691406,0.2589975357055664
0.2865943908691406,0.2589975357055664
0.2886812210083008,0.2741958618164063
0.2886812210083008,0.2741958618164063
0.2833683013916016,0.2575790405273438
0.2833683013916016,0.2735721588134766
0.2953451156616211,0.2735721588134766
0.2779289245605469,0.2707019805908203
0.2955448150634766,0.2800037384033203
0.2791803359985351,0.2649570465087890
0.2791803359985351,0.2657741546630859
0.2815481185913086,0.2612331390380859
0.2815481185913086,0.2635293960571289
0.2815481185913086,0.2635293960571289
0.2984687805175781,0.2788158416748047
0.2984687805175781,0.2788158416748047
0.2805902481079102,0.2755914688110351
0.2805902481079102,0.2755914688110351
0.2928113937377930,0.2700765609741211
0.2928113937377930,0.2700765609741211
0.2943849563598633,0.2844806671142578
0.2943849563598633,0.2844806671142578
0.2831674575805664,0.2668287277221680
0.2831674575805664,0.2668287277221680
0.2995845794677734,0.2814840316772461
0.2995845794677734,0.2814840316772461
0.2813392639160156,0.2776926040649414
0.2813392639160156,0.2776926040649414
0.2930047988891601,0.2717210769653320
0.2930047988891601,0.2717210769653320
0.2942802429199219,0.2855398178100586
0.2942802429199219,0.2855398178100586
0.2827239990234375,0.2673992156982422
0.2827239990234375,0.2673992156982422
0.2988864898681641,0.2815795898437500
0.2988864898681641,0.2815795898437500
0.2804821014404297,0.2778362274169922
0.2995010375976562,0.2778362274169922
0.2925127029418945,0.2717210769653320
0.2925127029418945,0.2717210769653320
0.2936439514160156,0.2853292465209961
0.2936439514160156,0.2853292465209961
0.2822645187377930,0.2677974700927734
0.2822645187377930,0.2677974700927734
0.2988636016845703,0.2823337554931640
0.2988636016845703,0.2823337554931640
0.2807859420776367,0.2785142898559570
0.2807859420776367,0.2785142898559570
0.2925212860107422,0.2723224639892578
0.2925212860107422,0.2723224639892578
0.2942493438720703,0.2863420486450195
0.2942493438720703,0.2863420486450195
0.2825357437133789,0.2681528091430664
0.2825357437133789,0.2681528091430664
0.2988990783691406,0.2822719573974609
0.2988990783691406,0.2822719573974609
0.2802085876464844,0.2777715682983398
0.2802085876464844,0.2777715682983398
0.2915662765502929,0.2709165573120117
0.2915662765502929,0.2709165573120117
0.2928314208984375,0.2842386245727539
0.2928314208984375,0.2842386245727539
0.2807132720947266,0.2654829025268555
0.2807132720947266,0.2654829025268555
0.2969793319702148,0.2795814514160156
0.2969793319702148,0.2795814514160156
0.2784868240356445,0.2757276535034179
0.2784868240356445,0.2757276535034179
0.2898416519165039,0.2689590454101562
0.2898416519165039,0.2689590454101562
0.2915107727050781,0.2828676223754883
0.2915107727050781,0.2828676223754883
0.2795064926147461,0.2646131515502930
0.2795064926147461,0.2646131515502930
0.2963779449462891,0.2793336868286133
0.2963779449462891,0.2793336868286133
0.2780719757080078,0.2761207580566406
0.2780719757080078,0.2761207580566406
0.2930065155029297,0.2869285583496093
0.2970857620239258,0.2762123107910156
0.2809913635253906,0.2762123107910156
0.2875848770141601,0.2842580795288086
0.3003473281860352,0.2842580795288086
0.2871070861816406,0.2702619552612305
0.2798475265502929,0.2702619552612305
0.2992372512817383,0.2876243591308594
0.2936250686645508,0.2876243591308594
0.2822101593017578,0.2748315811157226
0.2969673156738281,0.2748315811157226
0.2997779846191406,0.2804620742797851
0.2836498260498047,0.2804620742797851
0.2901140213012695,0.2884826660156250
0.3030515670776367,0.2884826660156250
0.2899806976318359,0.2748178482055664
0.2826942443847656,0.2748178482055664
0.3014591217041016,0.2918392181396484
0.2961685180664063,0.2918392181396484
0.2847427368164062,0.2793828964233399
0.2994386672973633,0.2793828964233399
0.3024198532104492,0.2851736068725586
0.2864233016967773,0.2851736068725586
0.2932445526123047,0.2934974670410156
0.3061460494995117,0.2934974670410156
0.2930007934570312,0.2797187805175781
0.2859123229980469,0.2797187805175781
0.3051544189453125,0.2976373672485351
0.2998014450073242,0.2976373672485351
0.2883075714111328,0.2847719192504883
0.3032947540283203,0.2847719192504883
0.3064258575439453,0.2905941009521484
0.2898485183715820,0.2905941009521484
0.2964797973632812,0.2985477447509766
0.3095123291015625,0.2985477447509766
0.2961204528808594,0.2845464706420898
0.2888626098632812,0.2845464706420898
0.3080829620361328,0.3019992828369141
0.3026910781860351,0.3019992828369141
0.2914598464965820,0.2890794754028320
0.3060007095336914,0.2890794754028320
0.3086139678955078,0.2941148757934570
0.2923587799072265,0.2941148757934570
0.2987342834472656,0.3015089035034180
0.3112604141235352,0.3015089035034180
0.2977500915527344,0.2865663528442383
0.2899806976318359,0.2865663528442383
0.3084669113159180,0.3015884399414062
0.3021434783935547,0.3015884399414062
0.2896179199218750,0.2845619201660156
0.3027265548706055,0.2845619201660156
0.3038721084594727,0.2835342407226563
0.2857400894165039,0.2835342407226563
0.2897357940673828,0.2820653915405273
0.2997459411621093,0.2820653915405273
0.2840520858764649,0.2577249526977539
0.2737346649169922,0.2577249526977539
0.2902399063110351,0.2660087585449218
0.2827875137329102,0.2660087585449218
0.2695684432983398,0.2468645095825195
0.2826925277709961,0.2468645095825195
0.2843868255615234,0.2477754592895508
0.2671669006347656,0.2477754592895508
0.2729713439941406,0.2529235839843750
0.2849630355834961,0.2529235839843750
0.2712821960449219,0.2372961044311523
0.2635940551757812,0.2372961044311523
0.2823331832885742,0.2538911819458008
0.2769985198974609,0.2538911819458008
0.2653232574462890,0.2409416198730469
0.2799688339233398,0.2409416198730469
0.2828315734863281,0.2452611923217773
0.2665288925170898,0.2452611923217773
0.2730331420898438,0.2538934707641601
0.2857990264892578,0.2538934707641601
0.2727579116821289,0.2407459259033203
0.2657323837280273,0.2407459259033203
0.2850042343139648,0.2588579177856445
0.2799087524414062,0.2588579177856445
0.2690385818481445,0.2473794937133789
0.2838500976562500,0.2473794937133789
0.2868186950683594,0.2534391403198242
0.2709537506103515,0.2534391403198242
0.2779357910156250,0.2628164291381836
0.2909620285034180,0.2628164291381836
0.2781703948974609,0.2502656936645508
0.2714527130126953,0.2502656936645508
0.2909042358398438,0.2689928054809570
0.2856250762939453,0.2689928054809570
0.2744785308837890,0.2574703216552734
0.2896156311035156,0.2574703216552734
0.2922838211059570,0.2634458541870117
0.2763936996459961,0.2634458541870117
0.2831480026245117,0.2719940185546875
0.2955339431762695,0.2719940185546875
0.2827411651611328,0.2582296371459961
0.2756034851074219,0.2582296371459961
0.2940038681030273,0.2747772216796875
0.2883470535278320,0.2747772216796875
0.2769195556640625,0.2621641159057617
0.2915885925292969,0.2621641159057617
0.2938219070434570,0.2662548065185547
0.2774059295654297,0.2662548065185547
0.2838209152221680,0.2729804992675781
0.2955717086791992,0.2729804992675781
0.2820407867431641,0.2576122283935547
0.2747291564941406,0.2576122283935547
0.2934408187866211,0.2741071701049805
0.2875288009643555,0.2741071701049805
0.2757934570312500,0.2606912612915039
0.2905437469482422,0.2606912612915039
0.2929887771606445,0.2648757934570312
0.2763622283935547,0.2648757934570312
0.2828973770141601,0.2718166351318359
0.2950355529785156,0.2718166351318359
0.2817775726318359,0.2569908142089843
0.2746719360351562,0.2569908142089843
0.2932382583618164,0.2733644485473632
0.2874298095703125,0.2733644485473632
0.2762002944946289,0.2606197357177734
0.2906066894531250,0.2606197357177734
0.2927055358886719,0.2647562026977539
0.2764039993286133,0.2647562026977539
0.2825551986694336,0.2715396881103516
0.2944639205932617,0.2715396881103516
0.2810892105102539,0.2563859939575195
0.2736677169799804,0.2563859939575195
0.2918689727783203,0.2707838058471679
0.2851467132568359,0.2707838058471679
0.2723522186279297,0.2530420303344726
0.2854110717773438,0.2530420303344726
0.2862590789794922,0.2517911911010742
0.2677717208862305,0.2517911911010742
0.2725187301635742,0.2531696319580078
0.2837419509887695,0.2531696319580078
0.2690380096435547,0.2339401245117188
0.2605224609375000,0.2339401245117188
0.2788187026977539,0.2481222152709961
0.2723739624023437,0.2481222152709961
0.2601745605468750,0.2330926895141602
0.2747880935668945,0.2330926895141602
0.2769767761230469,0.2370191574096679
0.2602134704589844,0.2370191574096679
0.2668087005615234,0.2440446853637695
0.2792049407958984,0.2440446853637695
0.2659309387207031,0.2295799255371094
0.2587228775024414,0.2295799255371094
0.2775054931640625,0.2468999862670898
0.2720546722412109,0.2468999862670898
0.2608074188232422,0.2344917297363281
0.2756652832031250,0.2344917297363281
0.2785417556762695,0.2401010513305664
0.2624622344970703,0.2401010513305664
0.2690597534179687,0.2483602523803711
0.2819091796875000,0.2483602523803711
0.2690614700317382,0.2357803344726562
0.2623609542846679,0.2357803344726562
0.2813856124877930,0.2539896011352539
0.2763553619384765,0.2539896011352539
0.2655767440795898,0.2428419113159180
0.2804689407348633,0.2428419113159180
0.2834163665771484,0.2492889404296875
0.2677602767944336,0.2492889404296875
0.2747251510620117,0.2586175918579102
0.2877376556396484,0.2586175918579102
0.2751308441162109,0.2466070175170898
0.2684720993041992,0.2466070175170898
