REDsignal,IRsignal
0.5211874008178711,0.6493846893310546
0.5278650283813476,0.6529483795166016
0.5278650283813476,0.6529483795166016
0.5213253021240234,0.6480440139770508
0.5213253021240234,0.6480440139770508
0.5271366119384765,0.6496490478515625
0.5271366119384765,0.6496490478515625
0.5242074966430664,0.6539091110229492
0.5242074966430664,0.6539091110229492
0.5241308212280273,0.6474346160888672
0.5241308212280273,0.6474346160888672
0.5282947540283203,0.6530416488647460
0.5282947540283203,0.6530416488647460
0.5208698272705078,0.6465614318847656
0.5208698272705078,0.6465614318847656
0.5273305892944335,0.6514417648315429
0.5273305892944335,0.6514417648315429
0.5242074966430664,0.6522972106933593
0.5242074966430664,0.6522972106933593
0.5243070602416992,0.6474912643432617
0.5243070602416992,0.6474912643432617
0.5277637481689453,0.6529804229736328
0.5277637481689453,0.6529804229736328
0.5213087081909179,0.6504329681396485
0.5213087081909179,0.6504329681396485
0.5277626037597656,0.6510091781616211
0.5277626037597656,0.6510091781616211
0.5253936767578125,0.6538925170898438
0.5253936767578125,0.6538925170898438
0.5245719909667969,0.6477756500244141
0.5245719909667969,0.6477756500244141
0.5287771224975586,0.6569721221923828
0.5287771224975586,0.6569721221923828
0.5221143722534179,0.6509222030639649
0.5221143722534179,0.6509222030639649
0.5286689758300781,0.6528511047363281
0.5286689758300781,0.6528511047363281
0.5254760742187500,0.6552892684936523
0.5254760742187500,0.6552892684936523
0.5253599166870117,0.6522085189819335
0.5253599166870117,0.6522085189819335
0.5291593551635742,0.6564491271972656
0.5291593551635742,0.6564491271972656
0.5228925704956054,0.6517089843750000
0.5228925704956054,0.6517089843750000
0.5241571426391601,0.6473751068115234
0.5241571426391601,0.6494722366333008
0.5297864913940430,0.6554449081420898
0.5251716613769531,0.6554449081420898
0.5299455642700195,0.6546283721923828
0.5299455642700195,0.6546283721923828
0.5271526336669922,0.6477882385253906
0.5271526336669922,0.6477882385253906
0.5282135009765625,0.6576742172241211
0.5282135009765625,0.6576742172241211
0.5246023178100586,0.6512729644775390
0.5246023178100586,0.6512729644775390
0.5368274688720703,0.6565624237060547
0.5368274688720703,0.6565624237060547
0.5238000869750976,0.6511550903320312
0.5238000869750976,0.6511550903320312
0.5276481628417968,0.6539857864379882
0.5276481628417968,0.6539857864379882
0.5290002822875977,0.6595338821411133
0.5290002822875977,0.6595338821411133
0.5317823410034179,0.6524499893188477
0.5317823410034179,0.6524499893188477
0.5308639526367187,0.6537609100341797
0.5308639526367187,0.6537609100341797
0.5246709823608399,0.6581943511962890
0.5246709823608399,0.6581943511962890
0.5285711288452148,0.6568616867065430
0.5285711288452148,0.6568616867065430
0.5363891601562499,0.6615617752075195
0.5363891601562499,0.6615617752075195
0.5259372711181640,0.6497411727905273
0.5259372711181640,0.6497411727905273
0.5315179824829102,0.6605518341064452
0.5315179824829102,0.6605518341064452
0.5255710601806640,0.6603469848632812
0.5255710601806640,0.6603469848632812
0.5357408523559570,0.6582464218139649
0.5357408523559570,0.6582464218139649
0.5305320739746093,0.6587779998779296
0.5305320739746093,0.6587779998779296
0.5267498016357421,0.6564491271972656
0.5267498016357421,0.6564491271972656
0.5324701309204102,0.6632698059082031
0.5324701309204102,0.6632698059082031
0.5329118728637695,0.6622529983520508
0.5329118728637695,0.6622529983520508
0.5298963546752929,0.6552080154418946
0.5298963546752929,0.6552080154418946
0.5311586380004882,0.6653148651123046
0.5311586380004882,0.6653148651123046
0.5274570465087890,0.6584054946899414
0.5274570465087890,0.6584054946899414
0.5396038055419922,0.6642539978027343
0.5396038055419922,0.6642539978027343
0.5268796920776367,0.6591081619262695
0.5268796920776367,0.6591081619262695
0.5304502487182617,0.6617362976074218
0.5253456115722656,0.6617362976074218
0.5320610046386719,0.6679046630859374
0.5320610046386719,0.6679046630859374
0.5347778320312500,0.6601078033447265
0.5347778320312500,0.6601078033447265
0.5335138320922851,0.6612041473388671
0.5335138320922851,0.6612041473388671
0.5277168273925781,0.6656324386596679
0.5277168273925781,0.6656324386596679
0.5312559127807617,0.6636445999145507
0.5312559127807617,0.6636445999145507
0.5393926620483398,0.6692081451416015
0.5393926620483398,0.6692081451416015
0.5286512374877930,0.6571363449096680
0.5286512374877930,0.6571363449096680
0.5342090606689452,0.6680294036865234
0.5342090606689452,0.6680294036865234
0.5285242080688476,0.6684934616088867
0.5285242080688476,0.6684934616088867
0.5386356353759766,0.6655271530151367
0.5386356353759766,0.6655271530151367
0.5335178375244141,0.6664575576782227
0.5335178375244141,0.6664575576782227
0.5296382904052734,0.6640171051025391
0.5296382904052734,0.6640171051025391
0.5351446151733398,0.6702695846557617
0.5351446151733398,0.6702695846557617
0.5359840393066406,0.6699920654296875
0.5359840393066406,0.6699920654296875
0.5325645446777344,0.6627902984619141
0.5325645446777344,0.6627902984619141
0.5341449737548828,0.6732587814331055
0.5341449737548828,0.6732587814331055
0.5304908752441406,0.6668535232543945
0.5304908752441406,0.6668535232543945
0.5425506591796875,0.6722242355346679
0.5425506591796875,0.6722242355346679
0.5300708770751953,0.6670589447021484
0.5300708770751953,0.6670589447021484
0.5332111358642578,0.6693626403808594
0.5332111358642578,0.6693626403808594
0.5349964141845703,0.6751785278320312
0.5349964141845703,0.6751785278320312
0.5377475738525390,0.6678199768066406
0.5377475738525390,0.6678199768066406
0.5362993240356445,0.6688001632690429
0.5362993240356445,0.6688001632690429
0.5306739807128906,0.6734327316284180
0.5306739807128906,0.6734327316284180
0.5339143753051757,0.6714769363403320
0.5339143753051757,0.6714769363403320
0.5421890258789063,0.6765890121459961
0.5421890258789063,0.6765890121459961
0.5315031051635742,0.6644691467285156
0.5315031051635742,0.6644691467285156
0.5368062973022460,0.6750320434570313
0.5368062973022460,0.6750320434570313
0.5314716339111328,0.6751688003540038
0.5314716339111328,0.6751688003540038
0.5411796569824219,0.6725721359252930
0.5411796569824219,0.6725721359252930
0.5361408233642578,0.6735511779785156
0.5361408233642578,0.6735511779785156
0.5321851730346679,0.6712434768676757
0.5321851730346679,0.6712434768676757
0.5377853393554687,0.6779411315917968
0.5377853393554687,0.6779411315917968
0.5390413284301757,0.6775382995605469
0.5390413284301757,0.6775382995605469
0.5352933883666992,0.6697912216186523
0.5352933883666992,0.6697912216186523
0.5369104385375977,0.6800399780273437
0.5369104385375977,0.6800399780273437
0.5327133178710938,0.6720239639282226
0.5327133178710938,0.6720239639282226
0.5440481185913085,0.6756717681884765
0.5440481185913085,0.6756717681884765
0.5306842803955077,0.6677816390991210
0.5306842803955077,0.6677816390991210
0.5321313858032226,0.6660924911499023
0.5321313858032226,0.6660924911499023
0.5324907302856445,0.6687034606933594
0.5324907302856445,0.6687034606933594
0.5337524414062500,0.6572879791259766
0.5337524414062500,0.6572879791259766
0.5310173034667969,0.6550912857055664
0.5310173034667969,0.6550912857055664
0.5247184753417968,0.6575208663940429
0.5247184753417968,0.6575208663940429
0.5268299102783203,0.6528739929199219
0.5268299102783203,0.6528739929199219
0.5348081588745117,0.6576261520385742
0.5348081588745117,0.6576261520385742
0.5236644744873047,0.6448350906372070
0.5236644744873047,0.6448350906372070
0.5287324905395507,0.6545734405517578
0.5287324905395507,0.6545734405517578
0.5235340118408203,0.6552108764648438
0.5235340118408203,0.6552108764648438
0.5327413558959960,0.6513376235961914
0.5327413558959960,0.6513376235961914
0.5279359817504883,0.6523447036743164
0.5279359817504883,0.6523447036743164
0.5238716125488281,0.6496896743774414
0.5266096115112304,0.6496896743774414
0.5291404724121094,0.6551862716674804
0.5291404724121094,0.6551862716674804
0.5305023193359375,0.6551124572753906
0.5305023193359375,0.6551124572753906
0.5261644363403321,0.6469488143920898
0.5261644363403321,0.6469488143920898
0.5281276702880859,0.6574859619140625
0.5281276702880859,0.6574859619140625
0.5240844726562500,0.6509422302246094
0.5240844726562500,0.6509422302246094
0.5359519958496094,0.6556497573852539
0.5359519958496094,0.6556497573852539
0.5241439819335937,0.6512552261352539
0.5241439819335937,0.6512552261352539
0.5266662597656250,0.6528270721435546
0.5219181060791015,0.6528270721435546
0.5288749694824219,0.6589931488037110
0.5288749694824219,0.6589931488037110
0.5314229965209961,0.6521432876586913
0.5314229965209961,0.6521432876586913
0.5299701690673828,0.6529094696044921
0.5299701690673828,0.6529094696044921
0.5249261856079102,0.6580432891845703
0.5249261856079102,0.6580432891845703
0.5275342941284179,0.6555599212646485
0.5275342941284179,0.6555599212646485
0.5362644195556641,0.6609123229980468
0.5362644195556641,0.6609123229980468
0.5253318786621094,0.6489646911621093
0.5253318786621094,0.6489646911621093
0.5305332183837891,0.6586498260498047
0.5305332183837891,0.6586498260498047
0.5255464553833008,0.6591007232666015
0.5255464553833008,0.6591007232666015
0.5345844268798828,0.6556325912475586
0.5345844268798828,0.6556325912475586
0.5297246932983398,0.6566448211669922
0.5297246932983398,0.6566448211669922
0.5254486083984374,0.6542913436889648
0.5254486083984374,0.6542913436889648
0.5307952880859375,0.6600311279296874
0.5307952880859375,0.6600311279296874
0.5324604034423828,0.6598754882812500
0.5324604034423828,0.6598754882812500
0.5280378341674804,0.6516958236694336
0.5280378341674804,0.6516958236694336
0.5301584243774414,0.6624189376831054
0.5301584243774414,0.6624189376831054
0.5260293960571288,0.6558128356933594
0.5260293960571288,0.6558128356933594
0.5380743026733398,0.6608877182006836
0.5380743026733398,0.6608877182006836
0.5263023376464844,0.6567604064941406
0.5263023376464844,0.6567604064941406
0.5286552429199218,0.6583688735961913
0.5286552429199218,0.6583688735961913
0.5310590744018554,0.6652181625366210
0.5310590744018554,0.6652181625366210
0.5334806442260742,0.6577920913696289
0.5334806442260742,0.6577920913696289
0.5319683074951171,0.6581480026245117
0.5319683074951171,0.6581480026245117
0.5271898269653320,0.6636686325073242
0.5271898269653320,0.6636686325073242
0.5295650482177734,0.6606422424316406
0.5295650482177734,0.6606422424316406
0.5385698318481446,0.6666698455810547
0.5385698318481446,0.6666698455810547
0.5273969650268554,0.6552331924438476
0.5273969650268554,0.6552331924438476
0.5327911376953125,0.6648382186889649
0.5327911376953125,0.6648382186889649
0.5280178070068359,0.6664134979248046
0.5280178070068359,0.6664134979248046
0.5370351791381835,0.6624727249145508
0.5370351791381835,0.6624727249145508
0.5324581146240234,0.6636983871459960
0.5324581146240234,0.6636983871459960
0.5281219482421875,0.6618261337280273
0.5281219482421875,0.6618261337280273
0.5335905075073242,0.6668254852294921
0.5335905075073242,0.6668254852294921
0.5355091094970703,0.6676122665405273
0.5355091094970703,0.6676122665405273
0.5308004379272461,0.6594663619995117
0.5308004379272461,0.6594663619995117
0.5330823898315430,0.6702157974243164
0.5330823898315430,0.6702157974243164
0.5288314819335938,0.6643753051757812
0.5288314819335938,0.6643753051757812
0.5410503387451172,0.6684814453125000
0.5410503387451172,0.6684814453125000
0.5293848037719726,0.6646596908569335
0.5293848037719726,0.6646596908569335
0.5313926696777344,0.6658733367919921
0.5313926696777344,0.6658733367919921
0.5339401245117187,0.6721418380737304
0.5332077026367187,0.6721418380737304
0.5361190795898437,0.6656032562255859
0.5361190795898437,0.6656032562255859
0.5347360610961914,0.6654407501220703
0.5347360610961914,0.6654407501220703
0.5301029205322265,0.6712686538696289
0.5301029205322265,0.6712686538696289
0.5322887420654296,0.6685255050659179
0.5322887420654296,0.6685255050659179
0.5414749145507812,0.6740192413330078
0.5414749145507812,0.6740192413330078
0.5299873352050781,0.6626020431518554
0.5299873352050781,0.6626020431518554
0.5354753494262695,0.6720113754272461
0.5354753494262695,0.6720113754272461
0.5309011459350585,0.6733932495117188
0.5309011459350585,0.6733932495117188
0.5397903442382812,0.6699337005615235
0.5397903442382812,0.6699337005615235
0.5353769302368164,0.6711393356323242
0.5353769302368164,0.6711393356323242
0.5307432174682617,0.6695577621459960
0.5307432174682617,0.6695577621459960
0.5362964630126953,0.6747482299804687
0.5362964630126953,0.6747482299804687
0.5385698318481446,0.6752569198608398
0.5385698318481446,0.6752569198608398
0.5335447311401367,0.6670085906982421
0.5335447311401367,0.6670085906982421
0.5360790252685547,0.6776613235473633
0.5360790252685547,0.6776613235473633
0.5314504623413085,0.6715295791625976
0.5314504623413085,0.6715295791625976
0.5438484191894531,0.6757833480834960
0.5438484191894531,0.6757833480834960
0.5322080612182617,0.6721910476684571
0.5322080612182617,0.6721910476684571
0.5339801788330077,0.6732839584350586
0.5339801788330077,0.6732839584350586
0.5367153167724609,0.6800056457519531
0.5367153167724609,0.6800056457519531
0.5353357315063476,0.6794300079345703
0.5376302719116210,0.6794300079345703
0.5328626632690430,0.6714162826538086
0.5328626632690430,0.6714162826538086
0.5379261016845703,0.6810464859008789
0.5379261016845703,0.6810464859008789
0.5307609558105468,0.6768487930297852
0.5307609558105468,0.6768487930297852
0.5367948532104492,0.6769786834716797
0.5367948532104492,0.6769786834716797
0.5354753494262695,0.6808959960937500
0.5354753494262695,0.6808959960937500
0.5338394165039062,0.6764951705932617
0.5338394165039062,0.6764951705932617
0.5386493682861327,0.6815151214599610
0.5386493682861327,0.6815151214599610
0.5319305419921875,0.6790792465209960
0.5319305419921875,0.6790792465209960
0.5370111465454102,0.6775234222412109
0.5370111465454102,0.6775234222412109
0.5364555358886719,0.6844654083251953
0.5364555358886719,0.6844654083251953
0.5341918945312499,0.6756580352783202
0.5341918945312499,0.6756580352783202
0.5386682510375976,0.6804210662841796
0.5386682510375976,0.6804210662841796
0.5299518585205077,0.6750629425048827
0.5299518585205077,0.6750629425048827
0.5346616744995117,0.6732719421386718
0.5346616744995117,0.6732719421386718
0.5325359344482422,0.6722888946533203
0.5325359344482422,0.6722888946533203
0.5294225692749023,0.6621150970458984
0.5294225692749023,0.6621150970458984
0.5325325012207031,0.6639970779418946
0.5325325012207031,0.6639970779418946
0.5243471145629882,0.6621740341186523
0.5243471145629882,0.6621740341186523
0.5292377471923828,0.6586114883422851
0.5292377471923828,0.6586114883422851
0.5283290863037109,0.6615680694580078
0.5283290863037109,0.6615680694580078
0.5252883911132812,0.6539016723632812
0.5252883911132812,0.6539016723632812
0.5303277969360352,0.6615079879760742
0.5303277969360352,0.6615079879760742
0.5228879928588867,0.6572118759155273
0.5228879928588867,0.6572118759155273
0.5288898468017578,0.6566425323486328
0.5288898468017578,0.6566425323486328
0.5275817871093750,0.6594045639038085
0.5275817871093750,0.6594045639038085
0.5255567550659179,0.6555484771728516
0.5255567550659179,0.6555484771728516
0.5305023193359375,0.6601730346679687
0.5305023193359375,0.6601730346679687
0.5233062744140625,0.6577577590942383
0.5233062744140625,0.6577577590942383
0.5283857345581054,0.6568096160888671
0.5283857345581054,0.6568096160888671
0.5279834747314452,0.6626409530639649
0.5279834747314452,0.6626409530639649
0.5256208419799805,0.6543863296508788
0.5256208419799805,0.6543863296508788
0.5311094284057617,0.6606748580932617
0.5270050048828124,0.6606748580932617
0.5230751037597656,0.6568943023681640
0.5230751037597656,0.6568943023681640
0.5290752410888672,0.6595109939575196
0.5290752410888672,0.6595109939575196
0.5285871505737304,0.6625185012817383
0.5285871505737304,0.6625185012817383
0.5264688491821289,0.6560880661010742
0.5264688491821289,0.6560880661010742
0.5311786651611328,0.6622724533081055
0.5311786651611328,0.6622724533081055
0.5240083694458008,0.6619474411010742
0.5240083694458008,0.6619474411010742
0.5297887802124023,0.6600683212280273
0.5297887802124023,0.6600683212280273
0.5297447204589844,0.6643718719482422
0.5297447204589844,0.6643718719482422
0.5266119003295898,0.6561962127685547
0.5266119003295898,0.6561962127685547
0.5318916320800781,0.6653022766113281
0.5318916320800781,0.6653022766113281
0.5244129180908202,0.6613351821899414
0.5244129180908202,0.6613351821899414
0.5303941726684570,0.6607154846191406
0.5303941726684570,0.6607154846191406
0.5293218612670898,0.6646265029907227
0.5293218612670898,0.6646265029907227
0.5268877029418945,0.6597101211547851
0.5268877029418945,0.6597101211547851
0.5321468353271485,0.6643220901489257
0.5321468353271485,0.6643220901489257
0.5251247406005859,0.6622575759887696
0.5251247406005859,0.6622575759887696
0.5300731658935547,0.6600746154785156
0.5300731658935547,0.6600746154785156
0.5298454284667968,0.6675075531005860
0.5298454284667968,0.6675075531005860
0.5273712158203124,0.6592809677124023
0.5273712158203124,0.6592809677124023
0.5329410552978515,0.6655849456787110
0.5329410552978515,0.6655849456787110
0.5250480651855468,0.6634477615356446
0.5250480651855468,0.6634477615356446
0.5309709548950196,0.6647134780883789
0.5309709548950196,0.6647134780883789
0.5306081771850586,0.6678251266479492
0.5306081771850586,0.6678251266479492
0.5284011840820312,0.6612728118896484
0.5284011840820312,0.6612728118896484
0.5331876754760742,0.6661336898803710
0.5331876754760742,0.6661336898803710
0.5260036468505859,0.6673267364501952
0.5338148117065430,0.6673267364501952
0.5315494537353516,0.6651546478271484
0.5315494537353516,0.6651546478271484
0.5316684722900390,0.6697763442993164
0.5316684722900390,0.6697763442993164
0.5283748626708984,0.6629402160644531
0.5283748626708984,0.6629402160644531
0.5340934753417969,0.6709619522094726
0.5340934753417969,0.6709619522094726
0.5267847061157226,0.6678417205810546
0.5267847061157226,0.6678417205810546
0.5326612472534179,0.6670080184936523
0.5326612472534179,0.6670080184936523
0.5319070816040039,0.6701774597167969
0.5319070816040039,0.6701774597167969
0.5291015625000000,0.6664878845214843
0.5291015625000000,0.6664878845214843
0.5347269058227538,0.6710975646972656
0.5347269058227538,0.6710975646972656
0.5276281356811523,0.6693998336791992
0.5276281356811523,0.6693998336791992
0.5326583862304687,0.6683956146240234
0.5326583862304687,0.6683956146240234
0.5327104568481446,0.6747144699096680
0.5327104568481446,0.6747144699096680
0.5298500061035156,0.6666097640991211
0.5298500061035156,0.6666097640991211
0.5357540130615234,0.6726156234741211
0.5357540130615234,0.6726156234741211
0.5276550292968750,0.6695589065551758
0.5276550292968750,0.6695589065551758
0.5333621978759765,0.6715919494628906
0.5333621978759765,0.6715919494628906
0.5333278656005859,0.6748374938964844
0.5333278656005859,0.6748374938964844
0.5305807113647460,0.6682245254516601
0.5305807113647460,0.6682245254516601
0.5357231140136719,0.6740324020385742
0.5357231140136719,0.6740324020385742
0.5285242080688476,0.6741508483886719
0.5285242080688476,0.6741508483886719
0.5339532852172851,0.6718935012817383
0.5339532852172851,0.6718935012817383
0.5344345092773437,0.6766708374023437
0.5344345092773437,0.6766708374023437
0.5307352066040039,0.6685146331787110
0.5307352066040039,0.6685146331787110
0.5366392135620117,0.6775794982910156
0.5366392135620117,0.6775794982910156
0.5292840957641601,0.6746852874755859
0.5292840957641601,0.6746852874755859
0.5350564956665039,0.6737703323364258
0.5350564956665039,0.6737703323364258
0.5346164703369141,0.6782421112060547
0.5346164703369141,0.6782421112060547
0.5316164016723632,0.6734510421752929
0.5316164016723632,0.6734510421752929
0.5372915267944336,0.6779062271118164
0.5372915267944336,0.6779062271118164
0.5302894592285156,0.6764945983886719
0.5302894592285156,0.6764945983886719
0.5350135803222656,0.6739442825317382
0.5350135803222656,0.6739442825317382
0.5354043960571289,0.6815786361694336
0.5354043960571289,0.6815786361694336
0.5322263717651367,0.6734155654907227
0.5322263717651367,0.6734155654907227
0.5381481170654296,0.6793733596801758
0.5381481170654296,0.6793733596801758
0.5303358078002930,0.6776115417480468
0.5303358078002930,0.6776115417480468
0.5357797622680663,0.6783668518066406
0.5357797622680663,0.6783668518066406
0.5360280990600585,0.6816358566284180
0.5360280990600585,0.6816358566284180
0.5330863952636719,0.6749301910400390
0.5330863952636719,0.6749301910400390
0.5381961822509765,0.6793029785156249
0.5381961822509765,0.6793029785156249
0.5310413360595703,0.6810699462890625
0.5310413360595703,0.6810699462890625
0.5363496780395508,0.6784687042236328
0.5363496780395508,0.6784687042236328
0.5369224548339844,0.6833095550537109
0.5369224548339844,0.6833095550537109
0.5330572128295898,0.6765386581420898
0.5330572128295898,0.6765386581420898
0.5391763687133789,0.6842468261718749
0.5391763687133789,0.6842468261718749
0.5319648742675781,0.6815237045288086
0.5319648742675781,0.6815237045288086
0.5374420166015624,0.6802865982055664
0.5374420166015624,0.6802865982055664
0.5369407653808593,0.6833536148071289
0.5369407653808593,0.6833536148071289
0.5335350036621094,0.6786827087402344
0.5335350036621094,0.6786827087402344
0.5387643814086914,0.6813766479492187
0.5387643814086914,0.6813766479492187
0.5309274673461913,0.6774656295776367
0.5309274673461913,0.6774656295776367
0.5342130661010742,0.6725538253784179
0.5342130661010742,0.6725538253784179
0.5332677841186523,0.6754005432128906
0.5332677841186523,0.6754005432128906
0.5284721374511718,0.6638214111328125
0.5284721374511718,0.6638214111328125
0.5334308624267577,0.6666584014892578
0.5334308624267577,0.6666584014892578
0.5247167587280274,0.6616264343261719
0.5316947937011719,0.6616264343261719
0.5291873931884765,0.6614101409912109
0.5291873931884765,0.6614101409912109
0.5290609359741211,0.6635742187500000
0.5290609359741211,0.6635742187500000
0.5253999710083007,0.6558586120605469
0.5253999710083007,0.6558586120605469
0.5304525375366210,0.6609083175659179
0.5304525375366210,0.6609083175659179
0.5234012603759766,0.6610250473022461
0.5234012603759766,0.6610250473022461
0.5282135009765625,0.6579557418823242
0.5282135009765625,0.6579557418823242
0.5290060043334961,0.6625917434692382
0.5290060043334961,0.6625917434692382
0.5248140335083008,0.6540481567382812
0.5248140335083008,0.6540481567382812
0.5307992935180664,0.6625122070312500
0.5307992935180664,0.6625122070312500
0.5236021041870117,0.6596254348754883
0.5236021041870117,0.6596254348754883
0.5286529541015624,0.6580621719360351
0.5286529541015624,0.6580621719360351
0.5285076141357422,0.6623222351074218
0.5285076141357422,0.6623222351074218
0.5249759674072265,0.6570739746093750
0.5249759674072265,0.6570739746093750
0.5309028625488281,0.6612339019775391
0.5309028625488281,0.6612339019775391
0.5241577148437500,0.6602313995361327
0.5241577148437500,0.6602313995361327
0.5284080505371094,0.6573183059692382
0.5284080505371094,0.6573183059692382
0.5292325973510742,0.6652753829956054
0.5292325973510742,0.6652753829956054
0.5256351470947266,0.6571392059326172
0.5256351470947266,0.6571392059326172
0.5317897796630859,0.6630998611450195
0.5317897796630859,0.6630998611450195
0.5244569778442383,0.6618581771850586
0.5244569778442383,0.6618581771850586
0.5293430328369141,0.6621459960937500
0.5293430328369141,0.6621459960937500
0.5299003601074218,0.6654848098754883
0.5266668319702148,0.6585411071777344
0.5275686264038085,0.6585411071777344
0.5316450119018554,0.6626678466796875
0.5316450119018554,0.6626678466796875
0.5249490737915039,0.6643335342407226
0.5249490737915039,0.6643335342407226
0.5294374465942383,0.6611669540405273
0.5294374465942383,0.6611669540405273
0.5303838729858398,0.6658115386962891
0.5303838729858398,0.6658115386962891
0.5261283874511719,0.6585210800170899
0.5261283874511719,0.6585210800170899
0.5321153640747071,0.6658372879028320
0.5321153640747071,0.6658372879028320
0.5252243041992187,0.6634523391723632
0.5252243041992187,0.6634523391723632
0.5300846099853516,0.6618518829345703
0.5300846099853516,0.6618518829345703
0.5301624298095703,0.6650968551635742
0.5301624298095703,0.6650968551635742
0.5266754150390625,0.6612722396850585
0.5266754150390625,0.6612722396850585
0.5324695587158202,0.6655397415161133
0.5324695587158202,0.6655397415161133
0.5260339736938476,0.6648273468017578
0.5260339736938476,0.6648273468017578
0.5257856369018554,0.6628606796264648
0.5319820404052734,0.6628606796264648
0.5322772979736328,0.6658275604248046
0.5272630691528321,0.6658275604248046
0.5359268188476562,0.6679962158203124
0.5359268188476562,0.6679962158203124
0.5290037155151367,0.6590309143066406
0.5290037155151367,0.6590309143066406
0.5328643798828124,0.6690919876098632
0.5328643798828124,0.6690919876098632
0.5265392303466797,0.6648862838745117
0.5265392303466797,0.6648862838745117
0.5396541595458985,0.6670131683349609
0.5396541595458985,0.6670131683349609
0.5296686172485351,0.6650545120239257
0.5296686172485351,0.6650545120239257
0.5297510147094726,0.6652095794677734
0.5297510147094726,0.6652095794677734
0.5337324142456055,0.6715364456176758
0.5337324142456055,0.6715364456176758
0.5340133666992187,0.6664077758789062
0.5340133666992187,0.6664077758789062
0.5332391738891601,0.6639490127563477
0.5332391738891601,0.6639490127563477
0.5302167892456054,0.6711673736572266
0.5302167892456054,0.6711673736572266
0.5302917480468750,0.6667848587036133
0.5302917480468750,0.6667848587036133
0.5409896850585937,0.6723918914794922
0.5409896850585937,0.6723918914794922
0.5275205612182617,0.6632863998413085
0.5275205612182617,0.6632863998413085
0.5336946487426758,0.6698736190795899
0.5336946487426758,0.6698736190795899
0.5308427810668945,0.6732799530029296
0.5308427810668945,0.6732799530029296
0.5376909255981445,0.6681501388549804
0.5376909255981445,0.6681501388549804
0.5347137451171875,0.6692968368530273
0.5347137451171875,0.6692968368530273
0.5280252456665039,0.6692470550537110
0.5280252456665039,0.6692470550537110
0.5344133377075195,0.6714586257934571
0.5344133377075195,0.6714586257934571
0.5383581161499024,0.6742876052856445
0.5383581161499024,0.6742876052856445
0.5312690734863281,0.6652061462402343
0.5312690734863281,0.6652061462402343
0.5352327346801757,0.6754182815551758
0.5352327346801757,0.6754182815551758
0.5287576675415039,0.6716903686523438
0.5350622177124024,0.6716903686523438
0.5419235229492188,0.6731740951538085
0.5419235229492188,0.6731740951538085
0.5321565628051758,0.6714574813842773
0.5321565628051758,0.6714574813842773
0.5319408416748047,0.6713241577148438
0.5319408416748047,0.6713241577148438
0.5359869003295898,0.6773614883422852
0.5359869003295898,0.6773614883422852
0.5363416671752930,0.6729440689086914
0.5363416671752930,0.6729440689086914
0.5354696273803711,0.6703210830688476
0.5354696273803711,0.6703210830688476
0.5328002929687500,0.6776990890502930
0.5328002929687500,0.6776990890502930
0.5326698303222656,0.6736644744873047
0.5326698303222656,0.6736644744873047
0.5435543060302734,0.6790426254272460
0.5435543060302734,0.6790426254272460
0.5299278259277344,0.6699892044067383
0.5299278259277344,0.6699892044067383
0.5359931945800781,0.6761295318603515
0.5359931945800781,0.6761295318603515
0.5334074020385742,0.6792583465576172
0.5334074020385742,0.6792583465576172
0.5400243759155273,0.6745096206665039
0.5400243759155273,0.6745096206665039
0.5370620727539063,0.6757982254028320
0.5370620727539063,0.6757982254028320
0.5302865982055663,0.6759355545043945
0.5302865982055663,0.6759355545043945
0.5366294860839843,0.6783657073974609
0.5366294860839843,0.6783657073974609
0.5409856796264648,0.6808765411376952
0.5409856796264648,0.6808765411376952
0.5336505889892578,0.6714214324951172
0.5336505889892578,0.6714214324951172
0.5376125335693359,0.6817651748657226
0.5376125335693359,0.6817651748657226
0.5310819625854492,0.6777454376220703
0.5310819625854492,0.6777454376220703
0.5441225051879882,0.6795330047607422
0.5441225051879882,0.6795330047607422
0.5346862792968750,0.6780864715576171
0.5346862792968750,0.6780864715576171
0.5342536926269531,0.6777448654174805
0.5342536926269531,0.6777448654174805
0.5383684158325195,0.6844139099121094
0.5383684158325195,0.6844139099121094
0.5386104583740234,0.6793865203857422
0.5386104583740234,0.6793865203857422
0.5377075195312500,0.6760082244873047
0.5377075195312500,0.6760082244873047
0.5348676681518555,0.6825227737426758
0.5348676681518555,0.6825227737426758
0.5337730407714844,0.6757472991943360
0.5337730407714844,0.6757472991943360
0.5436492919921875,0.6789585113525390
0.5436492919921875,0.6789585113525390
0.5286558151245117,0.6665348052978516
0.5286558151245117,0.6665348052978516
0.5333353042602539,0.6690038681030274
0.5333353042602539,0.6690038681030274
0.5297132492065429,0.6693552017211913
0.5297132492065429,0.6693552017211913
0.5347806930541992,0.6611326217651367
0.5347806930541992,0.6611326217651367
0.5310224533081055,0.6602537155151367
0.5310224533081055,0.6602537155151367
0.5236667633056641,0.6586549758911132
0.5236667633056641,0.6586549758911132
0.5293573379516602,0.6592844009399413
0.5293573379516602,0.6592844009399413
0.5335195541381835,0.6614376068115234
0.5335195541381835,0.6614376068115234
0.5257135391235351,0.6512620925903320
0.5257135391235351,0.6512620925903320
0.5296937942504882,0.6613918304443359
0.5296937942504882,0.6613918304443359
0.5229503631591796,0.6573492050170898
0.5229503631591796,0.6573492050170898
0.5356161117553710,0.6581342697143554
0.5356161117553710,0.6581342697143554
0.5262639999389648,0.6563701629638672
0.5299146652221679,0.6563701629638672
0.5255075454711914,0.6552652359008789
0.5255075454711914,0.6552652359008789
0.5296869277954102,0.6610679626464844
0.5267543792724609,0.6610679626464844
0.5296279907226562,0.6565412521362305
0.5296148300170899,0.6565412521362305
0.5286146163940429,0.6532024383544922
0.5240507125854492,0.6532024383544922
0.5262788772583008,0.6604808807373047
0.5298500061035156,0.6604808807373047
0.5255727767944336,0.6558134078979492
0.5235671997070312,0.6558134078979492
0.5365894317626952,0.6612825393676758
0.5365894317626952,0.6612825393676758
0.5229406356811523,0.6526931762695313
0.5229406356811523,0.6526931762695313
0.5289379119873047,0.6585765838623047
0.5289379119873047,0.6585765838623047
0.5269929885864257,0.6621568679809570
0.5269929885864257,0.6621568679809570
0.5331481933593750,0.6571449279785156
0.5331481933593750,0.6571449279785156
0.5304199218750000,0.6587533950805664
0.5304199218750000,0.6587533950805664
0.5236867904663086,0.6590538024902344
0.5236867904663086,0.6590538024902344
0.5298299789428711,0.6611434936523437
0.5298299789428711,0.6611434936523437
0.5345312118530273,0.6636400222778320
0.5345312118530273,0.6636400222778320
0.5266582489013671,0.6535486221313477
0.5266582489013671,0.6535486221313477
0.5307409286499023,0.6637338638305664
0.5278060913085937,0.6637338638305664
0.5239030838012695,0.6593925476074218
0.5239030838012695,0.6593925476074218
0.5366420745849609,0.6606988906860352
0.5366420745849609,0.6606988906860352
0.5276252746582031,0.6592506408691406
0.5276252746582031,0.6592506408691406
0.5266302108764648,0.6580919265747071
0.5266302108764648,0.6580919265747071
0.5308942794799805,0.6648513793945312
0.5278936386108398,0.6648513793945312
0.5310436248779297,0.6599870681762695
0.5310436248779297,0.6599870681762695
0.5299610137939453,0.6568410873413085
0.5299610137939453,0.6568410873413085
0.5279491424560546,0.6645017623901367
0.5279491424560546,0.6645017623901367
0.5272178649902344,0.6593725204467773
0.5272178649902344,0.6593725204467773
0.5383832931518554,0.6655700683593749
0.5383832931518554,0.6655700683593749
0.5245885848999023,0.6569875717163086
0.5245885848999023,0.6569875717163086
0.5304548263549804,0.6627233505249023
0.5304548263549804,0.6627233505249023
0.5285905838012696,0.6668306350708008
0.5285905838012696,0.6668306350708008
0.5344945907592773,0.6608779907226562
0.5344945907592773,0.6608779907226562
0.5319620132446289,0.6625413894653320
0.5319620132446289,0.6625413894653320
0.5251968383789062,0.6628011703491211
0.5251968383789062,0.6628011703491211
0.5311008453369140,0.6643856048583984
0.5311008453369140,0.6643856048583984
0.5360824584960937,0.6677375793457031
0.5360824584960937,0.6677375793457031
0.5280349731445312,0.6576816558837890
0.5280349731445312,0.6576816558837890
0.5323637008666992,0.6683063507080078
0.5323637008666992,0.6683063507080078
0.5257913589477539,0.6649486541748046
0.5257913589477539,0.6649486541748046
0.5384159088134766,0.6657257080078125
0.5384159088134766,0.6657257080078125
0.5297407150268555,0.6645092010498047
0.5297407150268555,0.6645092010498047
0.5286403656005859,0.6633722305297851
0.5286403656005859,0.6633722305297851
0.5330783843994140,0.6697231292724609
0.5330783843994140,0.6697231292724609
0.5331516265869141,0.6656873703002929
0.5331516265869141,0.6656873703002929
0.5318967819213867,0.6624229431152343
0.5318967819213867,0.6624229431152343
0.5300811767578125,0.6702398300170899
0.5300811767578125,0.6702398300170899
0.5290889739990234,0.6652748107910156
0.5290889739990234,0.6652748107910156
0.5403213500976562,0.6710083007812500
0.5403213500976562,0.6710083007812500
0.5266925811767578,0.6625602722167968
0.5266925811767578,0.6625602722167968
0.5323139190673828,0.6681364059448242
0.5323139190673828,0.6681364059448242
0.5306888580322265,0.6718626022338867
0.5306888580322265,0.6718626022338867
0.5365121841430663,0.6661623001098632
0.5365121841430663,0.6661623001098632
0.5338726043701172,0.6679098129272460
0.5338726043701172,0.6679098129272460
0.5270765304565429,0.6684968948364257
0.5270765304565429,0.6684968948364257
0.5329319000244140,0.6703474044799804
0.5329319000244140,0.6703474044799804
0.5381738662719726,0.6733715057373046
0.5381738662719726,0.6733715057373046
0.5300817489624023,0.6632223129272461
0.5300817489624023,0.6632223129272461
0.5344310760498047,0.6738864898681640
0.5344310760498047,0.6738864898681640
0.5278289794921874,0.6702775955200195
0.5278289794921874,0.6702775955200195
0.5404523849487305,0.6714065551757812
0.5404523849487305,0.6714065551757812
0.5318132400512695,0.6704761505126953
0.5318132400512695,0.6704761505126953
0.5305475234985352,0.6690713882446289
0.5305475234985352,0.6690713882446289
0.5350799560546875,0.6760379791259765
0.5350799560546875,0.6760379791259765
0.5353134155273437,0.6717418670654297
0.5353134155273437,0.6717418670654297
0.5338891983032227,0.6682107925415038
0.5338891983032227,0.6682107925415038
0.5322126388549805,0.6760820388793946
0.5322126388549805,0.6760820388793946
0.5311477661132812,0.6704589843750000
0.5311477661132812,0.6704589843750000
0.5426319122314452,0.6768001556396485
0.5426319122314452,0.6768001556396485
0.5287548065185547,0.6684219360351562
0.5287548065185547,0.6684219360351562
0.5343429565429687,0.6739431381225586
0.5343429565429687,0.6739431381225586
0.5328712463378906,0.6781064987182617
0.5328712463378906,0.6781064987182617
0.5385601043701171,0.6717126846313476
0.5305355072021484,0.6717126846313476
0.5359937667846679,0.6736862182617187
0.5359937667846679,0.6736862182617187
0.5293018341064453,0.6744592666625976
0.5293018341064453,0.6744592666625976
0.5350358963012695,0.6757272720336914
0.5350358963012695,0.6757272720336914
0.5407236099243163,0.6795598983764648
0.5407236099243163,0.6795598983764648
0.5322280883789062,0.6690748214721679
0.5322280883789062,0.6690748214721679
0.5366746902465820,0.6799781799316406
0.5366746902465820,0.6799781799316406
0.5299713134765625,0.6768075942993164
0.5299713134765625,0.6768075942993164
0.5424917221069335,0.6766502380371093
0.5424917221069335,0.6766502380371093
0.5335401535034180,0.6745428085327149
0.5335401535034180,0.6745428085327149
0.5313262939453125,0.6708520889282227
0.5313262939453125,0.6708520889282227
0.5349191665649414,0.6744935989379882
0.5349191665649414,0.6744935989379882
0.5338314056396484,0.6675178527832031
0.5332935333251952,0.6675178527832031
0.5258302688598633,0.6606039047241211
0.5261552810668945,0.6606039047241211
0.5284194946289062,0.6658424377441406
0.5284194946289062,0.6658424377441406
0.5261421203613281,0.6580461502075196
0.5261421203613281,0.6580461502075196
0.5367696762084960,0.6619016647338867
0.5367696762084960,0.6619016647338867
0.5223804473876953,0.6524459838867187
0.5223804473876953,0.6524459838867187
0.5274787902832031,0.6565578460693359
0.5274787902832031,0.6565578460693359
0.5258783340454102,0.6598857879638672
0.5258783340454102,0.6598857879638672
0.5312982559204101,0.6534473419189453
0.5312982559204101,0.6534473419189453
0.5287250518798828,0.6549264907836914
0.5287250518798828,0.6549264907836914
0.5218877792358398,0.6555793762207031
0.5218877792358398,0.6555793762207031
0.5274679183959960,0.6567512512207031
0.5274679183959960,0.6567512512207031
0.5329227447509766,0.6596826553344727
0.5329227447509766,0.6596826553344727
0.5241989135742188,0.6488376617431640
0.5241989135742188,0.6488376617431640
0.5286518096923828,0.6591556549072265
0.5286518096923828,0.6591556549072265
0.5217761993408203,0.6555444717407226
0.5217761993408203,0.6555444717407226
0.5342256546020507,0.6558889389038086
0.5342256546020507,0.6558889389038086
0.5258623123168945,0.6550918579101562
0.5258623123168945,0.6550918579101562
0.5242561340332031,0.6533306121826171
0.5242561340332031,0.6533306121826171
0.5290843963623046,0.6602806091308594
0.5290843963623046,0.6602806091308594
0.5291879653930663,0.6565607070922851
0.5291879653930663,0.6565607070922851
0.5276647567749023,0.6528568267822266
0.5276647567749023,0.6528568267822266
0.5265043258666992,0.6612728118896484
0.5265043258666992,0.6612728118896484
0.5250326156616211,0.6553327560424804
0.5250326156616211,0.6553327560424804
0.5365819931030273,0.6618410110473633
0.5365819931030273,0.6618410110473633
0.5228084564208985,0.6540498733520508
0.5228084564208985,0.6540498733520508
0.5282604217529296,0.6587476730346680
0.5282604217529296,0.6587476730346680
0.5270587921142578,0.6630077362060547
0.5270587921142578,0.6630077362060547
0.5324632644653320,0.6559593200683593
0.5324632644653320,0.6559593200683593
0.5297927856445312,0.6576730728149414
0.5297927856445312,0.6576730728149414
0.5228330612182617,0.6584426879882812
0.5228330612182617,0.6584426879882812
0.5282506942749023,0.6589033126831054
0.5282506942749023,0.6589033126831054
0.5341215133666992,0.6626169204711914
0.5341215133666992,0.6626169204711914
0.5254108428955078,0.6518136978149414
0.5254108428955078,0.6518136978149414
0.5299644470214844,0.6625207901000977
0.5299644470214844,0.6625207901000977
0.5231632232666016,0.6598108291625976
0.5231632232666016,0.6598108291625976
0.5355365753173827,0.6598297119140625
0.5355365753173827,0.6598297119140625
0.5274690628051758,0.6592620849609375
0.5274690628051758,0.6592620849609375
0.5257186889648438,0.6573217391967773
0.5257186889648438,0.6573217391967773
0.5305830001831054,0.6639730453491210
0.5305830001831054,0.6639730453491210
0.5305715560913086,0.6609724044799804
0.5305715560913086,0.6609724044799804
0.5290775299072266,0.6569154739379882
0.5245250701904297,0.6569154739379882
0.5280710220336914,0.6652072906494141
0.5280710220336914,0.6652072906494141
0.5263664245605468,0.6595567703247071
0.5263664245605468,0.6595567703247071
0.5380456924438476,0.6655105590820313
0.5380456924438476,0.6655105590820313
0.5240867614746093,0.6579465866088867
0.5240867614746093,0.6579465866088867
0.5295690536499024,0.6625150680541992
0.5295690536499024,0.6625150680541992
0.5286294937133789,0.6667791366577148
0.5286294937133789,0.6667791366577148
0.5338640213012695,0.6603555679321289
0.5338640213012695,0.6603555679321289
0.5314338684082031,0.6623565673828125
0.5314338684082031,0.6623565673828125
0.5244300842285156,0.6636880874633789
0.5244300842285156,0.6636880874633789
0.5301240921020508,0.6644565582275390
0.5301240921020508,0.6644565582275390
0.5360933303833008,0.6680608749389648
0.5360933303833008,0.6680608749389648
0.5272092819213867,0.6571809768676757
0.5272092819213867,0.6571809768676757
0.5319288253784179,0.6678222656250000
0.5319288253784179,0.6678222656250000
0.5249856948852539,0.6649795532226562
0.5249856948852539,0.6649795532226562
0.5375009536743164,0.6651975631713867
0.5375009536743164,0.6651975631713867
0.5294214248657226,0.6647541046142578
0.5294214248657226,0.6647541046142578
0.5277683258056640,0.6626832962036132
0.5277683258056640,0.6626832962036132
0.5323986053466797,0.6697088241577148
0.5323986053466797,0.6697088241577148
0.5324684143066406,0.6663190841674804
0.5324684143066406,0.6663190841674804
0.5308158874511718,0.6620361328125000
0.5308158874511718,0.6620361328125000
0.5299678802490234,0.6703170776367188
0.5299678802490234,0.6703170776367188
0.5281425476074219,0.6641315460205078
0.5281425476074219,0.6641315460205078
0.5398687362670899,0.6705413818359375
0.5398687362670899,0.6705413818359375
0.5258457183837890,0.6633699417114257
0.5258457183837890,0.6633699417114257
0.5312513351440430,0.6677370071411133
0.5312513351440430,0.6677370071411133
0.5306150436401367,0.6726087570190430
0.5306150436401367,0.6726087570190430
0.5357294082641602,0.6657205581665039
0.5357294082641602,0.6657205581665039
0.5334674835205078,0.6676626205444336
0.5334674835205078,0.6676626205444336
0.5263584136962890,0.6692728042602539
0.5263584136962890,0.6692728042602539
0.5320632934570312,0.6694902420043946
0.5320632934570312,0.6694902420043946
0.5382419586181640,0.6736684799194336
0.5382419586181640,0.6736684799194336
0.5292348861694336,0.6626678466796875
0.5292348861694336,0.6626678466796875
0.5337633132934571,0.6734315872192382
0.5337633132934571,0.6734315872192382
0.5268945693969727,0.6712440490722656
0.5268945693969727,0.6712440490722656
0.5394521713256836,0.6707616806030273
0.5394521713256836,0.6707616806030273
0.5315134048461914,0.6704252243041992
0.5315134048461914,0.6704252243041992
0.5296091079711914,0.6681741714477539
0.5296091079711914,0.6681741714477539
0.5343612670898438,0.6746583938598633
0.5343612670898438,0.6746583938598633
0.5344591140747070,0.6721452713012696
0.5344591140747070,0.6721452713012696
0.5327688217163086,0.6675184249877929
0.5327688217163086,0.6675184249877929
0.5320472717285156,0.6760871887207031
0.5320472717285156,0.6760871887207031
0.5301778793334960,0.6702398300170899
0.5301778793334960,0.6702398300170899
0.5419069290161133,0.6761014938354492
0.5419069290161133,0.6761014938354492
0.5277334213256836,0.6691789627075195
0.5352149963378906,0.6691789627075195
0.5332511901855469,0.6734327316284180
0.5332511901855469,0.6734327316284180
0.5327722549438476,0.6779273986816406
0.5327722549438476,0.6779273986816406
0.5378986358642578,0.6715221405029297
0.5378986358642578,0.6715221405029297
0.5355445861816406,0.6733732223510742
0.5355445861816406,0.6733732223510742
0.5283971786499023,0.6749593734741210
0.5283971786499023,0.6749593734741210
0.5336385726928711,0.6748077392578125
0.5336385726928711,0.6748077392578125
0.5396747589111328,0.6770622253417968
0.5396747589111328,0.6770622253417968
0.5296291351318360,0.6637504577636718
0.5296291351318360,0.6637504577636718
0.5331647872924804,0.6714271545410156
0.5331647872924804,0.6714271545410156
0.5250389099121093,0.6658390045166015
0.5250389099121093,0.6658390045166015
0.5363067626953125,0.6624258041381835
0.5363067626953125,0.6624258041381835
0.5275016784667969,0.6595876693725585
0.5275016784667969,0.6595876693725585
0.5244289398193359,0.6550809860229492
0.5244289398193359,0.6550809860229492
0.5285688400268554,0.6603109359741210
0.5285688400268554,0.6603109359741210
0.5279045104980469,0.6560829162597656
0.5279045104980469,0.6560829162597656
0.5260168075561523,0.6504323959350585
0.5260168075561523,0.6504323959350585
0.5251699447631836,0.6584278106689453
0.5251699447631836,0.6584278106689453
0.5229927062988281,0.6516088485717774
0.5229927062988281,0.6516088485717774
0.5347217559814453,0.6575838088989258
0.5347217559814453,0.6575838088989258
0.5204269409179687,0.6507030487060547
0.5204269409179687,0.6507030487060547
0.5257844924926758,0.6543457031250000
0.5257844924926758,0.6543457031250000
0.5252592086791992,0.6588169097900390
0.5252592086791992,0.6588169097900390
0.5299192428588867,0.6514783859252929
0.5299192428588867,0.6514783859252929
0.5275571823120117,0.6529598236083984
0.5275571823120117,0.6529598236083984
0.5202352523803710,0.6545700073242188
0.5202352523803710,0.6545700073242188
0.5257558822631836,0.6539955139160156
0.5257558822631836,0.6539955139160156
0.5321525573730469,0.6582252502441406
0.5321525573730469,0.6582252502441406
0.5227901458740234,0.6471942901611328
0.5227901458740234,0.6471942901611328
0.5276950836181641,0.6577480316162109
0.5276950836181641,0.6577480316162109
0.5207748413085938,0.6563444137573242
0.5207748413085938,0.6563444137573242
0.5332225799560547,0.6556142807006836
0.5332225799560547,0.6556142807006836
0.5258714675903320,0.6557395935058593
0.5258714675903320,0.6557395935058593
0.5235849380493164,0.6534822463989257
0.5235849380493164,0.6534822463989257
0.5286300659179687,0.6600299835205078
0.5286300659179687,0.6600299835205078
0.5283988952636719,0.6578510284423827
0.5283988952636719,0.6578510284423827
0.5268047332763671,0.6528007507324218
0.5268047332763671,0.6528007507324218
0.5262857437133789,0.6611394882202148
0.5262857437133789,0.6611394882202148
0.5239608764648437,0.6549848556518555
0.5239608764648437,0.6549848556518555
0.5358163833618164,0.6603750228881836
0.5358163833618164,0.6603750228881836
0.5215084075927734,0.6536590576171875
0.5215084075927734,0.6536590576171875
0.5268682479858399,0.6570819854736328
0.5268682479858399,0.6570819854736328
0.5264591217041016,0.6614799499511719
0.5264591217041016,0.6614799499511719
0.5309823989868164,0.6547096252441406
0.5309823989868164,0.6547096252441406
0.5289442062377929,0.6565006256103515
0.5289442062377929,0.6565006256103515
0.5216691970825195,0.6586360931396484
0.5216691970825195,0.6586360931396484
0.5272687911987305,0.6587350845336913
0.5272687911987305,0.6587350845336913
0.5339000701904296,0.6625808715820313
0.5339000701904296,0.6625808715820313
0.5244054794311523,0.6516803741455078
0.5244054794311523,0.6516803741455078
0.5293842315673828,0.6620544433593750
0.5293842315673828,0.6620544433593750
0.5223432540893554,0.6603921890258789
0.5223432540893554,0.6603921890258789
0.5347892761230468,0.6598234176635742
0.5347892761230468,0.6598234176635742
0.5274124145507812,0.6598108291625976
0.5274124145507812,0.6598108291625976
0.5248289108276367,0.6575162887573242
0.5248289108276367,0.6575162887573242
0.5300302505493164,0.6643329620361328
0.5300302505493164,0.6643329620361328
0.5298402786254882,0.6618478775024413
0.5298402786254882,0.6618478775024413
0.5282495498657226,0.6568891525268554
0.5282495498657226,0.6568891525268554
0.5278553009033203,0.6654630661010742
0.5278553009033203,0.6654630661010742
0.5254417419433594,0.6590772628784179
0.5254417419433594,0.6590772628784179
0.5376314163208008,0.6651746749877929
0.5268579483032226,0.6651746749877929
0.5231655120849609,0.6589565277099609
0.5231655120849609,0.6589565277099609
0.5286632537841797,0.6624355316162109
0.5286632537841797,0.6624355316162109
0.5284858703613281,0.6675390243530274
0.5284858703613281,0.6675390243530274
0.5328477859497071,0.6603332519531250
0.5328477859497071,0.6603332519531250
0.5309921264648437,0.6619977951049805
0.5309921264648437,0.6619977951049805
0.5237010955810547,0.6642883300781249
0.5304302215576172,0.6690227508544921
0.5291662216186523,0.6637407302856445
0.5241096496582031,0.6637407302856445
0.5359891891479492,0.6682748794555664
0.5359891891479492,0.6682748794555664
0.5262262344360351,0.6572954177856445
0.5262262344360351,0.6572954177856445
0.5314384460449219,0.6675493240356445
0.5314384460449219,0.6675493240356445
0.5242252349853516,0.6664546966552735
0.5242252349853516,0.6664546966552735
0.5366735458374023,0.6651145935058593
0.5366735458374023,0.6651145935058593
0.5294116973876953,0.6652513504028320
0.5294116973876953,0.6652513504028320
0.5265947341918945,0.6630117416381835
0.5265947341918945,0.6630117416381835
0.5320478439331054,0.6691984176635742
0.5320478439331054,0.6691984176635742
0.5318017959594726,0.6675315856933594
0.5318017959594726,0.6675315856933594
0.5301887512207031,0.6623548507690430
0.5301887512207031,0.6623548507690430
0.5300296783447266,0.6711175918579101
0.5300296783447266,0.6711175918579101
0.5272367477416992,0.6653451919555664
0.5272367477416992,0.6653451919555664
0.5397365570068359,0.6708166122436523
0.5397365570068359,0.6708166122436523
0.5253479003906250,0.6647603988647460
0.5253479003906250,0.6647603988647460
0.5306516647338867,0.6681581497192383
0.5306516647338867,0.6681581497192383
0.5307901382446288,0.6729738235473632
0.5307901382446288,0.6729738235473632
0.5348436355590820,0.6665451049804687
0.5348436355590820,0.6665451049804687
0.5331333160400390,0.6681798934936524
0.5331333160400390,0.6681798934936524
0.5259366989135742,0.6708869934082031
0.5259366989135742,0.6708869934082031
0.5313634872436523,0.6706329345703125
0.5313634872436523,0.6706329345703125
0.5384805679321288,0.6746738433837890
0.5384805679321288,0.6746738433837890
0.5283170700073242,0.6636835098266601
0.5283170700073242,0.6636835098266601
0.5336305618286132,0.6737680435180664
0.5336305618286132,0.6737680435180664
0.5264631271362304,0.6723289489746094
0.5264631271362304,0.6723289489746094
0.5389188766479492,0.6712572097778320
0.5389188766479492,0.6712572097778320
0.5316513061523437,0.6715753555297851
0.5316513061523437,0.6715753555297851
0.5286798477172852,0.6692956924438477
0.5286798477172852,0.6692956924438477
0.5342628479003906,0.6757564544677734
0.5342628479003906,0.6757564544677734
0.5341592788696289,0.6738275527954102
0.5341592788696289,0.6738275527954102
0.5321857452392578,0.6684053421020507
0.5321857452392578,0.6684053421020507
0.5322481155395508,0.6772533416748047
0.5322481155395508,0.6772533416748047
0.5292388916015625,0.6709470748901367
0.5292388916015625,0.6709470748901367
0.5420351028442383,0.6769929885864258
0.5420351028442383,0.6769929885864258
0.5275800704956054,0.6712532043457031
0.5275800704956054,0.6712532043457031
0.5329118728637695,0.6745628356933594
0.5329118728637695,0.6745628356933594
0.5331241607666015,0.6799581527709960
0.5331241607666015,0.6799581527709960
0.5370901107788085,0.6728685379028320
0.5370901107788085,0.6728685379028320
0.5352962493896484,0.6739694595336914
0.5352962493896484,0.6739694595336914
0.5277688980102538,0.6759962081909180
0.5277688980102538,0.6759962081909180
0.5326910018920898,0.6734653472900390
0.5326910018920898,0.6734653472900390
0.5390001296997070,0.6757066726684570
0.5390001296997070,0.6757066726684570
0.5273769378662109,0.6614192962646485
0.5275846481323242,0.6614192962646485
0.5316421508789062,0.6680042266845703
0.5316421508789062,0.6680042266845703
0.5232124328613281,0.6639152526855469
0.5232124328613281,0.6639152526855469
0.5341163635253906,0.6594337463378906
0.5341163635253906,0.6594337463378906
0.5262897491455077,0.6573726654052734
0.5262897491455077,0.6573726654052734
0.5222866058349609,0.6532505035400390
0.5222866058349609,0.6532505035400390
0.5274770736694335,0.6577337265014648
0.5274770736694335,0.6577337265014648
0.5269140243530274,0.6555364608764648
0.5269140243530274,0.6555364608764648
0.5248249053955077,0.6494499206542969
0.5248249053955077,0.6494499206542969
0.5248575210571289,0.6578916549682617
0.5248575210571289,0.6578916549682617
0.5214763641357422,0.6516574859619141
0.5214763641357422,0.6516574859619141
0.5340299606323242,0.6566328048706055
0.5340299606323242,0.6566328048706055
0.5196052551269531,0.6507087707519531
0.5196052551269531,0.6507087707519531
0.5246229171752930,0.6532796859741211
0.5246229171752930,0.6532796859741211
0.5248947143554688,0.6577840805053711
0.5248947143554688,0.6577840805053711
0.5283588409423828,0.6508575439453125
0.5283588409423828,0.6508575439453125
0.5269014358520507,0.6519596099853515
0.5269014358520507,0.6519596099853515
0.5195663452148437,0.6545688629150390
0.5195663452148437,0.6545688629150390
0.5246761322021484,0.6537534713745117
0.5246761322021484,0.6537534713745117
0.5319116592407226,0.6578630447387696
0.5319116592407226,0.6578630447387696
0.5214454650878906,0.6470220565795898
0.5214454650878906,0.6470220565795898
0.5272602081298828,0.6570533752441406
0.5272602081298828,0.6570533752441406
0.5201539993286133,0.6562007904052735
0.5201539993286133,0.6562007904052735
0.5323122024536132,0.6552297592163085
0.5323122024536132,0.6552297592163085
0.5256437301635742,0.6557224273681640
0.5256437301635742,0.6557224273681640
0.5222236633300781,0.6534147262573242
0.5222236633300781,0.6534147262573242
0.5281059265136718,0.6597433090209961
0.5281059265136718,0.6597433090209961
0.5278718948364257,0.6579797744750976
0.5278718948364257,0.6579797744750976
0.5257638931274414,0.6521776199340820
0.5257638931274414,0.6521776199340820
0.5260654449462890,0.6608001708984375
0.5260654449462890,0.6608001708984375
0.5225584030151367,0.6541522979736328
0.5225584030151367,0.6541522979736328
0.5352521896362304,0.6595687866210938
0.5352521896362304,0.6595687866210938
0.5209487915039063,0.6539497375488281
0.5209487915039063,0.6539497375488281
0.5257598876953125,0.6566013336181641
0.5257598876953125,0.6566013336181641
0.5262474060058594,0.6619062423706055
0.5262474060058594,0.6619062423706055
0.5298030853271484,0.6547210693359374
0.5298030853271484,0.6547210693359374
0.5284194946289062,0.6560525894165039
0.5284194946289062,0.6560525894165039
0.5213459014892577,0.6591093063354492
0.5213459014892577,0.6591093063354492
0.5262914657592773,0.6578779220581055
0.5262914657592773,0.6578779220581055
0.5337684631347656,0.6627868652343750
0.5337684631347656,0.6627868652343750
0.5232341766357421,0.6519161224365234
0.5232341766357421,0.6519161224365234
0.5289018630981445,0.6618370056152344
0.5289018630981445,0.6618370056152344
0.5220050811767578,0.6613740921020508
0.5220050811767578,0.6613740921020508
0.5337312698364257,0.6596992492675781
0.5337312698364257,0.6596992492675781
0.5273099899291992,0.6601358413696289
0.5273099899291992,0.6601358413696289
0.5236833572387695,0.6577411651611328
0.5236833572387695,0.6577411651611328
0.5297195434570312,0.6635559082031249
0.5297195434570312,0.6635559082031249
0.5297475814819336,0.6625688552856445
0.5297475814819336,0.6625688552856445
0.5273220062255859,0.6569372177124023
0.5273220062255859,0.6569372177124023
0.5279125213623047,0.6659105300903320
0.5279125213623047,0.6659105300903320
0.5243906021118164,0.6599561691284179
0.5243906021118164,0.6599561691284179
0.5371908187866211,0.6649932861328125
0.5371908187866211,0.6649932861328125
0.5230636596679688,0.6597564697265624
0.5230636596679688,0.6597564697265624
0.5277488708496093,0.6624366760253906
0.5225870132446289,0.6624366760253906
0.5285797119140625,0.6673250198364258
0.5285797119140625,0.6673250198364258
0.5320392608642578,0.6607652664184570
0.5320392608642578,0.6607652664184570
0.5306327819824218,0.6621454238891601
0.5306327819824218,0.6621454238891601
0.5235992431640625,0.6654001235961914
0.5235992431640625,0.6654001235961914
0.5282844543457031,0.6645143508911132
0.5282844543457031,0.6645143508911132
0.5361219406127929,0.6688058853149413
0.5361219406127929,0.6688058853149413
0.5253519058227539,0.6578916549682617
0.5253519058227539,0.6578916549682617
0.5311952590942383,0.6677072525024413
0.5311952590942383,0.6677072525024413
0.5244403839111328,0.6669427871704101
0.5244403839111328,0.6669427871704101
0.5359136581420898,0.6655609130859375
0.5359136581420898,0.6655609130859375
0.5296222686767578,0.6661279678344726
0.5296222686767578,0.6661279678344726
0.5259023666381836,0.6637241363525390
0.5259023666381836,0.6637241363525390
0.5317995071411132,0.6699256896972656
0.5317995071411132,0.6699256896972656
0.5321651458740234,0.6687578201293946
0.5321651458740234,0.6687578201293946
0.5294643402099609,0.6630718231201171
0.5294643402099609,0.6630718231201171
0.5302007675170898,0.6719633102416992
0.5302007675170898,0.6719633102416992
0.5266960144042968,0.6656908035278321
0.5266960144042968,0.6656908035278321
0.5395895004272461,0.6713956832885742
0.5395895004272461,0.6713956832885742
0.5257118225097656,0.6662630081176758
0.5257118225097656,0.6662630081176758
0.5300182342529297,0.6691320419311523
0.5300182342529297,0.6691320419311523
0.5310848236083984,0.6746824264526367
0.5310848236083984,0.6746824264526367
0.5345123291015624,0.6675996780395508
0.5345123291015624,0.6675996780395508
0.5331499099731445,0.6689689636230468
0.5331499099731445,0.6689689636230468
0.5263641357421874,0.6724296569824219
0.5263641357421874,0.6724296569824219
0.5307632446289062,0.6710792541503906
0.5307632446289062,0.6710792541503906
0.5388278961181641,0.6760705947875977
0.5388278961181641,0.6760705947875977
0.5279520034790038,0.6649200439453125
0.5279520034790038,0.6649200439453125
0.5336740493774413,0.6748414993286133
0.5336740493774413,0.6748414993286133
0.5271497726440429,0.6747379302978516
0.5271497726440429,0.6747379302978516
0.5384370803833007,0.6727243423461914
0.5384370803833007,0.6727243423461914
0.5322189331054688,0.6731294631958008
0.5322189331054688,0.6731294631958008
0.5283502578735352,0.6706060409545899
0.5283502578735352,0.6706060409545899
0.5342788696289062,0.6763692855834961
0.5342788696289062,0.6763692855834961
0.5348064422607421,0.6757169723510742
0.5348064422607421,0.6757169723510742
0.5316856384277343,0.6698112487792969
0.5316856384277343,0.6698112487792969
0.5327630996704101,0.6789024353027343
0.5327630996704101,0.6789024353027343
0.5290454864501953,0.6727815628051758
0.5290454864501953,0.6727815628051758
0.5419441223144531,0.6779582977294921
0.5419441223144531,0.6779582977294921
0.5282009124755859,0.6729520797729492
0.5282009124755859,0.6729520797729492
0.5323556900024414,0.6755722045898437
0.5323556900024414,0.6755722045898437
0.5334754943847656,0.6807758331298828
0.5334754943847656,0.6807758331298828
0.5369544982910156,0.6741428375244141
0.5369544982910156,0.6741428375244141
0.5355543136596680,0.6755636215209960
0.5355543136596680,0.6755636215209960
0.5289390563964843,0.6792245864868164
0.5289390563964843,0.6792245864868164
0.5330732345581054,0.6780824661254883
0.5330732345581054,0.6780824661254883
0.5412031173706054,0.6819534301757812
0.5412031173706054,0.6819534301757812
0.5296852111816406,0.6694667816162109
0.5296852111816406,0.6694667816162109
0.5346931457519531,0.6772470474243164
0.5346931457519531,0.6772470474243164
0.5271245956420898,0.6736169815063476
0.5271245956420898,0.6736169815063476
0.5368520736694335,0.6682067871093750
0.5368520736694335,0.6682067871093750
0.5292852401733398,0.6651998519897461
0.5292852401733398,0.6651998519897461
0.5241697311401367,0.6591751098632812
0.5241697311401367,0.6591751098632812
0.5289064407348633,0.6625905990600586
0.5239305496215820,0.6625905990600586
0.5277809143066406,0.6609666824340820
0.5277809143066406,0.6609666824340820
0.5277809143066406,0.6608070373535156
0.5199382781982421,0.6537969589233398
0.5261037826538085,0.6537969589233398
0.5259853363037109,0.6573646545410156
0.5259853363037109,0.6573646545410156
0.5231489181518555,0.6584020614624023
0.5231489181518555,0.6584020614624023
0.5230144500732422,0.6533266067504883
0.5230144500732422,0.6533266067504883
0.5263080596923828,0.6583900451660156
0.5263080596923828,0.6583900451660156
0.5197626113891601,0.6551301956176757
0.5197626113891601,0.6551301956176757
0.5258394241333008,0.6556411743164062
0.5258394241333008,0.6556411743164062
0.5235523223876953,0.6581457138061523
0.5235523223876953,0.6581457138061523
0.5224336624145508,0.6517101287841797
0.5224336624145508,0.6517101287841797
0.5265209197998046,0.6596397399902344
0.5265209197998046,0.6596397399902344
0.5197454452514648,0.6537975311279297
0.5197454452514648,0.6537975311279297
0.5260025024414062,0.6553207397460937
0.5260025024414062,0.6553207397460937
0.5229623794555663,0.6577863693237305
0.5229623794555663,0.6577863693237305
0.5226322174072265,0.6542821884155273
0.5226322174072265,0.6542821884155273
0.5266553878784179,0.6589290618896484
0.5266553878784179,0.6589290618896484
0.5204893112182617,0.6547348022460937
0.5204893112182617,0.6547348022460937
0.5260025024414062,0.6553384780883789
0.5260025024414062,0.6553384780883789
0.5238853454589844,0.6610685348510742
0.5238853454589844,0.6610685348510742
0.5234413146972656,0.6552835464477539
0.5234413146972656,0.6552835464477539
0.5279634475708007,0.6611915588378906
0.5279634475708007,0.6611915588378906
0.5206844329833984,0.6568599700927734
0.5206844329833984,0.6568599700927734
0.5269500732421875,0.6599201202392578
0.5269500732421875,0.6599201202392578
0.5245319366455078,0.6615011215209960
0.5245319366455078,0.6615011215209960
0.5242847442626953,0.6563632965087890
0.5242847442626953,0.6563632965087890
0.5276653289794921,0.6606622695922851
0.5276653289794921,0.6606622695922851
0.5211381912231445,0.6586812973022461
0.5211381912231445,0.6586812973022461
0.5270793914794921,0.6589977264404296
0.5270793914794921,0.6589977264404296
0.5250560760498046,0.6618564605712890
0.5250560760498046,0.6618564605712890
0.5238321304321288,0.6566356658935547
0.5238321304321288,0.6566356658935547
0.5280086517333984,0.6638076782226562
0.5280086517333984,0.6638076782226562
0.5212978363037110,0.6582830429077148
0.5212978363037110,0.6582830429077148
0.5277688980102538,0.6599653244018554
0.5277688980102538,0.6599653244018554
0.5249290466308594,0.6615926742553710
0.5249290466308594,0.6615926742553710
0.5244243621826171,0.6592735290527344
0.5244243621826171,0.6592735290527344
0.5286518096923828,0.6639896392822265
0.5286518096923828,0.6639896392822265
0.5224027633666992,0.6599224090576171
0.5224027633666992,0.6599224090576171
0.5277923583984375,0.6613586425781249
0.5277923583984375,0.6613586425781249
0.5257947921752929,0.6659420013427734
0.5257947921752929,0.6659420013427734
0.5250549316406250,0.6598211288452148
0.5250549316406250,0.6598211288452148
0.5296823501586914,0.6657943725585938
0.5296823501586914,0.6657943725585938
0.5224336624145508,0.6603418350219726
0.5224336624145508,0.6603418350219726
0.5286764144897461,0.6646053314208984
0.5286764144897461,0.6646053314208984
0.5265684127807617,0.6665731430053711
0.5265684127807617,0.6665731430053711
0.5261095046997070,0.6614479064941406
0.5261095046997070,0.6614479064941406
0.5297115325927734,0.6672391891479492
0.5297115325927734,0.6672391891479492
0.5232324600219727,0.6645486831665038
0.5232324600219727,0.6645486831665038
0.5291839599609375,0.6650178909301757
0.5291839599609375,0.6650178909301757
0.5275142669677734,0.6680889129638672
0.5260826110839844,0.6615858078002930
0.5260826110839844,0.6615858078002930
0.5305074691772461,0.6701963424682617
0.5305074691772461,0.6701963424682617
0.5238023757934570,0.6649532318115234
0.5238023757934570,0.6649532318115234
0.5300228118896484,0.6663694381713867
0.5300228118896484,0.6663694381713867
0.5274353027343750,0.6693391799926758
0.5274353027343750,0.6693391799926758
0.5269020080566406,0.6656324386596679
0.5269020080566406,0.6656324386596679
0.5310482025146485,0.6704177856445312
0.5310482025146485,0.6704177856445312
0.5247905731201171,0.6664564132690429
0.5247905731201171,0.6664564132690429
0.5300296783447266,0.6665182113647461
0.5300296783447266,0.6665182113647461
0.5281808853149413,0.6723735809326171
0.5281808853149413,0.6723735809326171
0.5272653579711913,0.6660707473754882
0.5272653579711913,0.6660707473754882
0.5320249557495117,0.6720365524291992
0.5320249557495117,0.6720365524291992
0.5247207641601562,0.6678308486938477
0.5247207641601562,0.6678308486938477
0.5309211730957031,0.6708429336547851
0.5309211730957031,0.6708429336547851
0.5289705276489257,0.6730911254882812
0.5289705276489257,0.6730911254882812
0.5285041809082031,0.6678337097167969
0.5285041809082031,0.6678337097167969
0.5321868896484375,0.6726482391357421
0.5321868896484375,0.6726482391357421
0.5257083892822265,0.6712697982788086
0.5257083892822265,0.6712697982788086
0.5315963745117187,0.6716829299926758
0.5315963745117187,0.6716829299926758
0.5300846099853516,0.6750898361206055
0.5300846099853516,0.6750898361206055
0.5284543991088867,0.6695646286010742
0.5284543991088867,0.6695646286010742
0.5330514907836914,0.6770765304565429
0.5330514907836914,0.6770765304565429
0.5264087677001953,0.6721195220947266
0.5264087677001953,0.6721195220947266
0.5326835632324218,0.6734928131103516
0.5326835632324218,0.6734928131103516
0.5301710128784179,0.6755327224731446
0.5301710128784179,0.6755327224731446
0.5293733596801757,0.6726562500000000
0.5278518676757812,0.6726562500000000
0.5337272644042969,0.6776613235473633
0.5337272644042969,0.6776613235473633
0.5273180007934570,0.6736581802368163
0.5273180007934570,0.6736581802368163
0.5325645446777344,0.6748495101928711
0.5325645446777344,0.6748495101928711
0.5309217453002929,0.6794969558715820
0.5309217453002929,0.6794969558715820
0.5298883438110351,0.6729326248168945
0.5298883438110351,0.6729326248168945
0.5345575332641601,0.6789728164672851
0.5345575332641601,0.6789728164672851
0.5273380279541016,0.6736335754394531
0.5273380279541016,0.6736335754394531
0.5333026885986328,0.6775136947631836
0.5333026885986328,0.6775136947631836
0.5315179824829102,0.6798545837402343
0.5315179824829102,0.6798545837402343
0.5308090209960937,0.6743236541748047
0.5308090209960937,0.6743236541748047
0.5345506668090820,0.6803443908691406
0.5345506668090820,0.6803443908691406
0.5279932022094727,0.6779611587524413
0.5279932022094727,0.6779611587524413
0.5337564468383789,0.6781951904296875
0.5337564468383789,0.6781951904296875
0.5326263427734375,0.6818058013916015
0.5326263427734375,0.6818058013916015
0.5310230255126953,0.6749507904052734
0.5310230255126953,0.6749507904052734
0.5355989456176757,0.6838005065917968
0.5355989456176757,0.6838005065917968
0.5288618087768554,0.6787096023559570
0.5288618087768554,0.6787096023559570
0.5348270416259765,0.6795175552368163
0.5348270416259765,0.6795175552368163
0.5322343826293945,0.6819076538085938
0.5322343826293945,0.6819076538085938
0.5306814193725585,0.6756946563720703
0.5306814193725585,0.6756946563720703
0.5340597152709960,0.6780618667602539
0.5340597152709960,0.6780618667602539
0.5264648437500000,0.6707731246948242
0.5264648437500000,0.6707731246948242
0.5300296783447266,0.6667453765869140
0.5300296783447266,0.6667453765869140
0.5272624969482421,0.6693517684936523
0.5297498703002930,0.6693517684936523
0.5249267578125000,0.6597467422485351
0.5249267578125000,0.6597467422485351
0.5287656784057617,0.6637613296508789
0.5287656784057617,0.6637613296508789
0.5209321975708008,0.6581897735595703
0.5209321975708008,0.6581897735595703
0.5261838912963867,0.6594194412231446
0.5261838912963867,0.6594194412231446
0.5242893218994140,0.6611434936523437
0.5242893218994140,0.6611434936523437
0.5232221603393554,0.6548721313476562
0.5232221603393554,0.6548721313476562
0.5270021438598632,0.6595258712768555
0.5270021438598632,0.6595258712768555
0.5204486846923828,0.6580186843872070
0.5204486846923828,0.6580186843872070
0.5259275436401367,0.6576290130615234
0.5259275436401367,0.6576290130615234
0.5246858596801758,0.6609935760498047
0.5246858596801758,0.6609935760498047
0.5227998733520508,0.6547307968139648
0.5227998733520508,0.6547307968139648
0.5273202896118164,0.6621820449829101
0.5273202896118164,0.6621820449829101
0.5205402374267578,0.6571352005004882
0.5205402374267578,0.6571352005004882
0.5263961791992188,0.6578481674194335
0.5263961791992188,0.6578481674194335
0.5242332458496094,0.6597822189331054
0.5242332458496094,0.6597822189331054
0.5230264663696289,0.6563106536865234
0.5230264663696289,0.6563106536865234
0.5275434494018555,0.6615932464599609
0.5275434494018555,0.6615932464599609
0.5212446212768554,0.6580787658691406
0.5212446212768554,0.6580787658691406
0.5262805938720703,0.6589508056640625
0.5262805938720703,0.6589508056640625
0.5251104354858398,0.6641887664794922
0.5251104354858398,0.6641887664794922
0.5238618850708008,0.6574607849121094
0.5238618850708008,0.6574607849121094
0.5288074493408202,0.6638723373413086
0.5288074493408202,0.6638723373413086
0.5215238571166992,0.6591453552246094
0.5215238571166992,0.6591453552246094
0.5272951126098633,0.6624252319335937
0.5272951126098633,0.6624252319335937
0.5258817672729492,0.6648405075073242
0.5258817672729492,0.6648405075073242
0.5246641159057617,0.6586315155029296
0.5246641159057617,0.6586315155029296
0.5286334991455078,0.6645200729370117
0.5286334991455078,0.6645200729370117
0.5220348358154296,0.6622381210327148
0.5220348358154296,0.6622381210327148
0.5274587631225586,0.6616109848022461
0.5274587631225586,0.6616109848022461
0.5264448165893555,0.6652313232421875
0.5264448165893555,0.6652313232421875
0.5243413925170898,0.6576404571533203
0.5243413925170898,0.6576404571533203
0.5290191650390624,0.6664867401123047
0.5290191650390624,0.6664867401123047
0.5223615646362304,0.6617626190185547
0.5223615646362304,0.6617626190185547
0.5280223846435547,0.6625888824462890
0.5280223846435547,0.6625888824462890
0.5261404037475585,0.6660970687866211
0.5261404037475585,0.6660970687866211
0.5249708175659179,0.6615961074829101
0.5249708175659179,0.6615961074829101
0.5295919418334961,0.6669027328491210
0.5295919418334961,0.6669027328491210
0.5233125686645508,0.6635982513427734
0.5233125686645508,0.6635982513427734
0.5281705856323242,0.6629928588867188
0.5281705856323242,0.6629928588867188
0.5271600723266602,0.6693214416503906
0.5271600723266602,0.6693214416503906
0.5256156921386719,0.6622415542602539
0.5256156921386719,0.6622415542602539
0.5306150436401367,0.6687103271484375
0.5306150436401367,0.6687103271484375
0.5232919692993164,0.6651884078979492
0.5232919692993164,0.6651884078979492
0.5290403366088867,0.6672918319702148
0.5290403366088867,0.6672918319702148
0.5279056549072265,0.6700813293457031
0.5279056549072265,0.6700813293457031
0.5267074584960937,0.6641080856323242
0.5267074584960937,0.6641080856323242
0.5307180404663085,0.6690708160400390
0.5307180404663085,0.6690708160400390
0.5241937637329102,0.6684139251708984
0.5241937637329102,0.6684139251708984
0.5296709060668945,0.6677873611450195
0.5296709060668945,0.6677873611450195
0.5288412094116210,0.6718214035034179
0.5288412094116210,0.6718214035034179
0.5267892837524414,0.6654041290283202
0.5267892837524414,0.6654041290283202
0.5284933090209961,0.6680322647094726
0.5284933090209961,0.6680322647094726
0.5380920410156250,0.6735774993896484
0.5304399490356445,0.6735774993896484
0.5264162063598633,0.6624452590942382
0.5264162063598633,0.6624452590942382
0.5316146850585938,0.6715066909790038
0.5316146850585938,0.6715066909790038
0.5269008636474609,0.6724325180053711
0.5269008636474609,0.6724325180053711
0.5363142013549804,0.6691257476806640
0.5363142013549804,0.6691257476806640
0.5313405990600586,0.6707742691040038
0.5313405990600586,0.6707742691040038
0.5269632339477539,0.6681919097900391
0.5269632339477539,0.6681919097900391
0.5323591232299805,0.6737691879272460
0.5323591232299805,0.6737691879272460
0.5348911285400391,0.6742275238037109
0.5348911285400391,0.6742275238037109
0.5296079635620117,0.6665096282958984
0.5296079635620117,0.6665096282958984
0.5319448471069336,0.6766817092895507
0.5319448471069336,0.6766817092895507
0.5277597427368164,0.6702398300170899
0.5277597427368164,0.6702398300170899
0.5402698516845703,0.6752111434936523
0.5402698516845703,0.6752111434936523
0.5282421112060547,0.6718992233276367
0.5282421112060547,0.6718992233276367
0.5302768707275390,0.6726024627685546
0.5302768707275390,0.6726024627685546
0.5328832626342773,0.6792789459228515
0.5328832626342773,0.6792789459228515
0.5357460021972656,0.6723730087280273
0.5357460021972656,0.6723730087280273
0.5336299896240234,0.6729183197021484
0.5336299896240234,0.6729183197021484
0.5289813995361328,0.6779417037963867
0.5289813995361328,0.6779417037963867
0.5311134338378906,0.6747196197509765
0.5311134338378906,0.6747196197509765
0.5408678054809570,0.6808073043823242
0.5408678054809570,0.6808073043823242
0.5290809631347656,0.6698324203491210
0.5290809631347656,0.6698324203491210
0.5343029022216796,0.6787359237670898
0.5343029022216796,0.6787359237670898
0.5297956466674805,0.6803289413452148
0.5297956466674805,0.6803289413452148
0.5389543533325195,0.6763395309448242
0.5389543533325195,0.6763395309448242
0.5340167999267578,0.6779376983642578
0.5340167999267578,0.6779376983642578
0.5294963836669921,0.6753347396850585
0.5294963836669921,0.6753347396850585
0.5347715377807617,0.6800405502319335
0.5347715377807617,0.6800405502319335
0.5375947952270508,0.6811471939086914
0.5375947952270508,0.6811471939086914
0.5320186614990234,0.6733823776245117
0.5320186614990234,0.6733823776245117
0.5344882965087890,0.6833192825317382
0.5344882965087890,0.6833192825317382
0.5300640106201172,0.6774507522583008
0.5300640106201172,0.6774507522583008
0.5426599502563476,0.6816181182861328
0.5426599502563476,0.6816181182861328
0.5307449340820313,0.6785413742065429
0.5307449340820313,0.6785413742065429
0.5326000213623047,0.6790946960449219
0.5326000213623047,0.6790946960449219
0.5352584838867187,0.6853294372558594
0.5352584838867187,0.6853294372558594
0.5381126403808594,0.6790826797485351
0.5381126403808594,0.6790826797485351
0.5360607147216797,0.6794242858886719
0.5360607147216797,0.6794242858886719
0.5313869476318359,0.6846759796142577
0.5313869476318359,0.6846759796142577
0.5333862304687500,0.6813234329223633
0.5333862304687500,0.6813234329223633
0.5430656433105469,0.6861024856567383
0.5430656433105469,0.6861024856567383
0.5304559707641602,0.6737457275390625
0.5304559707641602,0.6737457275390625
0.5347938537597656,0.6795696258544922
0.5347938537597656,0.6795696258544922
0.5291633605957031,0.6774335861206054
0.5291633605957031,0.6774335861206054
0.5367250442504883,0.6701751708984375
0.5367250442504883,0.6701751708984375
0.5305131912231446,0.6682502746582031
0.5305131912231446,0.6682502746582031
0.5246000289916992,0.6628664016723632
0.5246000289916992,0.6628664016723632
0.5290288925170898,0.6652719497680664
0.5290288925170898,0.6652719497680664
0.5310487747192383,0.6643266677856445
0.5310487747192383,0.6643266677856445
0.5249868392944336,0.6552852630615235
0.5249868392944336,0.6552852630615235
0.5271686553955078,0.6643066406250000
0.5271686553955078,0.6643066406250000
0.5223976135253906,0.6574739456176758
0.5223976135253906,0.6574739456176758
0.5348487854003906,0.6615657806396484
0.5348487854003906,0.6615657806396484
0.5230527877807617,0.6584306716918945
0.5230527877807617,0.6584306716918945
0.5246246337890624,0.6585519790649413
0.5246246337890624,0.6585519790649413
0.5273603439331055,0.6648427963256835
0.5273603439331055,0.6648427963256835
0.5297933578491211,0.6579431533813477
0.5297933578491211,0.6579431533813477
0.5278141021728515,0.6576890945434570
0.5278141021728515,0.6576890945434570
0.5231735229492187,0.6626758575439453
0.5231735229492187,0.6626758575439453
0.5249221801757812,0.6588272094726563
0.5249221801757812,0.6588272094726563
0.5346244812011719,0.6646659851074218
0.5346244812011719,0.6646659851074218
0.5225320816040039,0.6540018081665039
0.5225320816040039,0.6540018081665039
0.5277872085571289,0.6621025085449218
0.5277872085571289,0.6621025085449218
0.5235219955444336,0.6640754699707031
0.5235219955444336,0.6640754699707031
0.5323843002319336,0.6601306915283203
0.5323843002319336,0.6601306915283203
0.5279514312744140,0.6620458602905274
0.5279514312744140,0.6620458602905274
0.5232948303222656,0.6600042343139648
0.5232948303222656,0.6600042343139648
0.5289339065551758,0.6643020629882812
0.5289339065551758,0.6643020629882812
0.5316135406494140,0.6658910751342774
0.5316135406494140,0.6658910751342774
0.5259195327758789,0.6580581665039062
0.5259195327758789,0.6580581665039062
0.5286758422851562,0.6678245544433593
0.5286758422851562,0.6678245544433593
0.5238292694091796,0.6620996475219726
0.5238292694091796,0.6620996475219726
0.5365791320800781,0.6653995513916016
0.5365791320800781,0.6653995513916016
0.5247785568237304,0.6625648498535156
0.5247785568237304,0.6625648498535156
0.5262376785278320,0.6625602722167968
0.5262376785278320,0.6625602722167968
0.5289482116699219,0.6683252334594726
0.5289482116699219,0.6683252334594726
0.5312971115112305,0.6622020721435546
0.5312971115112305,0.6622020721435546
0.5294305801391601,0.6617465972900390
0.5294305801391601,0.6617465972900390
0.5249290466308594,0.6672580718994140
0.5249290466308594,0.6672580718994140
0.5265163421630860,0.6640605926513672
0.5265163421630860,0.6640605926513672
0.5365825653076172,0.6695039749145507
0.5365825653076172,0.6695039749145507
0.5243980407714843,0.6593055725097656
0.5243980407714843,0.6593055725097656
0.5300119400024413,0.6672082901000976
0.5300119400024413,0.6672082901000976
0.5257799148559570,0.6690301895141602
0.5257799148559570,0.6690301895141602
0.5343944549560546,0.6653760910034180
0.5343944549560546,0.6653760910034180
0.5300354003906250,0.6671911239624023
0.5300354003906250,0.6671911239624023
0.5250097274780273,0.6653268814086913
0.5250097274780273,0.6653268814086913
0.5308227539062500,0.6698032379150390
0.5308227539062500,0.6698032379150390
0.5337129592895508,0.6710443496704102
0.5337129592895508,0.6710443496704102
0.5278261184692382,0.6631530761718750
0.5278261184692382,0.6631530761718750
0.5306648254394531,0.6730699539184570
0.5306648254394531,0.6730699539184570
0.5257284164428710,0.6673633575439453
0.5257284164428710,0.6673633575439453
0.5387729644775391,0.6712841033935547
0.5387729644775391,0.6712841033935547
0.5271886825561524,0.6687978744506836
0.5271886825561524,0.6687978744506836
0.5285894393920898,0.6690141677856445
0.5285894393920898,0.6690141677856445
0.5315763473510742,0.6755561828613281
0.5315763473510742,0.6755561828613281
0.5337221145629882,0.6692762374877930
0.5337221145629882,0.6692762374877930
0.5321125030517578,0.6687171936035156
0.5321125030517578,0.6687171936035156
0.5277299880981445,0.6744798660278321
0.5277299880981445,0.6744798660278321
0.5292503356933593,0.6707708358764648
0.5292503356933593,0.6707708358764648
0.5394819259643554,0.6768058776855469
0.5394819259643554,0.6768058776855469
0.5268716812133789,0.6666984558105469
0.5268716812133789,0.6666984558105469
0.5326005935668945,0.6744220733642577
0.5326005935668945,0.6744220733642577
0.5283353805541992,0.6766748428344727
0.5334257125854492,0.6766748428344727
0.5370883941650391,0.6724679946899413
0.5370883941650391,0.6724679946899413
0.5327831268310547,0.6741737365722656
0.5327831268310547,0.6741737365722656
0.5275102615356445,0.6724348068237305
0.5275102615356445,0.6724348068237305
0.5334114074707031,0.6762491226196289
0.5334114074707031,0.6762491226196289
0.5364063262939452,0.6781259536743164
0.5364063262939452,0.6781259536743164
0.5303758621215821,0.6701705932617187
0.5303758621215821,0.6701705932617187
0.5332958221435546,0.6800783157348632
0.5332958221435546,0.6800783157348632
0.5282117843627929,0.6749942779541015
0.5282117843627929,0.6749942779541015
0.5413232803344726,0.6781688690185547
0.5413232803344726,0.6781688690185547
0.5298551559448242,0.6758657455444336
0.5298551559448242,0.6758657455444336
0.5311414718627929,0.6761060714721679
0.5311414718627929,0.6761060714721679
0.5341913223266601,0.6821056365966797
0.5341913223266601,0.6821056365966797
0.5363084793090820,0.6765867233276367
0.5363084793090820,0.6765867233276367
0.5346885681152344,0.6760351181030273
0.5346885681152344,0.6760351181030273
0.5305034637451171,0.6819442749023438
0.5305034637451171,0.6819442749023438
0.5318922042846680,0.6786363601684570
0.5318922042846680,0.6786363601684570
0.5423040390014648,0.6841077804565430
0.5423040390014648,0.6841077804565430
0.5295845031738281,0.6743671417236328
0.5295845031738281,0.6743671417236328
0.5352865219116211,0.6815271377563477
0.5352865219116211,0.6815271377563477
0.5312101364135742,0.6835344314575195
0.5312101364135742,0.6835344314575195
0.5397542953491211,0.6797750473022460
0.5397542953491211,0.6797750473022460
0.5354375839233398,0.6813617706298828
0.5354375839233398,0.6813617706298828
0.5299861907958984,0.6797744750976562
0.5299861907958984,0.6797744750976562
0.5360160827636719,0.6835973739624023
0.5360160827636719,0.6835973739624023
0.5390865325927734,0.6851835250854492
0.5390865325927734,0.6851835250854492
0.5329187393188476,0.6772195816040039
0.5329187393188476,0.6772195816040039
0.5359531402587890,0.6869344711303711
0.5359531402587890,0.6869344711303711
0.5306356430053710,0.6815191268920898
0.5306356430053710,0.6815191268920898
0.5438827514648438,0.6849609375000000
0.5438827514648438,0.6849609375000000
0.5322938919067383,0.6827819824218749
0.5322938919067383,0.6827819824218749
0.5336139678955077,0.6830635070800781
0.5336139678955077,0.6830635070800781
0.5369029998779297,0.6895071029663086
0.5369029998779297,0.6895071029663086
0.5371559143066406,0.6825365066528321
0.5371559143066406,0.6825365066528321
0.5375066757202148,0.6888891220092773
0.5375066757202148,0.6888891220092773
0.5434970855712891,0.6867033004760742
0.5434970855712891,0.6867033004760742
0.5294540405273437,0.6738859176635742
0.5337776184082031,0.6738859176635742
0.5338949203491211,0.6772687911987304
0.5338949203491211,0.6772687911987304
0.5283565521240234,0.6759435653686523
0.5283565521240234,0.6759435653686523
0.5352647781372070,0.6680603027343750
0.5352647781372070,0.6680603027343750
0.5300022125244140,0.6666933059692383
0.5300022125244140,0.6666933059692383
0.5234121322631836,0.6630008697509765
0.5234121322631836,0.6630008697509765
0.5288286209106445,0.6645360946655273
0.5288286209106445,0.6645360946655273
0.5290357589721679,0.6651638031005859
0.5290357589721679,0.6651638031005859
0.5209842681884765,0.6627742767333984
0.5283582687377929,0.6627742767333984
0.5263589859008789,0.6626014709472656
0.5263589859008789,0.6626014709472656
0.5262542724609375,0.6658990859985351
0.5262542724609375,0.6658990859985351
0.5237594604492187,0.6590652465820312
0.5237594604492187,0.6590652465820312
0.5283657073974609,0.6634586334228515
0.5283657073974609,0.6634586334228515
0.5213281631469726,0.6640663146972656
0.5289173126220703,0.6640663146972656
0.5266387939453124,0.6618581771850586
0.5266387939453124,0.6618581771850586
0.5268653869628906,0.6662452697753906
0.5268653869628906,0.6662452697753906
0.5231935501098632,0.6590492248535156
0.5231935501098632,0.6590492248535156
0.5287199020385742,0.6660352706909179
0.5287199020385742,0.6660352706909179
0.5215084075927734,0.6633018493652344
0.5215084075927734,0.6633018493652344
0.5270771026611328,0.6621934890747070
0.5270771026611328,0.6621934890747070
0.5265020370483399,0.6654533386230469
0.5265020370483399,0.6654533386230469
0.5237943649291992,0.6614130020141601
0.5237943649291992,0.6614130020141601
0.5292737960815429,0.6665067672729492
0.5292737960815429,0.6665067672729492
0.5226579666137695,0.6653926849365234
0.5226579666137695,0.6653926849365234
0.5273317337036133,0.6643478393554687
0.5273317337036133,0.6643478393554687
0.5275875091552734,0.6703788757324218
0.5275875091552734,0.6703788757324218
0.5247253417968750,0.6628332138061523
0.5247253417968750,0.6628332138061523
0.5306625366210938,0.6686113357543945
0.5306625366210938,0.6686113357543945
0.5227409362792969,0.6657972335815430
0.5227409362792969,0.6657972335815430
0.5280956268310547,0.6668111801147460
0.5280956268310547,0.6668111801147460
0.5282060623168945,0.6702323913574219
0.5282060623168945,0.6702323913574219
0.5253261566162110,0.6634666442871093
0.5253261566162110,0.6634666442871093
0.5300903320312500,0.6687938690185546
0.5300903320312500,0.6687938690185546
0.5230110168457031,0.6684682846069335
0.5230110168457031,0.6684682846069335
0.5281871795654297,0.6663448333740234
0.5281871795654297,0.6663448333740234
0.5287708282470703,0.6708372116088867
0.5287708282470703,0.6708372116088867
0.5251070022583008,0.6629259109497070
0.5251070022583008,0.6629259109497070
0.5307575225830078,0.6710151672363281
0.5307575225830078,0.6710151672363281
0.5236244201660156,0.6688425064086914
0.5236244201660156,0.6688425064086914
0.5291891098022461,0.6678525924682617
0.5291891098022461,0.6678525924682617
0.5287130355834960,0.6723529815673828
0.5287130355834960,0.6723529815673828
0.5256895065307617,0.6671121597290038
0.5256895065307617,0.6671121597290038
0.5314756393432617,0.6720485687255859
0.5314756393432617,0.6720485687255859
0.5247528076171875,0.6709281921386718
0.5247528076171875,0.6709281921386718
0.5293739318847656,0.6686428070068359
0.5293739318847656,0.6686428070068359
0.5297487258911132,0.6757192611694336
0.5297487258911132,0.6757192611694336
0.5266485214233398,0.6683212280273437
0.5266485214233398,0.6683212280273437
0.5326171875000000,0.6740627288818359
0.5326171875000000,0.6740627288818359
0.5248849868774413,0.6727901458740234
0.5248849868774413,0.6727901458740234
0.5302717208862304,0.6729469299316406
0.5302717208862304,0.6729469299316406
0.5305435180664062,0.6767114639282227
0.5305435180664062,0.6767114639282227
0.5277877807617187,0.6702558517456054
0.5277877807617187,0.6702558517456054
0.5327871322631835,0.6745954513549804
0.5327871322631835,0.6745954513549804
0.5257352828979492,0.6759401321411133
0.5257352828979492,0.6759401321411133
0.5308902740478515,0.6737600326538086
0.5308902740478515,0.6737600326538086
0.5317377090454102,0.6784824371337891
0.5317377090454102,0.6784824371337891
0.5276567459106445,0.6717733383178711
0.5276567459106445,0.6717733383178711
0.5335275650024414,0.6787639617919922
0.5335275650024414,0.6787639617919922
0.5263681411743164,0.6766061782836914
0.5263681411743164,0.6766061782836914
0.5318956375122070,0.6754486083984375
0.5318956375122070,0.6754486083984375
0.5317159652709961,0.6788091659545898
0.5317159652709961,0.6788091659545898
0.5285202026367187,0.6746698379516601
0.5285202026367187,0.6746698379516601
0.5342760086059570,0.6794420242309570
0.5342760086059570,0.6794420242309570
0.5277385711669922,0.6785036087036133
0.5277385711669922,0.6785036087036133
0.5319059371948242,0.6769849777221679
0.5319059371948242,0.6769849777221679
0.5325496673583984,0.6830142974853516
0.5325496673583984,0.6830142974853516
0.5291461944580078,0.6755212783813477
0.5378025054931640,0.6755212783813477
0.5353780746459961,0.6812067031860352
0.5353780746459961,0.6812067031860352
0.5277328491210938,0.6790128707885742
0.5277328491210938,0.6790128707885742
0.5328826904296875,0.6801298141479492
0.5328826904296875,0.6801298141479492
0.5334377288818359,0.6840562820434570
0.5334377288818359,0.6840562820434570
0.5304210662841796,0.6775743484497070
0.5304210662841796,0.6775743484497070
0.5355211257934570,0.6830869674682617
0.5355211257934570,0.6830869674682617
0.5285911560058594,0.6834257125854492
0.5285911560058594,0.6834257125854492
0.5335670471191406,0.6811946868896485
0.5335670471191406,0.6811946868896485
0.5345689773559570,0.6860258102416992
0.5345689773559570,0.6860258102416992
0.5304164886474609,0.6779983520507812
0.5304164886474609,0.6779983520507812
0.5363061904907226,0.6861145019531250
0.5363061904907226,0.6861145019531250
0.5293458938598633,0.6841175079345703
0.5293458938598633,0.6841175079345703
0.5346942901611328,0.6828294754028320
0.5346942901611328,0.6828294754028320
0.5345272064208985,0.6874202728271485
0.5345272064208985,0.6874202728271485
0.5311706542968749,0.6819179534912109
0.5311706542968749,0.6819179534912109
0.5369951248168945,0.6866146087646484
0.5369951248168945,0.6866146087646484
0.5303592681884766,0.6856012344360352
0.5303592681884766,0.6856012344360352
0.5344854354858398,0.6829507827758788
0.5344854354858398,0.6829507827758788
0.5351829528808594,0.6900712966918945
0.5351829528808594,0.6900712966918945
0.5317743301391601,0.6825347900390625
0.5317743301391601,0.6825347900390625
0.5378854751586913,0.6882379531860351
0.5378854751586913,0.6882379531860351
0.5303638458251952,0.6871410369873047
0.5303638458251952,0.6871410369873047
0.5353054046630860,0.6870798110961914
0.5353054046630860,0.6870798110961914
0.5447376251220702,0.6910612106323242
0.5447376251220702,0.6910612106323242
0.5330389022827148,0.6844099044799804
0.5330389022827148,0.6844099044799804
0.5381938934326171,0.6888158798217773
0.5381938934326171,0.6888158798217773
0.5386259078979492,0.6901010513305664
0.5386259078979492,0.6901010513305664
0.5380989074707031,0.6872011184692383
0.5380989074707031,0.6872011184692383
0.5364738464355469,0.6906309127807617
0.5364738464355469,0.6906309127807617
0.5314109802246093,0.6815523147583008
0.5314109802246093,0.6815523147583008
0.5362558364868164,0.6850038528442383
0.5313846588134765,0.6850038528442383
0.5277265548706055,0.6791244506835937
0.5416007995605469,0.6791244506835937
0.5312736511230468,0.6736301422119141
0.5250228881835938,0.6736301422119141
0.5299175262451171,0.6735511779785156
0.5299175262451171,0.6735511779785156
0.5253650665283203,0.6663785934448242
0.5253650665283203,0.6663785934448242
0.5301990509033203,0.6687744140624999
0.5301990509033203,0.6687744140624999
0.5231781005859375,0.6664724349975586
0.5231781005859375,0.6664724349975586
0.5266273498535156,0.6635999679565430
0.5266273498535156,0.6635999679565430
0.5270896911621094,0.6689558029174805
0.5270896911621094,0.6689558029174805
0.5234287261962890,0.6607870101928711
0.5234287261962890,0.6607870101928711
0.5294546127319336,0.6661365509033202
0.5294546127319336,0.6661365509033202
0.5219575881958007,0.6637395858764649
0.5219575881958007,0.6637395858764649
0.5266021728515625,0.6643598556518554
0.5266021728515625,0.6643598556518554
0.5273437500000000,0.6680088043212891
0.5273437500000000,0.6680088043212891
0.5240993499755859,0.6611400604248047
0.5240993499755859,0.6611400604248047
0.5290901184082031,0.6661828994750977
0.5290901184082031,0.6661828994750977
0.5222539901733398,0.6664146423339844
0.5222539901733398,0.6664146423339844
0.5267452239990235,0.6636497497558593
0.5267452239990235,0.6636497497558593
0.5278318405151367,0.6682010650634765
0.5278318405151367,0.6682010650634765
0.5234830856323242,0.6600803375244141
0.5234830856323242,0.6600803375244141
0.5293865203857422,0.6678583145141601
0.5293865203857422,0.6678583145141601
0.5226001739501953,0.6662618637084960
0.5226001739501953,0.6662618637084960
0.5277471542358398,0.6647558212280273
0.5277471542358398,0.6647558212280273
0.5279331207275391,0.6696315765380859
0.5279331207275391,0.6696315765380859
0.5244993209838867,0.6643146514892578
0.5244993209838867,0.6643146514892578
0.5303592681884766,0.6691955566406250
0.5303592681884766,0.6691955566406250
0.5240558624267578,0.6684488296508789
0.5240558624267578,0.6684488296508789
0.5277723312377930,0.6655397415161133
0.5277723312377930,0.6655397415161133
0.5287714004516602,0.6727014541625976
0.5287714004516602,0.6727014541625976
0.5250926971435547,0.6648273468017578
0.5339572906494140,0.6648273468017578
0.5311986923217773,0.6701654434204102
0.5311986923217773,0.6701654434204102
0.5237903594970703,0.6690341949462890
0.5237903594970703,0.6690341949462890
0.5281242370605469,0.6685523986816406
0.5281242370605469,0.6685523986816406
0.5290895462036133,0.6722156524658203
0.5290895462036133,0.6722156524658203
0.5257501602172852,0.6653703689575196
0.5257501602172852,0.6653703689575196
0.5307832717895508,0.6695526123046874
0.5307832717895508,0.6695526123046874
0.5242475509643555,0.6710397720336914
0.5242475509643555,0.6710397720336914
0.5285579681396484,0.6684625625610351
0.5285579681396484,0.6684625625610351
0.5299301147460938,0.6733028411865234
0.5299301147460938,0.6733028411865234
0.5255504608154297,0.6664838790893555
0.5255504608154297,0.6664838790893555
0.5313903808593750,0.6734006881713867
0.5313903808593750,0.6734006881713867
0.5249713897705078,0.6717578887939453
0.5249713897705078,0.6717578887939453
0.5296096801757812,0.6703411102294922
0.5296096801757812,0.6703411102294922
0.5299598693847656,0.6740638732910156
0.5299598693847656,0.6740638732910156
0.5265163421630860,0.6696424484252930
0.5265163421630860,0.6696424484252930
0.5322961807250977,0.6744272232055664
0.5322961807250977,0.6744272232055664
0.5262159347534180,0.6738630294799804
0.5262159347534180,0.6738630294799804
0.5297470092773438,0.6720394134521485
0.5297470092773438,0.6720394134521485
0.5309640884399414,0.6782644271850585
0.5309640884399414,0.6782644271850585
0.5272024154663085,0.6706592559814453
0.5272024154663085,0.6706592559814453
0.5335075378417968,0.6762977600097656
0.5286912918090820,0.6762977600097656
0.5262926101684570,0.6745656967163086
0.5262926101684570,0.6745656967163086
0.5306064605712890,0.6751939773559570
0.5306064605712890,0.6751939773559570
0.5317279815673828,0.6790998458862304
0.5317279815673828,0.6790998458862304
0.5284212112426757,0.6723672866821289
0.5284212112426757,0.6723672866821289
0.5334640502929687,0.6778278350830078
0.5334640502929687,0.6778278350830078
0.5269220352172851,0.6785001754760742
0.5269220352172851,0.6785001754760742
0.5311872482299804,0.6758239746093749
0.5311872482299804,0.6758239746093749
0.5326864242553710,0.6807592391967773
0.5326864242553710,0.6807592391967773
0.5282014846801758,0.6726551055908203
0.5282014846801758,0.6726551055908203
0.5275274276733398,0.6759658813476562
0.5275274276733398,0.6759658813476562
0.5413839340209960,0.6818012237548828
0.5413839340209960,0.6818012237548828
0.5276298522949219,0.6735002517700195
0.5276298522949219,0.6735002517700195
0.5337438583374023,0.6792228698730468
0.5337438583374023,0.6792228698730468
0.5310979843139648,0.6826366424560547
0.5310979843139648,0.6826366424560547
0.5379901885986328,0.6778610229492187
0.5379901885986328,0.6778610229492187
0.5348384857177734,0.6794855117797851
0.5348384857177734,0.6794855117797851
0.5281253814697265,0.6788755416870117
0.5281253814697265,0.6788755416870117
0.5344860076904296,0.6810424804687499
0.5344860076904296,0.6810424804687499
0.5389411926269531,0.6840906143188477
0.5389411926269531,0.6840906143188477
0.5313915252685547,0.6755933761596680
0.5313915252685547,0.6755933761596680
0.5355480194091796,0.6851537704467773
0.5355480194091796,0.6851537704467773
0.5290111541748047,0.6814235687255860
0.5353494644165039,0.6814235687255860
0.5423171997070312,0.6830886840820313
0.5423171997070312,0.6830886840820313
0.5324460983276367,0.6820587158203125
0.5324460983276367,0.6820587158203125
0.5320667266845703,0.6811643600463867
0.5320667266845703,0.6811643600463867
0.5361797332763671,0.6869047164916992
0.5361797332763671,0.6869047164916992
0.5366912841796875,0.6825674057006835
0.5366912841796875,0.6825674057006835
0.5356733322143554,0.6805320739746094
0.5356733322143554,0.6805320739746094
0.5329874038696288,0.6871473312377929
0.5329874038696288,0.6871473312377929
0.5327138900756836,0.6830366134643554
0.5327138900756836,0.6830366134643554
0.5439439773559570,0.6885229110717773
0.5439439773559570,0.6885229110717773
0.5300119400024413,0.6802328109741210
0.5300119400024413,0.6802328109741210
0.5362237930297852,0.6857231140136718
0.5362237930297852,0.6857231140136718
0.5335693359375000,0.6888233184814453
0.5335693359375000,0.6888233184814453
0.5403482437133789,0.6842891693115234
0.5403482437133789,0.6842891693115234
0.5373453140258789,0.6861276626586914
0.5373453140258789,0.6861276626586914
0.5305898666381835,0.6857231140136718
0.5305898666381835,0.6857231140136718
0.5369104385375977,0.6881103515625000
0.5369104385375977,0.6881103515625000
0.5415264129638672,0.6908088684082031
0.5415264129638672,0.6908088684082031
0.5338983535766602,0.6822023391723633
0.5338983535766602,0.6822023391723633
0.5379381179809570,0.6915052413940429
0.5379381179809570,0.6915052413940429
0.5311283111572266,0.6868566513061524
0.5311283111572266,0.6868566513061524
0.5442535400390625,0.6877241134643555
0.5442535400390625,0.6877241134643555
0.5335653305053710,0.6845746994018554
0.5335653305053710,0.6845746994018554
0.5319671630859375,0.6803873062133788
0.5319671630859375,0.6803873062133788
0.5348327636718749,0.6831064224243164
0.5348327636718749,0.6831064224243164
0.5336929321289062,0.6745479583740234
0.5336929321289062,0.6745479583740234
0.5313228607177735,0.6688156127929688
0.5313228607177735,0.6688156127929688
0.5275463104248047,0.6727283477783202
0.5275463104248047,0.6727283477783202
0.5262863159179687,0.6658613204956054
0.5262863159179687,0.6658613204956054
0.5368692398071289,0.6704360961914062
0.5368692398071289,0.6704360961914062
0.5225669860839843,0.6611080169677734
0.5225669860839843,0.6611080169677734
0.5285076141357422,0.6659276962280273
0.5285076141357422,0.6659276962280273
0.5296863555908203,0.6690959930419922
0.5296863555908203,0.6690959930419922
0.5321846008300781,0.6634757995605468
0.5230344772338867,0.6634757995605468
0.5293035507202148,0.6653406143188476
0.5293035507202148,0.6653406143188476
0.5223981857299804,0.6644067764282227
0.5223981857299804,0.6644067764282227
0.5286375045776367,0.6661983489990234
0.5286375045776367,0.6661983489990234
0.5331619262695312,0.6691829681396484
0.5304056167602539,0.6691829681396484
0.5254280090332031,0.6599887847900391
0.5231048583984375,0.6599887847900391
0.5294940948486327,0.6694965362548828
0.5268030166625977,0.6694965362548828
0.5227283477783203,0.6655014038085937
0.5227283477783203,0.6655014038085937
0.5359577178955078,0.6666229248046874
0.5359577178955078,0.6666229248046874
0.5262840270996093,0.6656301498413085
0.5262840270996093,0.6656301498413085
0.5256603240966796,0.6643592834472656
0.5256603240966796,0.6643592834472656
0.5300033569335937,0.6706426620483398
0.5300033569335937,0.6706426620483398
0.5303060531616210,0.6665393829345703
0.5303060531616210,0.6665393829345703
0.5294734954833984,0.6644279479980468
0.5294734954833984,0.6644279479980468
0.5270668029785156,0.6714866638183593
0.5270668029785156,0.6714866638183593
0.5264545440673828,0.6669696807861328
0.5264545440673828,0.6669696807861328
0.5379404067993164,0.6728679656982421
0.5282999038696289,0.6728679656982421
0.5239625930786133,0.6644805908203125
0.5239625930786133,0.6644805908203125
0.5300668716430664,0.6695835113525390
0.5300668716430664,0.6695835113525390
0.5275812149047852,0.6725355148315429
0.5275812149047852,0.6725355148315429
0.5338691711425781,0.6674016952514649
0.5338691711425781,0.6674016952514649
0.5310173034667969,0.6694181442260742
0.5310173034667969,0.6694181442260742
0.5240518569946289,0.6685935974121093
0.5240518569946289,0.6685935974121093
0.5301984786987305,0.6705780029296875
0.5301984786987305,0.6705780029296875
0.5348573684692383,0.6732536315917969
0.5348573684692383,0.6732536315917969
0.5269975662231445,0.6641103744506835
0.5269975662231445,0.6641103744506835
0.5313085556030274,0.6739128112792968
0.5313085556030274,0.6739128112792968
0.5245044708251952,0.6696613311767577
0.5245044708251952,0.6696613311767577
0.5378145217895508,0.6715490341186523
0.5378145217895508,0.6715490341186523
0.5283353805541992,0.6708955764770508
0.5283353805541992,0.6708955764770508
0.5275634765625000,0.6695028305053711
0.5275634765625000,0.6695028305053711
0.5320003509521484,0.6761941909790039
0.5320003509521484,0.6761941909790039
0.5321559906005859,0.6717149734497070
0.5321559906005859,0.6717149734497070
0.5313108444213867,0.6693889617919921
0.5313108444213867,0.6693889617919921
0.5290552139282226,0.6763086318969727
0.5290552139282226,0.6763086318969727
0.5283491134643554,0.6714145660400390
0.5283491134643554,0.6714145660400390
0.5398080825805663,0.6776659011840820
0.5398080825805663,0.6776659011840820
0.5257942199707031,0.6695966720581055
0.5257942199707031,0.6695966720581055
0.5319757461547852,0.6749147415161133
0.5319757461547852,0.6749147415161133
0.5297836303710938,0.6786529541015625
0.5297836303710938,0.6786529541015625
0.5360549926757813,0.6731134414672851
0.5360549926757813,0.6731134414672851
0.5333250045776367,0.6754898071289063
0.5333250045776367,0.6754898071289063
0.5264368057250977,0.6748987197875976
0.5264368057250977,0.6748987197875976
0.5326349258422851,0.6765964508056640
0.5326349258422851,0.6765964508056640
0.5375438690185547,0.6799861907958984
0.5375438690185547,0.6799861907958984
0.5294820785522460,0.6709213256835938
0.5294820785522460,0.6709213256835938
0.5337438583374023,0.6807483673095703
0.5337438583374023,0.6807483673095703
0.5269975662231445,0.6770015716552734
0.5269975662231445,0.6770015716552734
0.5401845932006836,0.6781911849975586
0.5401845932006836,0.6781911849975586
0.5308856964111328,0.6776533126831055
0.5308856964111328,0.6776533126831055
0.5300176620483398,0.6759819030761719
0.5300176620483398,0.6759819030761719
0.5344430923461914,0.6823001861572265
0.5344430923461914,0.6823001861572265
0.5347337722778320,0.6782712936401367
0.5347337722778320,0.6782712936401367
0.5336002349853516,0.6758016586303711
0.5336002349853516,0.6758016586303711
0.5315717697143555,0.6829221725463867
0.5315717697143555,0.6829221725463867
0.5306379318237304,0.6782821655273438
0.5306379318237304,0.6782821655273438
0.5422863006591797,0.6841861724853515
0.5422863006591797,0.6841861724853515
0.5282506942749023,0.6760288238525390
0.5282506942749023,0.6760288238525390
0.5341844558715820,0.6811969757080077
0.5341844558715820,0.6811969757080077
0.5322257995605468,0.6847349166870117
0.5322257995605468,0.6847349166870117
0.5384714126586914,0.6795913696289062
0.5384714126586914,0.6795913696289062
0.5357116699218750,0.6817920684814452
0.5357116699218750,0.6817920684814452
0.5287794113159180,0.6815231323242187
0.5287794113159180,0.6815231323242187
0.5350021362304688,0.6834045410156250
0.5350021362304688,0.6834045410156250
0.5400604248046875,0.6865201950073242
0.5400604248046875,0.6865201950073242
0.5318395614624023,0.6773208618164063
0.5318395614624023,0.6773208618164063
0.5362764358520508,0.6871765136718749
0.5362764358520508,0.6871765136718749
0.5293773651123047,0.6830715179443360
0.5293773651123047,0.6830715179443360
0.5426748275756835,0.6845884323120117
0.5426748275756835,0.6845884323120117
0.5332952499389648,0.6839458465576171
0.5306653976440430,0.6872652053833007
0.5339406967163086,0.6838188171386719
0.5339406967163086,0.6838188171386719
0.5360549926757813,0.6893365859985351
0.5360549926757813,0.6893365859985351
0.5311952590942383,0.6808233261108398
0.5311952590942383,0.6808233261108398
0.5368555068969726,0.6887002944946289
0.5368555068969726,0.6887002944946289
0.5312776565551758,0.6878236770629883
0.5312776565551758,0.6878236770629883
0.5349157333374023,0.6852882385253906
0.5349157333374023,0.6852882385253906
0.5359251022338867,0.6907144546508789
0.5359251022338867,0.6907144546508789
0.5319368362426757,0.6848957061767578
0.5346908569335938,0.6848957061767578
0.5378454208374023,0.6897531509399414
0.5378454208374023,0.6897531509399414
0.5325176239013671,0.6898189544677734
0.5325176239013671,0.6898189544677734
0.5349500656127929,0.6859216690063477
0.5349500656127929,0.6859216690063477
0.5365785598754883,0.6931875228881835
0.5365785598754883,0.6931875228881835
0.5321348190307617,0.6839361190795898
0.5321348190307617,0.6839361190795898
0.5378316879272461,0.6875999450683593
0.5378316879272461,0.6875999450683593
0.5300617218017578,0.6843378067016601
0.5300617218017578,0.6843378067016601
0.5317937850952148,0.6792829513549804
0.5317937850952148,0.6792829513549804
0.5323488235473632,0.6800748825073242
0.5323488235473632,0.6800748825073242
0.5273477554321289,0.6695669174194335
0.5273477554321289,0.6695669174194335
0.5311746597290039,0.6711170196533203
0.5311746597290039,0.6711170196533203
0.5245101928710937,0.6712080001831054
0.5245101928710937,0.6712080001831054
0.5270753860473633,0.6661806106567383
0.5270753860473633,0.6661806106567383
0.5290632247924805,0.6706317901611328
0.5290632247924805,0.6706317901611328
0.5239425659179687,0.6627347946166992
0.5239425659179687,0.6627347946166992
0.5293687820434571,0.6689529418945312
0.5293687820434571,0.6689529418945312
0.5237428665161132,0.6679075241088867
0.5237428665161132,0.6679075241088867
0.5271280288696288,0.6649686813354492
0.5271280288696288,0.6649686813354492
0.5282598495483398,0.6691434860229492
0.5282598495483398,0.6691434860229492
0.5240856170654297,0.6640256881713867
0.5240856170654297,0.6640256881713867
0.5297018051147461,0.6685295104980469
0.5297018051147461,0.6685295104980469
0.5246652603149414,0.6684242248535156
0.5246652603149414,0.6684242248535156
0.5266502380371093,0.6652845382690430
0.5266502380371093,0.6652845382690430
0.5285121917724609,0.6716669082641601
0.5285121917724609,0.6716669082641601
0.5243013381958007,0.6634391784667969
0.5243013381958007,0.6634391784667969
0.5240238189697265,0.6610124588012695
0.5239505767822266,0.6610124588012695
0.5300588607788086,0.6708641052246094
0.5300588607788086,0.6708641052246094
0.5234790802001953,0.6671161651611328
0.5234790802001953,0.6671161651611328
0.5364658355712890,0.6688859939575195
0.5364658355712890,0.6688859939575195
0.5275600433349609,0.6685226440429687
0.5275600433349609,0.6685226440429687
0.5263927459716796,0.6666257858276367
0.5263927459716796,0.6666257858276367
0.5308874130249023,0.6734790802001953
0.5308874130249023,0.6734790802001953
0.5312541961669922,0.6692041397094727
0.5312541961669922,0.6692041397094727
0.5298528671264648,0.6664426803588867
0.5298528671264648,0.6664426803588867
0.5280017852783203,0.6732227325439453
0.5280017852783203,0.6732227325439453
0.5268047332763671,0.6676574707031250
0.5268047332763671,0.6676574707031250
0.5383008956909180,0.6737222671508789
0.5383008956909180,0.6737222671508789
0.5243837356567382,0.6656976699829101
0.5243837356567382,0.6656976699829101
0.5299518585205077,0.6703245162963867
0.5299518585205077,0.6703245162963867
0.5282947540283203,0.6742235183715820
0.5282947540283203,0.6742235183715820
0.5342233657836913,0.6682559967041015
0.5342233657836913,0.6682559967041015
0.5314275741577148,0.6704893112182617
0.5314275741577148,0.6704893112182617
0.5246097564697265,0.6702295303344726
0.5246097564697265,0.6702295303344726
0.5304439544677734,0.6716079711914062
0.5304439544677734,0.6716079711914062
0.5358999252319335,0.6752340316772460
0.5358999252319335,0.6752340316772460
0.5275835037231446,0.6658807754516601
0.5275835037231446,0.6658807754516601
0.5318984985351562,0.6757907867431641
0.5318984985351562,0.6757907867431641
0.5253341674804687,0.6725320816040039
0.5253341674804687,0.6725320816040039
0.5382471084594727,0.6735019683837891
0.5382471084594727,0.6735019683837891
0.5293292999267578,0.6732250213623047
0.5293292999267578,0.6732250213623047
0.5282112121582031,0.6713212966918946
0.5282112121582031,0.6713212966918946
0.5326990127563477,0.6777276992797852
0.5326990127563477,0.6777276992797852
0.5331687927246094,0.6740404129028320
0.5331687927246094,0.6740404129028320
0.5316930770874023,0.6714174270629882
0.5316930770874023,0.6714174270629882
0.5300182342529297,0.6786489486694336
0.5300182342529297,0.6786489486694336
0.5289264678955078,0.6736455917358398
0.5289264678955078,0.6736455917358398
0.5405164718627929,0.6795015335083008
0.5405164718627929,0.6795015335083008
0.5265283584594727,0.6717876434326172
0.5265283584594727,0.6717876434326172
0.5322595596313476,0.6765403747558594
0.5322595596313476,0.6765403747558594
0.5306962966918946,0.6801544189453125
0.5306962966918946,0.6801544189453125
0.5366151809692382,0.6747201919555664
0.5366151809692382,0.6747201919555664
0.5339492797851563,0.6770885467529296
0.5339492797851563,0.6770885467529296
0.5271085739135742,0.6769998550415038
0.5271085739135742,0.6769998550415038
0.5329027175903320,0.6785848617553710
0.5329027175903320,0.6785848617553710
0.5384262084960937,0.6819293975830077
0.5384262084960937,0.6819293975830077
0.5299472808837891,0.6724702835083007
0.5299472808837891,0.6724702835083007
0.5344699859619141,0.6823368072509766
0.5344699859619141,0.6823368072509766
0.5277448654174804,0.6787067413330078
0.5277448654174804,0.6787067413330078
0.5406246185302734,0.6799427032470703
0.5406246185302734,0.6799427032470703
0.5318498611450195,0.6796960830688477
0.5318498611450195,0.6796960830688477
0.5305458068847656,0.6778066635131835
0.5305458068847656,0.6778066635131835
0.5351772308349609,0.6845998764038086
0.5351772308349609,0.6845998764038086
0.5356384277343750,0.6806167602539063
0.5356384277343750,0.6806167602539063
0.5340608596801758,0.6778478622436523
0.5340608596801758,0.6778478622436523
0.5324695587158202,0.6851766586303710
0.5324695587158202,0.6851766586303710
0.5313371658325196,0.6795988082885742
0.5313371658325196,0.6795988082885742
0.5430032730102539,0.6860509872436523
0.5430032730102539,0.6860509872436523
0.5290397644042969,0.6784526824951171
0.5290397644042969,0.6784526824951171
0.5346628189086914,0.6832712173461913
0.5346628189086914,0.6832712173461913
0.5332454681396485,0.6874746322631836
0.5332454681396485,0.6874746322631836
0.5391620635986328,0.6814258575439452
0.5391620635986328,0.6814258575439452
0.5364246368408203,0.6837295532226563
0.5364246368408203,0.6837295532226563
0.5295598983764648,0.6836975097656249
0.5295598983764648,0.6836975097656249
0.5352676391601562,0.6848665237426758
0.5352676391601562,0.6848665237426758
0.5409399032592773,0.6886224746704102
0.5409399032592773,0.6886224746704102
0.5323917388916015,0.6789367675781249
0.5323917388916015,0.6789367675781249
0.5367925643920898,0.6888999938964844
0.5367925643920898,0.6888999938964844
0.5301527023315430,0.6857105255126953
0.5301527023315430,0.6857105255126953
0.5430982589721679,0.6862878799438477
0.5430982589721679,0.6862878799438477
0.5343395233154297,0.6861488342285156
0.5343395233154297,0.6861488342285156
0.5330148696899414,0.6840436935424804
0.5330148696899414,0.6840436935424804
0.5376142501831055,0.6905445098876953
0.5376142501831055,0.6905445098876953
0.5380680084228515,0.6870426177978516
0.5380680084228515,0.6870426177978516
0.5365093231201171,0.6842468261718749
0.5365093231201171,0.6842468261718749
0.5349523544311523,0.6917312622070312
0.5379776000976563,0.6917312622070312
0.5335807800292969,0.6865207672119140
0.5335807800292969,0.6865207672119140
0.5455015182495117,0.6926061630249023
0.5455015182495117,0.6926061630249023
0.5314584732055664,0.6849763870239257
0.5314584732055664,0.6849763870239257
0.5369768142700195,0.6893463134765625
0.5369768142700195,0.6893463134765625
0.5353672027587890,0.6925432205200195
0.5353672027587890,0.6925432205200195
0.5408346176147460,0.6853878021240234
0.5408346176147460,0.6853878021240234
0.5370981216430664,0.6852579116821289
0.5370981216430664,0.6852579116821289
0.5290861129760742,0.6819431304931640
0.5290861129760742,0.6819431304931640
0.5331905364990234,0.6795227050781250
0.5331905364990234,0.6795227050781250
0.5374946594238281,0.6792543411254882
0.5374946594238281,0.6792543411254882
0.5277997970581054,0.6665754318237305
0.5277997970581054,0.6665754318237305
0.5312570571899414,0.6739780426025390
0.5312570571899414,0.6739780426025390
0.5237880706787109,0.6685770034790038
0.5237880706787109,0.6685770034790038
0.5359256744384765,0.6683177947998047
0.5359256744384765,0.6683177947998047
0.5269866943359375,0.6673170089721679
0.5269866943359375,0.6673170089721679
0.5253742218017577,0.6645538330078125
0.5253742218017577,0.6645538330078125
0.5299158096313477,0.6709779739379883
0.5299158096313477,0.6709779739379883
0.5301509857177734,0.6668340682983398
0.5301509857177734,0.6668340682983398
0.5285110473632812,0.6636926651000976
0.5285110473632812,0.6636926651000976
0.5270656585693360,0.6706775665283203
0.5270656585693360,0.6706775665283203
0.5255355834960938,0.6648101806640625
0.5255355834960938,0.6648101806640625
0.5372434616088867,0.6709373474121093
0.5372434616088867,0.6709373474121093
0.5231031417846680,0.6630689620971679
0.5231031417846680,0.6630689620971679
0.5285499572753906,0.6674034118652343
0.5285499572753906,0.6674034118652343
0.5272161483764648,0.6713418960571289
0.5272161483764648,0.6713418960571289
0.5328123092651367,0.6649812698364258
0.5328123092651367,0.6649812698364258
0.5301670074462891,0.6673416137695313
0.5301670074462891,0.6673416137695313
0.5233600616455077,0.6673313140869140
0.5233600616455077,0.6673313140869140
0.5289928436279296,0.6683086395263672
0.5289928436279296,0.6683086395263672
0.5348190307617188,0.6725046157836914
0.5348190307617188,0.6725046157836914
0.5263521194458007,0.6628652572631836
0.5263521194458007,0.6628652572631836
0.5308788299560546,0.6729846954345703
0.5308788299560546,0.6729846954345703
0.5242612838745117,0.6701362609863281
0.5242612838745117,0.6701362609863281
0.5369281768798828,0.6705917358398438
0.5369281768798828,0.6705917358398438
0.5283193588256836,0.6703474044799804
0.5283193588256836,0.6703474044799804
0.5268310546875000,0.6678588867187499
0.5268310546875000,0.6678588867187499
0.5314075469970703,0.6741182327270507
0.5314075469970703,0.6741182327270507
0.5315460205078125,0.6704790115356445
0.5315460205078125,0.6704790115356445
0.5299484252929687,0.6672552108764648
0.5299484252929687,0.6672552108764648
0.5284538269042969,0.6744976043701172
0.5284538269042969,0.6744976043701172
0.5270925521850586,0.6688585281372070
0.5270925521850586,0.6688585281372070
0.5387672424316406,0.6748254776000976
0.5387672424316406,0.6748254776000976
0.5247528076171875,0.6674125671386718
0.5247528076171875,0.6674125671386718
0.5302253723144531,0.6716583251953124
0.5302253723144531,0.6716583251953124
0.5288675308227538,0.6756019592285156
0.5288675308227538,0.6756019592285156
0.5346273422241211,0.6698341369628906
0.5346273422241211,0.6698341369628906
0.5320661544799804,0.6722768783569336
0.5320661544799804,0.6722768783569336
0.5253404617309571,0.6725292205810547
0.5253404617309571,0.6725292205810547
0.5309543609619141,0.6739276885986328
0.5264013290405273,0.6739276885986328
0.5368028640747070,0.6775732040405273
0.5368028640747070,0.6775732040405273
0.5282644271850586,0.6678222656250000
0.5282644271850586,0.6678222656250000
0.5326995849609375,0.6777963638305664
0.5326995849609375,0.6777963638305664
0.5260934829711914,0.6744741439819336
0.5260934829711914,0.6744741439819336
0.5387609481811523,0.6754486083984375
0.5387609481811523,0.6754486083984375
0.5302877426147461,0.6754594802856445
0.5302877426147461,0.6754594802856445
0.5288366317749024,0.6731529235839844
0.5288366317749024,0.6731529235839844
0.5335292816162109,0.6801080703735352
0.5335292816162109,0.6801080703735352
0.5339229583740234,0.6763635635375976
0.5339229583740234,0.6763635635375976
0.5322017669677734,0.6733291625976562
0.5322017669677734,0.6733291625976562
0.5308330535888671,0.6805629730224609
0.5308330535888671,0.6805629730224609
0.5294202804565430,0.6747716903686524
0.5294202804565430,0.6747716903686524
0.5411275863647461,0.6812152862548828
0.5411275863647461,0.6812152862548828
0.5270816802978515,0.6739328384399413
0.5270816802978515,0.6739328384399413
0.5326103210449219,0.6782752990722656
0.5326103210449219,0.6782752990722656
0.5314207077026367,0.6825696945190429
0.5314207077026367,0.6825696945190429
0.5370958328247070,0.6763109207153321
0.5370958328247070,0.6763109207153321
0.5345603942871093,0.6789733886718750
0.5345603942871093,0.6789733886718750
0.5276830673217773,0.6790866851806641
0.5276830673217773,0.6790866851806641
0.5332826614379883,0.6800188064575196
0.5332826614379883,0.6800188064575196
0.5392272949218749,0.6840253829956054
0.5392272949218749,0.6840253829956054
0.5304336547851562,0.6740884780883789
0.5304336547851562,0.6740884780883789
0.5350061416625976,0.6840711593627929
0.5350061416625976,0.6840711593627929
0.5282609939575195,0.6813617706298828
0.5282609939575195,0.6813617706298828
0.5410749435424804,0.6817903518676758
0.5410749435424804,0.6817903518676758
0.5326217651367188,0.6819974899291992
0.5326217651367188,0.6819974899291992
0.5311889648437500,0.6795278549194336
0.5311889648437500,0.6795278549194336
0.5358695983886719,0.6860046386718750
0.5358695983886719,0.6860046386718750
0.5363353729248047,0.6828472137451171
0.5363353729248047,0.6828472137451171
0.5345146179199218,0.6798797607421875
0.5345146179199218,0.6798797607421875
0.5333032608032227,0.6874197006225585
0.5333032608032227,0.6864789962768555
0.5355800628662110,0.6811145782470703
0.5310310363769531,0.6863456726074219
0.5442083358764648,0.6863456726074219
0.5336946487426758,0.6829942703247071
0.5336946487426758,0.6829942703247071
0.5353923797607422,0.6877389907836914
0.5353923797607422,0.6877389907836914
0.5309875488281249,0.6829765319824218
0.5309875488281249,0.6829765319824218
0.5364961624145508,0.6871164321899413
0.5364961624145508,0.6871164321899413
0.5324769973754883,0.6878431320190429
0.5324769973754883,0.6878431320190429
0.5334800720214844,0.6841329574584961
0.5334800720214844,0.6841329574584961
0.5357408523559570,0.6911659240722656
0.5357408523559570,0.6911659240722656
0.5317880630493164,0.6834217071533203
0.5317880630493164,0.6834217071533203
0.5374402999877930,0.6884422302246094
0.5374402999877930,0.6884422302246094
0.5318326950073242,0.6879152297973633
0.5318326950073242,0.6879152297973633
0.5339178085327149,0.6866575241088867
0.5339178085327149,0.6866575241088867
0.5365505218505859,0.6918462753295899
0.5365505218505859,0.6918462753295899
0.5331115722656250,0.6850639343261719
0.5331115722656250,0.6850639343261719
0.5374752044677734,0.6899356842041016
0.5374752044677734,0.6899356842041016
0.5324026107788086,0.6918920516967774
0.5324026107788086,0.6918920516967774
0.5349912643432617,0.6878379821777344
0.5349912643432617,0.6878379821777344
0.5377321243286133,0.6937271118164062
0.5377321243286133,0.6937271118164062
0.5326698303222656,0.6852098464965820
0.5326698303222656,0.6852098464965820
0.5374254226684571,0.6913890838623047
0.5325651168823242,0.6913890838623047
0.5324357986450196,0.6893583297729492
0.5324357986450196,0.6893583297729492
0.5342130661010742,0.6832517623901367
0.5282878875732422,0.6832517623901367
0.5343400955200195,0.6855005264282227
0.5343400955200195,0.6855005264282227
0.5284990310668946,0.6761896133422851
0.5284990310668946,0.6761896133422851
0.5327527999877929,0.6770090103149414
0.5327527999877929,0.6770090103149414
0.5273271560668945,0.6751871109008789
0.5273271560668945,0.6751871109008789
0.5280384063720703,0.6684213638305664
0.5280384063720703,0.6684213638305664
0.5295301437377929,0.6750040054321289
0.5295301437377929,0.6750040054321289
0.5251819610595703,0.6663333892822265
0.5251819610595703,0.6663333892822265
0.5309514999389648,0.6706449508666992
0.5252317428588867,0.6706449508666992
0.5249090194702148,0.6706958770751953
0.5249090194702148,0.6706958770751953
0.5268739700317383,0.6681947708129883
0.5268739700317383,0.6681947708129883
0.5295690536499024,0.6731409072875977
0.5295690536499024,0.6731409072875977
0.5256288528442382,0.6661994934082031
0.5256288528442382,0.6661994934082031
0.5302139282226562,0.6696538925170898
0.5302139282226562,0.6696538925170898
0.5251401901245117,0.6724679946899413
0.5251401901245117,0.6724679946899413
0.5274656295776367,0.6679321289062500
0.5274656295776367,0.6679321289062500
0.5306224822998047,0.6736862182617187
0.5306224822998047,0.6736862182617187
0.5251585006713867,0.6664014816284179
0.5251585006713867,0.6664014816284179
0.5300909042358398,0.6722522735595703
0.5300909042358398,0.6722522735595703
0.5256917953491210,0.6720920562744140
0.5256917953491210,0.6720920562744140
0.5281803131103515,0.6686153411865234
0.5281803131103515,0.6686153411865234
0.5299982070922852,0.6733606338500976
0.5299982070922852,0.6733606338500976
0.5256099700927734,0.6689031600952148
0.5256099700927734,0.6689031600952148
0.5312152862548828,0.6730939865112304
0.5312152862548828,0.6730939865112304
0.5273574829101563,0.6740856170654297
0.5273574829101563,0.6740856170654297
0.5284343719482422,0.6705900192260742
0.5284343719482422,0.6705900192260742
0.5306018829345703,0.6775211334228516
0.5306018829345703,0.6775211334228516
0.5265403747558594,0.6698816299438476
0.5265403747558594,0.6698816299438476
0.5320821762084961,0.6745107650756835
0.5320821762084961,0.6745107650756835
0.5267629623413086,0.6738246917724610
0.5267629623413086,0.6738246917724610
0.5284727096557617,0.6722511291503906
0.5284727096557617,0.6722511291503906
0.5312473297119140,0.6771160125732422
0.5312473297119140,0.6771160125732422
0.5275772094726562,0.6701900482177734
0.5275772094726562,0.6701900482177734
0.5316747665405274,0.6746229171752930
0.5316747665405274,0.6746229171752930
0.5267692565917969,0.6764122009277344
0.5267692565917969,0.6764122009277344
0.5290878295898437,0.6721075057983398
0.5290878295898437,0.6721075057983398
0.5318744659423827,0.6779434204101562
0.5318744659423827,0.6779434204101562
0.5269100189208984,0.6699394226074219
0.5269100189208984,0.6699394226074219
0.5318006515502930,0.6767635345458984
0.5318006515502930,0.6767635345458984
0.5276447296142578,0.6769374847412110
0.5276447296142578,0.6769374847412110
0.5304965972900391,0.6736324310302734
0.5304965972900391,0.6736324310302734
