REDsignal,IRsignal
0.5325593948364258,0.7503587722778320
0.5325593948364258,0.7503587722778320
0.5326349258422851,0.7482141494750977
0.5326349258422851,0.7482141494750977
0.5340167999267578,0.7502883911132813
0.5340167999267578,0.7502883911132813
0.5320032119750976,0.7486513137817382
0.5320032119750976,0.7486513137817382
0.5335035324096680,0.7500463485717773
0.5335035324096680,0.7500463485717773
0.5326023101806641,0.7492761611938477
0.5326023101806641,0.7492761611938477
0.5322435379028320,0.7466382980346680
0.5322435379028320,0.7466382980346680
0.5327276229858399,0.7460472106933593
0.5327276229858399,0.7460472106933593
0.5301137924194336,0.7438327789306640
0.5301137924194336,0.7438327789306640
0.5304582595825195,0.7411743164062500
0.5304582595825195,0.7411743164062500
0.5289768218994141,0.7395996093750000
0.5289768218994141,0.7395996093750000
0.5280550003051757,0.7366207122802734
0.5280550003051757,0.7366207122802734
0.5290134429931640,0.7380701065063476
0.5290134429931640,0.7380701065063476
0.5268968582153321,0.7349939346313477
0.5268968582153321,0.7349939346313477
0.5279777526855468,0.7348394393920898
0.5279777526855468,0.7348394393920898
0.5268396377563477,0.7342260360717773
0.5268396377563477,0.7342260360717773
0.5267595291137696,0.7339176177978516
0.5267595291137696,0.7339176177978516
0.5278192520141601,0.7342506408691406
0.5278192520141601,0.7342506408691406
0.5258148193359374,0.7324029922485351
0.5258148193359374,0.7324029922485351
0.5268270492553710,0.7323509216308594
0.5268270492553710,0.7323509216308594
0.5260786056518555,0.7337247848510742
0.5260786056518555,0.7337247848510742
0.5280246734619141,0.7313243865966796
0.5280246734619141,0.7313243865966796
0.5280246734619141,0.7317764282226562
0.5262096405029296,0.7291288375854492
0.5262096405029296,0.7291288375854492
0.5264511108398438,0.7330816268920898
0.5264511108398438,0.7330816268920898
0.5258806228637695,0.7317701339721679
0.5258806228637695,0.7317701339721679
0.5299037933349610,0.7326370239257812
0.5299037933349610,0.7326370239257812
0.5262262344360351,0.7306331634521485
0.5262262344360351,0.7306331634521485
0.5268230438232422,0.7330415725708007
0.5268230438232422,0.7330415725708007
0.5273283004760742,0.7353979110717773
0.5273283004760742,0.7353979110717773
0.5288778305053711,0.7338958740234375
0.5288778305053711,0.7338958740234375
0.5285282135009766,0.7324293136596679
0.5285282135009766,0.7324293136596679
0.5269889831542969,0.7345865249633788
0.5269889831542969,0.7345865249633788
0.5275056838989257,0.7345933914184570
0.5275056838989257,0.7345933914184570
0.5299352645874024,0.7361480712890625
0.5299352645874024,0.7361480712890625
0.5271314620971680,0.7325071334838867
0.5271314620971680,0.7325071334838867
0.5287479400634766,0.7354122161865234
0.5287479400634766,0.7354122161865234
0.5272813796997070,0.7357686996459961
0.5272813796997070,0.7357686996459961
0.5298694610595703,0.7351409912109375
0.5298694610595703,0.7351409912109375
0.5280733108520508,0.7348165512084961
0.5280733108520508,0.7348165512084961
0.5274084091186523,0.7356576919555664
0.5274084091186523,0.7356576919555664
0.5291736602783202,0.7365234374999999
0.5291736602783202,0.7365234374999999
0.5299695968627930,0.7366430282592773
0.5299695968627930,0.7366430282592773
0.5281763076782227,0.7345350265502929
0.5281763076782227,0.7345350265502929
0.5287485122680664,0.7388957977294922
0.5287485122680664,0.7388957977294922
0.5281986236572266,0.7379968643188476
0.5281986236572266,0.7379968643188476
0.5321376800537109,0.7385793685913086
0.5321376800537109,0.7385793685913086
0.5285482406616211,0.7366241455078125
0.5285482406616211,0.7366241455078125
0.5290151596069336,0.7388820648193359
0.5290151596069336,0.7388820648193359
0.5295827865600585,0.7411405563354492
0.5295827865600585,0.7411405563354492
0.5311786651611328,0.7399171829223633
0.5311786651611328,0.7399171829223633
0.5308015823364257,0.7385473251342773
0.5308015823364257,0.7385473251342773
0.5293968200683593,0.7410861968994140
0.5293968200683593,0.7410861968994140
0.5299472808837891,0.7415222167968750
0.5299472808837891,0.7415222167968750
0.5325777053833007,0.7431896209716796
0.5325777053833007,0.7431896209716796
0.5297779083251953,0.7398513793945313
0.5297779083251953,0.7398513793945313
0.5314979553222656,0.7429401397705078
0.5314979553222656,0.7429401397705078
0.5303392410278320,0.7433418273925781
0.5303392410278320,0.7433418273925781
0.5330331802368163,0.7434144973754883
0.5330331802368163,0.7434144973754883
0.5312873840332031,0.7431787490844727
0.5312873840332031,0.7431787490844727
0.5306373596191406,0.7442247390747070
0.5306373596191406,0.7442247390747070
0.5325359344482422,0.7454847335815430
0.5325359344482422,0.7454847335815430
0.5333358764648437,0.7453348159790039
0.5333358764648437,0.7453348159790039
0.5314361572265625,0.7429824829101562
0.5314361572265625,0.7429824829101562
0.5320484161376953,0.7472677230834961
0.5320484161376953,0.7472677230834961
0.5314556121826172,0.7460260391235352
0.5314556121826172,0.7460260391235352
0.5354061126708984,0.7468151092529297
0.5354061126708984,0.7468151092529297
0.5316724777221680,0.7447671890258789
0.5316724777221680,0.7447671890258789
0.5321428298950195,0.7470170974731445
0.5321428298950195,0.7470170974731445
0.5326955795288085,0.7493139266967773
0.5326955795288085,0.7493139266967773
0.5343904495239258,0.7477815628051757
0.5343904495239258,0.7477815628051757
0.5339097976684570,0.7463024139404296
0.5336397171020507,0.7463024139404296
0.5324529647827149,0.7487405776977539
0.5324529647827149,0.7487405776977539
0.5330240249633789,0.7489253997802734
0.5330240249633789,0.7489253997802734
0.5356481552124023,0.7508743286132812
0.5356481552124023,0.7508743286132812
0.5329067230224609,0.7471549987792968
0.5329067230224609,0.7471549987792968
0.5346347808837890,0.7503513336181641
0.5346347808837890,0.7503513336181641
0.5331773757934570,0.7507186889648437
0.5331773757934570,0.7507186889648437
0.5358140945434570,0.7501321792602539
0.5358140945434570,0.7501321792602539
0.5337764739990234,0.7494712829589844
0.5337764739990234,0.7494712829589844
0.5330291748046875,0.7497110366821289
0.5330291748046875,0.7497110366821289
0.5344699859619141,0.7494392395019531
0.5344699859619141,0.7494392395019531
0.5345523834228515,0.7477861404418945
0.5345523834228515,0.7477861404418945
0.5318407058715821,0.7432668685913085
0.5318407058715821,0.7432668685913085
0.5312158584594726,0.7446722030639649
0.5312158584594726,0.7446722030639649
0.5295186996459961,0.7408555984497071
0.5295186996459961,0.7408555984497071
0.5326372146606445,0.7389261245727539
0.5326372146606445,0.7389261245727539
0.5280630111694335,0.7349550247192382
0.5280630111694335,0.7349550247192382
0.5280458450317382,0.7358585357666015
0.5280458450317382,0.7358585357666015
0.5280109405517578,0.7367036819458007
0.5280109405517578,0.7367036819458007
0.5292263031005859,0.7342969894409179
0.5292263031005859,0.7342969894409179
0.5283599853515625,0.7320230484008788
0.5283599853515625,0.7320230484008788
0.5264791488647461,0.7333986282348632
0.5264791488647461,0.7333986282348632
0.5266370773315430,0.7327423095703125
0.5266370773315430,0.7327423095703125
0.5289768218994141,0.7335628509521485
0.5289768218994141,0.7335628509521485
0.5258468627929688,0.7292604446411133
0.5258468627929688,0.7292604446411133
0.5273580551147461,0.7315578460693359
0.5273580551147461,0.7315578460693359
0.5255304336547851,0.7310050964355469
0.5255304336547851,0.7310050964355469
0.5280412673950196,0.7301954269409180
0.5280412673950196,0.7301954269409180
0.5259973526000976,0.7294984817504883
0.5259973526000976,0.7294984817504883
0.5252620697021484,0.7300844192504883
0.5252620697021484,0.7300844192504883
0.5270273208618164,0.7311235427856445
0.5270273208618164,0.7311235427856445
0.5276979446411133,0.7309381484985351
0.5276979446411133,0.7309381484985351
0.5260351181030273,0.7288352966308593
0.5260351181030273,0.7288352966308593
0.5265518188476562,0.7329746246337890
0.5265518188476562,0.7329746246337890
0.5259304046630859,0.7318284988403320
0.5259304046630859,0.7318284988403320
0.5300537109375000,0.7327766418457031
0.5300537109375000,0.7327766418457031
0.5262279510498047,0.7306549072265625
0.5262279510498047,0.7306549072265625
0.5266353607177734,0.7326879501342773
0.5266353607177734,0.7326879501342773
0.5271566390991210,0.7349515914916992
0.5271566390991210,0.7349515914916992
0.5286306381225586,0.7331542968750000
0.5286306381225586,0.7331542968750000
0.5282175064086914,0.7316150665283203
0.5282175064086914,0.7316150665283203
0.5266433715820312,0.7337682723999023
0.5266433715820312,0.7337682723999023
0.5270725250244140,0.7336320877075195
0.5270725250244140,0.7336320877075195
0.5297401428222656,0.7354333877563476
0.5297401428222656,0.7354333877563476
0.5268545150756836,0.7318428039550781
0.5268545150756836,0.7318428039550781
0.5285728454589843,0.7348915100097656
0.5285728454589843,0.7348915100097656
0.5270427703857422,0.7353967666625977
0.5270427703857422,0.7353967666625977
0.5297956466674805,0.7350139617919922
0.5266530990600585,0.7350139617919922
0.5280401229858398,0.7347742080688476
0.5280401229858398,0.7347742080688476
0.5274421691894531,0.7356817245483398
0.5274421691894531,0.7356817245483398
0.5292371749877930,0.7368736267089844
0.5292371749877930,0.7368736267089844
0.5300863265991210,0.7370887756347656
0.5300863265991210,0.7370887756347656
0.5283462524414062,0.7348772048950195
0.5283462524414062,0.7348772048950195
0.5288114547729492,0.7392156600952148
0.5289888381958008,0.7392156600952148
0.5283502578735352,0.7384351730346680
0.5280149459838867,0.7384351730346680
0.5324249267578125,0.7391103744506836
0.5324249267578125,0.7391103744506836
0.5287153244018554,0.7371288299560547
0.5287153244018554,0.7371288299560547
0.5293184280395508,0.7395320892333984
0.5284269332885742,0.7395320892333984
0.5298271179199219,0.7416561126708984
0.5297956466674805,0.7416561126708984
0.5315534591674804,0.7403738021850585
0.5315534591674804,0.7403738021850585
0.5310533523559570,0.7392608642578125
0.5310533523559570,0.7392608642578125
0.5295021057128906,0.7418169021606446
0.5295021057128906,0.7418169021606446
0.5302402496337890,0.7422672271728515
0.5302402496337890,0.7422672271728515
0.5329639434814453,0.7440496444702148
0.5329639434814453,0.7440496444702148
0.5301292419433593,0.7405654907226562
0.5301292419433593,0.7405654907226562
0.5320089340209960,0.7438470840454101
0.5320089340209960,0.7438470840454101
0.5305789947509766,0.7441154479980469
0.5305789947509766,0.7441154479980469
0.5333673477172851,0.7440862655639648
0.5333673477172851,0.7440862655639648
0.5314722061157227,0.7438219070434570
0.5314722061157227,0.7438219070434570
0.5309846878051757,0.7448953628540039
0.5309846878051757,0.7448953628540039
0.5328678131103516,0.7461982727050781
0.5328678131103516,0.7461982727050781
0.5335687637329102,0.7460735321044921
0.5335687637329102,0.7460735321044921
0.5317794799804687,0.7437086105346680
0.5317794799804687,0.7437086105346680
0.5323310852050781,0.7480762481689452
0.5323310852050781,0.7480762481689452
0.5317846298217773,0.7467973709106445
0.5317846298217773,0.7467973709106445
0.5359291076660156,0.7477649688720703
0.5359291076660156,0.7477649688720703
0.5320678710937500,0.7456695556640625
0.5320678710937500,0.7456695556640625
0.5325559616088867,0.7478948593139648
0.5325559616088867,0.7478948593139648
0.5331150054931640,0.7502128601074218
0.5331150054931640,0.7502128601074218
0.5347887039184570,0.7486392974853515
0.5347887039184570,0.7486392974853515
0.5342931747436523,0.7472705841064453
0.5342931747436523,0.7472705841064453
0.5327442169189452,0.7497007369995117
0.5327442169189452,0.7497007369995117
0.5333026885986328,0.7496778488159179
0.5333026885986328,0.7496778488159179
0.5360504150390625,0.7514122009277343
0.5360504150390625,0.7514122009277343
0.5329942703247070,0.7473695755004882
0.5329942703247070,0.7473695755004882
0.5344224929809570,0.7499439239501953
0.5344224929809570,0.7499439239501953
0.5326395034790039,0.7492383956909180
0.5326395034790039,0.7492383956909180
0.5348276138305664,0.7472047805786133
0.5348276138305664,0.7472047805786133
0.5321193695068359,0.7446533203125000
0.5321193695068359,0.7446533203125000
0.5305498123168945,0.7429206848144531
0.5305498123168945,0.7429206848144531
0.5312971115112305,0.7411645889282227
0.5312971115112305,0.7411645889282227
0.5310447692871093,0.7387865066528320
0.5310447692871093,0.7387865066528320
0.5285041809082031,0.7348817825317383
0.5285041809082031,0.7348817825317383
0.5284292221069335,0.7378332138061523
0.5284292221069335,0.7378332138061523
0.5273872375488281,0.7356788635253906
0.5273872375488281,0.7356788635253906
0.5311477661132812,0.7352983474731445
0.5311477661132812,0.7352983474731445
0.5268579483032226,0.7323125839233399
0.5268579483032226,0.7323125839233399
0.5270982742309570,0.7336870193481445
0.5270982742309570,0.7336870193481445
0.5273368835449218,0.7348915100097656
0.5273368835449218,0.7348915100097656
0.5286169052124023,0.7327857971191406
0.5286169052124023,0.7327857971191406
0.5278759002685547,0.7307945251464844
0.5278759002685547,0.7307945251464844
0.5274381637573242,0.7335874557495117
0.5274381637573242,0.7340538024902343
0.5254428863525390,0.7315801620483399
0.5254428863525390,0.7315801620483399
0.5268150329589844,0.7319297790527344
0.5268150329589844,0.7319297790527344
0.5260379791259765,0.7320648193359375
0.5260379791259765,0.7320648193359375
0.5261106491088867,0.7323823928833008
0.5261106491088867,0.7323823928833008
0.5275417327880859,0.7337064743041992
0.5275417327880859,0.7337064743041992
0.5259195327758789,0.7326484680175781
0.5259195327758789,0.7326484680175781
0.5270925521850586,0.7334661483764648
0.5270925521850586,0.7334661483764648
0.5268779754638672,0.7356451034545898
0.5268779754638672,0.7356451034545898
0.5269231796264648,0.7338346481323242
0.5269231796264648,0.7338346481323242
0.5284681320190430,0.7357938766479492
0.5284681320190430,0.7357938766479492
0.5264631271362304,0.7339199066162109
0.5264631271362304,0.7339199066162109
0.5280086517333984,0.7361612319946289
0.5280086517333984,0.7361612319946289
0.5274135589599609,0.7363059997558593
0.5274135589599609,0.7363059997558593
0.5274570465087890,0.7349023818969727
0.5274570465087890,0.7349023818969727
0.5287130355834960,0.7367860794067382
0.5287130355834960,0.7367860794067382
0.5271102905273437,0.7365383148193360
0.5271102905273437,0.7365383148193360
0.5283605575561523,0.7363929748535156
0.5283605575561523,0.7363929748535156
0.5280080795288086,0.7374847412109374
0.5280080795288086,0.7374847412109374
0.5278427124023437,0.7356433868408203
0.5278427124023437,0.7356433868408203
0.5293310165405273,0.7390251159667969
0.5290643692016601,0.7390251159667969
0.5276241302490234,0.7370779037475585
0.5276241302490234,0.7370779037475585
0.5290557861328125,0.7380598068237304
0.5290557861328125,0.7380598068237304
0.5285007476806640,0.7390771865844726
0.5285007476806640,0.7390771865844726
0.5286008834838867,0.7390777587890625
0.5286008834838867,0.7390777587890625
0.5300868988037110,0.7403800964355468
0.5300868988037110,0.7403800964355468
0.5285488128662109,0.7393363952636719
0.5285488128662109,0.7393363952636719
0.5297756195068359,0.7397426605224610
0.5297756195068359,0.7397426605224610
0.5295295715332031,0.7424314498901367
0.5295295715332031,0.7424314498901367
0.5295787811279297,0.7406106948852539
0.5295787811279297,0.7406106948852539
0.5312112808227539,0.7428428649902343
0.5312112808227539,0.7428428649902343
0.5293344497680664,0.7415582656860351
0.5293344497680664,0.7415582656860351
0.5307403564453125,0.7434980392456054
0.5307403564453125,0.7434980392456054
0.5303466796874999,0.7439140319824219
0.5303466796874999,0.7439140319824219
0.5304817199707031,0.7427707672119140
0.5304817199707031,0.7427707672119140
0.5317485809326171,0.7443489074707031
0.5317485809326171,0.7443489074707031
0.5301069259643555,0.7448575973510742
0.5301069259643555,0.7448575973510742
0.5315906524658203,0.7448965072631836
0.5315906524658203,0.7448965072631836
0.5312273025512695,0.7460884094238281
0.5312273025512695,0.7460884094238281
0.5311128616333007,0.7448158264160156
0.5311128616333007,0.7448158264160156
0.5327459335327148,0.7478485107421875
0.5327459335327148,0.7478485107421875
0.5310796737670899,0.7459779739379883
0.5310796737670899,0.7459779739379883
0.5325862884521484,0.7467887878417968
0.5325862884521484,0.7467887878417968
0.5318441390991211,0.7472293853759765
0.5318441390991211,0.7472293853759765
0.5319442749023438,0.7474502563476563
0.5319442749023438,0.7474502563476563
0.5334869384765625,0.7488521575927735
0.5334869384765625,0.7488521575927735
0.5317926406860352,0.7476774215698242
0.5317926406860352,0.7476774215698242
0.5329719543457031,0.7484361648559570
0.5329719543457031,0.7484361648559570
0.5325525283813476,0.7504234313964844
0.5325525283813476,0.7504234313964844
0.5327104568481446,0.7486501693725586
0.5327104568481446,0.7486501693725586
0.5343561172485352,0.7506471633911133
0.5343561172485352,0.7506471633911133
0.5324432373046875,0.7489265441894531
0.5324432373046875,0.7489265441894531
0.5339017868041992,0.7512205123901367
0.5339017868041992,0.7512205123901367
0.5334062576293945,0.7514202117919921
0.5334062576293945,0.7514202117919921
0.5334486007690430,0.7500841140747070
0.5323356628417969,0.7500841140747070
0.5346073150634766,0.7516119003295898
0.5346073150634766,0.7516119003295898
0.5327911376953125,0.7509212493896484
0.5327911376953125,0.7509212493896484
0.5337358474731445,0.7498935699462891
0.5337358474731445,0.7498935699462891
0.5328449249267578,0.7492412567138672
0.5328449249267578,0.7492412567138672
0.5318235397338867,0.7454778671264648
0.5318235397338867,0.7454778671264648
0.5324043273925781,0.7464385986328125
0.5324043273925781,0.7464385986328125
0.5297401428222656,0.7418540954589844
0.5297401428222656,0.7418540954589844
0.5300634384155273,0.7401741027832031
0.5300634384155273,0.7401741027832031
0.5286455154418945,0.7391893386840820
0.5286455154418945,0.7391893386840820
0.5281574249267578,0.7375162124633788
0.5281574249267578,0.7375162124633788
0.5291770935058594,0.7377244949340820
0.5291770935058594,0.7377244949340820
0.5273151397705078,0.7356885910034180
0.5273151397705078,0.7356885910034180
0.5280504226684570,0.7350757598876952
0.5280504226684570,0.7350757598876952
0.5273220062255859,0.7369319915771484
0.5273220062255859,0.7369319915771484
0.5270633697509766,0.7341676712036133
0.5270633697509766,0.7341676712036133
0.5283662796020507,0.7354997634887696
0.5283662796020507,0.7354997634887696
0.5262491226196289,0.7334741592407227
0.5262491226196289,0.7334741592407227
0.5274398803710937,0.7346940994262695
0.5274398803710937,0.7346940994262695
0.5267538070678711,0.7344474792480469
0.5267538070678711,0.7344474792480469
0.5266450881958008,0.7328464508056640
0.5266450881958008,0.7328464508056640
0.5278083801269531,0.7340034484863281
0.5278083801269531,0.7340034484863281
0.5262153625488281,0.7341762542724609
0.5262153625488281,0.7341762542724609
0.5274684906005859,0.7341178894042969
0.5274684906005859,0.7341178894042969
0.5271303176879882,0.7354116439819336
0.5271303176879882,0.7354116439819336
0.5269861221313477,0.7341259002685546
0.5269861221313477,0.7341259002685546
0.5285779953002929,0.7372730255126952
0.5285779953002929,0.7372730255126952
0.5268779754638672,0.7354339599609375
0.5268779754638672,0.7354339599609375
0.5283639907836913,0.7360485076904296
0.5283639907836913,0.7360485076904296
0.5276704788208008,0.7364318847656249
0.5276704788208008,0.7364318847656249
0.5276355743408203,0.7365840911865235
0.5276355743408203,0.7365840911865235
0.5290666580200195,0.7375946044921875
0.5290666580200195,0.7375946044921875
0.5273351669311523,0.7362636566162110
0.5273351669311523,0.7362636566162110
0.5283828735351562,0.7367265701293945
0.5283828735351562,0.7367265701293945
0.5280429840087890,0.7386371612548828
0.5280429840087890,0.7386371612548828
0.5280183792114258,0.7364347457885742
0.5280183792114258,0.7364347457885742
0.5294906616210937,0.7384048461914062
0.5294906616210937,0.7384048461914062
0.5275051116943359,0.7364685058593750
0.5275051116943359,0.7364685058593750
0.5288160324096679,0.7387401580810546
0.5288160324096679,0.7387401580810546
0.5284034729003906,0.7389593124389648
0.5284034729003906,0.7389593124389648
0.5284469604492187,0.7378549575805664
0.5284469604492187,0.7378549575805664
0.5298185348510742,0.7398021697998046
0.5298185348510742,0.7398021697998046
0.5282335281372070,0.7398450851440429
0.5282335281372070,0.7398450851440429
0.5295450210571289,0.7398330688476562
0.5295450210571289,0.7398330688476562
0.5293453216552734,0.7410753250122070
0.5293453216552734,0.7410753250122070
0.5291181564331054,0.7391996383666992
0.5291181564331054,0.7391996383666992
0.5306631088256836,0.7428594589233398
0.5306631088256836,0.7428594589233398
0.5290655136108399,0.7410861968994140
0.5325141906738281,0.7410861968994140
0.5303976058959960,0.7419284820556641
0.5303976058959960,0.7419284820556641
0.5299009323120117,0.7430128097534180
0.5299009323120117,0.7430128097534180
0.5300731658935547,0.7428955078125000
0.5291976928710938,0.7428955078125000
0.5315683364868163,0.7441949844360352
0.5315683364868163,0.7441949844360352
0.5301040649414063,0.7431146621704101
0.5301040649414063,0.7431146621704101
0.5310630798339844,0.7433469772338867
0.5310630798339844,0.7433469772338867
0.5309080123901367,0.7460964202880859
0.5309080123901367,0.7460964202880859
0.5308696746826171,0.7441555023193359
0.5308696746826171,0.7441555023193359
0.5324489593505859,0.7463087081909180
0.5324489593505859,0.7463087081909180
0.5306396484375000,0.7450172424316406
0.5306396484375000,0.7450172424316406
0.5320255279541015,0.7467590332031250
0.5320255279541015,0.7467590332031250
0.5315711975097656,0.7470897674560547
0.5315711975097656,0.7470897674560547
0.5316764831542968,0.7457639694213867
0.5316764831542968,0.7457639694213867
0.5328781127929687,0.7471641540527344
0.5328781127929687,0.7471641540527344
0.5312902450561523,0.7476093292236328
0.5312902450561523,0.7476093292236328
0.5326246261596680,0.7474994659423828
0.5326246261596680,0.7474994659423828
0.5322664260864257,0.7487651824951171
0.5322664260864257,0.7487651824951171
0.5320724487304688,0.7473163604736328
0.5320724487304688,0.7473163604736328
0.5337398529052734,0.7504383087158203
0.5337398529052734,0.7504383087158203
0.5321062088012695,0.7485437393188477
0.5321062088012695,0.7485437393188477
0.5334583282470703,0.7493568420410156
0.5334583282470703,0.7493568420410156
0.5329038619995117,0.7500034332275390
0.5329038619995117,0.7500034332275390
0.5329244613647460,0.7502054214477539
0.5329244613647460,0.7502054214477539
0.5344184875488281,0.7512674331665039
0.5366323471069335,0.7512674331665039
0.5327768325805664,0.7500314712524414
0.5327768325805664,0.7500314712524414
0.5336820602416992,0.7501853942871094
0.5336820602416992,0.7501853942871094
0.5332088470458984,0.7516777038574218
0.5332088470458984,0.7516777038574218
0.5326326370239257,0.7482181549072265
0.5326326370239257,0.7482181549072265
0.5335779190063477,0.7484018325805664
0.5335779190063477,0.7484018325805664
0.5308502197265624,0.7444570541381835
0.5308502197265624,0.7444570541381835
0.5310155868530273,0.7436931610107421
0.5310155868530273,0.7436931610107421
0.5295587539672851,0.7413042068481445
0.5295587539672851,0.7413042068481445
0.5286563873291016,0.7378137588500976
0.5286563873291016,0.7378137588500976
0.5293258666992188,0.7382028579711913
0.5293258666992188,0.7382028579711913
0.5271394729614257,0.7367500305175781
0.5271394729614257,0.7367500305175781
0.5280086517333984,0.7355472564697265
0.5280086517333984,0.7355472564697265
0.5273546218872071,0.7359025955200195
0.5273546218872071,0.7359025955200195
0.5267498016357421,0.7329648971557617
0.5267498016357421,0.7329648971557617
0.5280630111694335,0.7355243682861328
0.5280630111694335,0.7355243682861328
0.5260414123535156,0.7327898025512695
0.5260414123535156,0.7327898025512695
0.5270112991333008,0.7327056884765625
0.5270112991333008,0.7327056884765625
0.5261644363403321,0.7331405639648437
0.5270479202270507,0.7331405639648437
0.5259738922119140,0.7319709777832031
0.5259738922119140,0.7319709777832031
0.5271137237548827,0.7326330184936524
0.5271137237548827,0.7326330184936524
0.5254297256469727,0.7308643341064452
0.5254297256469727,0.7308643341064452
0.5262044906616211,0.7305685043334961
0.5262044906616211,0.7305685043334961
0.5258560180664062,0.7330226898193359
0.5258560180664062,0.7330226898193359
0.5281763076782227,0.7320390701293945
0.5273649215698242,0.7320390701293945
0.5262331008911133,0.7298194885253906
0.5253061294555664,0.7298194885253906
0.5268774032592773,0.7341894149780274
0.5268774032592773,0.7341894149780274
0.5262834548950195,0.7332252502441406
0.5262834548950195,0.7332252502441406
0.5304737091064453,0.7339399337768554
0.5304737091064453,0.7339399337768554
0.5264350891113281,0.7318176269531250
0.5264350891113281,0.7318176269531250
0.5269002914428711,0.7336286544799805
0.5269002914428711,0.7336286544799805
0.5274971008300781,0.7356691360473633
0.5274971008300781,0.7356691360473633
0.5292411804199219,0.7339771270751952
0.5265243530273437,0.7339771270751952
0.5284389495849610,0.7326341629028320
0.5284389495849610,0.7326341629028320
0.5268138885498047,0.7348251342773438
0.5268138885498047,0.7348251342773438
0.5273323059082031,0.7348176956176757
0.5273323059082031,0.7348176956176757
0.5302436828613281,0.7364530563354492
0.5277585983276367,0.7364530563354492
0.5271011352539062,0.7328207015991210
0.5271011352539062,0.7328207015991210
0.5287679672241211,0.7357063293457031
0.5287679672241211,0.7357063293457031
0.5272853851318359,0.7361349105834961
0.5272853851318359,0.7361349105834961
0.5302110671997070,0.7359764099121093
0.5302110671997070,0.7359764099121093
0.5283256530761719,0.7358093261718750
0.5283256530761719,0.7358093261718750
0.5277053833007812,0.7367042541503906
0.5277053833007812,0.7367042541503906
0.5294763565063476,0.7380386352539062
0.5294763565063476,0.7380386352539062
0.5304325103759765,0.7381101608276367
0.5304325103759765,0.7381101608276367
0.5285247802734375,0.7357292175292969
0.5285247802734375,0.7357292175292969
0.5291221618652343,0.7401866912841797
0.5291221618652343,0.7401866912841797
0.5285505294799805,0.7389804840087890
0.5285505294799805,0.7389804840087890
0.5328483581542969,0.7399320602416992
0.5328483581542969,0.7399320602416992
0.5288818359374999,0.7381753921508789
0.5288818359374999,0.7381753921508789
0.5294837951660156,0.7403217315673828
0.5294837951660156,0.7403217315673828
0.5301578521728515,0.7428119659423827
0.5301578521728515,0.7428119659423827
0.5319917678833007,0.7412847518920899
0.5319917678833007,0.7412847518920899
0.5311752319335937,0.7400997161865234
0.5311752319335937,0.7400997161865234
0.5297361373901367,0.7424806594848633
0.5297361373901367,0.7424806594848633
0.5302694320678710,0.7424560546875000
0.5302694320678710,0.7424560546875000
0.5334182739257812,0.7446956634521484
0.5334182739257812,0.7446956634521484
0.5302728652954102,0.7411994934082031
0.5302728652954102,0.7411994934082031
0.5318773269653320,0.7443471908569336
0.5318773269653320,0.7443471908569336
0.5305492401123046,0.7450973510742187
0.5305492401123046,0.7450973510742187
0.5336351394653320,0.7445566177368164
0.5336351394653320,0.7445566177368164
0.5317623138427734,0.7445886611938476
0.5317623138427734,0.7445886611938476
0.5311386108398437,0.7454692840576171
0.5311386108398437,0.7454692840576171
0.5328729629516601,0.7464717864990235
0.5328729629516601,0.7464717864990235
0.5338977813720703,0.7467658996582031
0.5338977813720703,0.7467658996582031
0.5319328308105469,0.7443357467651367
0.5319328308105469,0.7443357467651367
0.5325302124023438,0.7486845016479492
0.5325302124023438,0.7486845016479492
0.5318927764892578,0.7476247787475586
0.5318927764892578,0.7476247787475586
0.5359737396240234,0.7480762481689452
0.5359737396240234,0.7480762481689452
0.5320261001586913,0.7461198806762696
0.5320261001586913,0.7461198806762696
0.5325834274291992,0.7480710983276367
0.5325834274291992,0.7480710983276367
0.5331350326538086,0.7501853942871094
0.5331350326538086,0.7501853942871094
0.5349861145019531,0.7488126754760742
0.5349861145019531,0.7488126754760742
0.5341300964355469,0.7474199295043945
0.5341300964355469,0.7474199295043945
0.5325977325439453,0.7500022888183594
0.5325977325439453,0.7500022888183594
0.5331962585449218,0.7501625061035156
0.5331962585449218,0.7501625061035156
0.5364040374755860,0.7519203186035156
0.5364040374755860,0.7519203186035156
0.5331687927246094,0.7483966827392577
0.5331687927246094,0.7483966827392577
0.5348247528076172,0.7512903213500977
0.5348247528076172,0.7512903213500977
0.5332677841186523,0.7514739990234375
0.5332677841186523,0.7514739990234375
0.5362787246704102,0.7509515762329101
0.5362787246704102,0.7509515762329101
0.5341112136840820,0.7504451751708984
0.5341112136840820,0.7504451751708984
0.5331047058105468,0.7503719329833984
0.5331047058105468,0.7503719329833984
0.5343904495239258,0.7501493453979492
0.5343904495239258,0.7501493453979492
0.5346084594726562,0.7480636596679687
0.5346084594726562,0.7480636596679687
0.5316644668579101,0.7432188034057617
0.5316644668579101,0.7432188034057617
0.5311895370483398,0.7446224212646484
0.5311895370483398,0.7446224212646484
0.5294511795043945,0.7405448913574219
0.5294511795043945,0.7405448913574219
0.5327127456665038,0.7390399932861328
0.5327127456665038,0.7390399932861328
0.5280063629150390,0.7356931686401367
0.5280063629150390,0.7356931686401367
0.5279325485229492,0.7363180160522461
0.5279325485229492,0.7363180160522461
0.5282506942749023,0.7377239227294922
0.5282506942749023,0.7377239227294922
0.5296663284301758,0.7351140975952148
0.5296663284301758,0.7351140975952148
0.5284332275390625,0.7329048156738281
0.5284332275390625,0.7329048156738281
0.5265769958496094,0.7345247268676758
0.5265769958496094,0.7345247268676758
0.5267807006835937,0.7333248138427734
0.5267807006835937,0.7333248138427734
0.5296016693115234,0.7346031188964843
0.5296016693115234,0.7346031188964843
0.5260917663574218,0.7303247451782227
0.5260917663574218,0.7303247451782227
0.5274290084838867,0.7326616287231446
0.5274290084838867,0.7326616287231446
0.5256832122802734,0.7325609207153320
0.5256832122802734,0.7325609207153320
0.5285757064819335,0.7314331054687500
0.5285757064819335,0.7314331054687500
0.5265260696411133,0.7310045242309570
0.5265260696411133,0.7310045242309570
0.5257467269897461,0.7314188003540039
0.5257467269897461,0.7314188003540039
0.5272945404052735,0.7323755264282227
0.5272945404052735,0.7323755264282227
0.5283559799194336,0.7327171325683594
0.5283559799194336,0.7327171325683594
0.5264425277709961,0.7304580688476562
0.5264425277709961,0.7304580688476562
0.5271326065063476,0.7347816467285156
0.5271326065063476,0.7347816467285156
0.5265317916870117,0.7339685440063476
0.5265317916870117,0.7339685440063476
0.5305418014526367,0.7344789505004883
0.5305418014526367,0.7344789505004883
0.5265626907348633,0.7326204299926757
0.5265626907348633,0.7326204299926757
0.5271183013916015,0.7344011306762696
0.5271183013916015,0.7344011306762696
0.5278369903564453,0.7364358901977539
0.5278369903564453,0.7364358901977539
0.5295890808105469,0.7349212646484374
0.5295890808105469,0.7349212646484374
0.5285562515258789,0.7333511352539063
0.5285562515258789,0.7333511352539063
0.5269552230834961,0.7358196258544921
0.5269552230834961,0.7358196258544921
0.5275777816772461,0.7357400894165039
0.5275777816772461,0.7357400894165039
0.5307403564453125,0.7373565673828125
0.5307403564453125,0.7373565673828125
0.5274209976196289,0.7338930130004883
0.5274209976196289,0.7338930130004883
0.5289419174194335,0.7367906570434570
0.5289419174194335,0.7367906570434570
0.5275972366333007,0.7372123718261718
0.5275972366333007,0.7372123718261718
0.5307397842407227,0.7369966506958008
0.5307397842407227,0.7369966506958008
0.5288097381591796,0.7370424270629883
0.5288097381591796,0.7370424270629883
0.5280635833740234,0.7379270553588867
0.5280635833740234,0.7379270553588867
0.5297882080078125,0.7392042160034179
0.5297882080078125,0.7392042160034179
0.5309366226196289,0.7394754409790039
0.5309366226196289,0.7394754409790039
0.5290391921997070,0.7369995117187500
0.5290391921997070,0.7369995117187500
0.5297201156616210,0.7414730072021484
0.5297201156616210,0.7414730072021484
0.5291204452514648,0.7402725219726562
0.5291204452514648,0.7402725219726562
0.5332901000976562,0.7412899017333984
0.5332901000976562,0.7412899017333984
0.5292669296264648,0.7395898818969726
0.5292669296264648,0.7395898818969726
0.5298437118530274,0.7415279388427735
0.5298437118530274,0.7415279388427735
0.5306121826171875,0.7442075729370117
0.5306121826171875,0.7442075729370117
0.5325336456298828,0.7426025390625000
0.5325336456298828,0.7426025390625000
0.5315208435058594,0.7414661407470703
0.5315208435058594,0.7414661407470703
0.5301801681518554,0.7441606521606445
0.5299547195434570,0.7440553665161133
0.5340723037719727,0.7462818145751953
0.5340723037719727,0.7462818145751953
0.5308679580688477,0.7428600311279296
0.5308679580688477,0.7428600311279296
0.5325382232666015,0.7457702636718749
0.5325382232666015,0.7457702636718749
0.5311288833618164,0.7465873718261719
0.5311288833618164,0.7465873718261719
0.5342393875122070,0.7459276199340820
0.5342393875122070,0.7459276199340820
0.5322727203369141,0.7459716796875000
0.5322727203369141,0.7459716796875000
0.5315340042114257,0.7467864990234375
0.5315340042114257,0.7467864990234375
0.5332677841186523,0.7476127624511718
0.5332677841186523,0.7476127624511718
0.5343349456787109,0.7481191635131835
0.5343349456787109,0.7481191635131835
0.5324163436889648,0.7456466674804687
0.5324163436889648,0.7456466674804687
0.5330652236938477,0.7499244689941406
0.5330652236938477,0.7499244689941406
0.5324146270751953,0.7489580154418946
0.5324146270751953,0.7489580154418946
0.5366323471069335,0.7494998931884765
0.5366323471069335,0.7494998931884765
0.5324449539184570,0.7476797103881836
0.5324449539184570,0.7476797103881836
0.5331333160400390,0.7495925903320312
0.5331333160400390,0.7495925903320312
0.5339086532592773,0.7517841339111327
0.5339086532592773,0.7517841339111327
0.5357511520385742,0.7504405975341797
0.5357511520385742,0.7504405975341797
0.5346256256103515,0.7490289688110351
0.5346256256103515,0.7490289688110351
0.5331722259521484,0.7515907287597656
0.5331722259521484,0.7515907287597656
0.5337799072265624,0.7515443801879883
0.5337799072265624,0.7515443801879883
0.5370300292968749,0.7529983520507812
0.5370300292968749,0.7529983520507812
0.5333936691284179,0.7489482879638671
0.5333936691284179,0.7489482879638671
0.5346055984497070,0.7510047912597656
0.5346055984497070,0.7510047912597656
0.5327745437622070,0.7501487731933594
0.5327745437622070,0.7501487731933594
0.5353815078735351,0.7480041503906250
0.5353815078735351,0.7480041503906250
0.5325096130371093,0.7456203460693359
0.5325096130371093,0.7456203460693359
0.5306613922119140,0.7438081741333008
0.5306613922119140,0.7438081741333008
0.5313245773315429,0.7424314498901367
0.5313245773315429,0.7424314498901367
0.5314807891845703,0.7403749465942383
0.5314807891845703,0.7403749465942383
0.5288875579833984,0.7364181518554688
0.5288875579833984,0.7364181518554688
0.5291341781616211,0.7393775939941406
0.5291341781616211,0.7393775939941406
0.5279903411865234,0.7371482849121094
0.5279903411865234,0.7371482849121094
0.5317743301391601,0.7371992111206055
0.5317743301391601,0.7371992111206055
0.5274742126464843,0.7347410202026367
0.5274742126464843,0.7347410202026367
0.5278038024902344,0.7359146118164063
0.5278038024902344,0.7359146118164063
0.5283250808715820,0.7376815795898437
0.5283250808715820,0.7376815795898437
0.5297149658203125,0.7353504180908202
0.5297149658203125,0.7353504180908202
0.5284915924072265,0.7333322525024414
0.5284915924072265,0.7333322525024414
0.5281494140624999,0.7363883972167968
0.5273391723632812,0.7363883972167968
0.5267818450927734,0.7345430374145507
0.5267818450927734,0.7345430374145507
0.5276138305664062,0.7348743438720703
0.5276138305664062,0.7348743438720703
0.5271417617797851,0.7362247467041015
0.5271417617797851,0.7362247467041015
0.5271526336669922,0.7355987548828125
0.5271526336669922,0.7355987548828125
0.5288663864135742,0.7367923736572265
0.5288663864135742,0.7367923736572265
0.5274965286254882,0.7362390518188476
0.5274965286254882,0.7362390518188476
0.5281700134277344,0.7361452102661132
0.5281700134277344,0.7361452102661132
0.5281305313110352,0.7390800476074219
0.5281305313110352,0.7390800476074219
0.5279085159301757,0.7367237091064452
0.5279085159301757,0.7367237091064452
0.5296010971069336,0.7385158538818359
0.5296010971069336,0.7385158538818359
0.5278627395629882,0.7375116348266602
0.5289659500122070,0.7375116348266602
0.5287433624267578,0.7385627746582031
0.5287433624267578,0.7385627746582031
0.5284675598144531,0.7392723083496093
0.5284675598144531,0.7392723083496093
0.5283800125122070,0.7375139236450196
0.5283800125122070,0.7375139236450196
0.5297464370727539,0.7385908126831054
0.5297464370727539,0.7385908126831054
0.5282878875732422,0.7392299652099609
0.5282878875732422,0.7392299652099609
0.5290328979492187,0.7388534545898438
0.5290328979492187,0.7388534545898438
0.5288137435913086,0.7402381896972656
0.5288137435913086,0.7402381896972656
0.5284984588623046,0.7385650634765625
0.5284984588623046,0.7385650634765625
0.5303529739379883,0.7412624359130859
0.5303529739379883,0.7412624359130859
0.5289104461669921,0.7399103164672851
0.5289104461669921,0.7399103164672851
0.5297327041625977,0.7404985427856445
0.5297327041625977,0.7404985427856445
0.5293756484985351,0.7413780212402343
0.5293756484985351,0.7413780212402343
0.5294528961181640,0.7414100646972656
0.5294528961181640,0.7414100646972656
0.5311546325683594,0.7423919677734375
0.5311546325683594,0.7423919677734375
0.5297887802124023,0.7420177459716797
0.5297887802124023,0.7420177459716797
0.5303953170776367,0.7424074172973633
0.5303953170776367,0.7424074172973633
0.5303501129150391,0.7448507308959961
0.5303501129150391,0.7448507308959961
0.5302562713623047,0.7427347183227538
0.5302562713623047,0.7427347183227538
0.5321119308471679,0.7445697784423828
0.5321119308471679,0.7445697784423828
0.5303701400756836,0.7434116363525390
0.5303701400756836,0.7434116363525390
0.5312484741210938,0.7453805923461914
0.5312484741210938,0.7453805923461914
0.5310945510864258,0.7462303161621093
0.5310945510864258,0.7462303161621093
0.5310453414916992,0.7448850631713867
0.5310453414916992,0.7448850631713867
0.5325845718383789,0.7465044021606445
0.5325845718383789,0.7465044021606445
0.5312370300292969,0.7469312667846679
0.5312370300292969,0.7469312667846679
0.5321365356445312,0.7466199874877929
0.5321365356445312,0.7466199874877929
0.5320707321166992,0.7481174468994141
0.5320707321166992,0.7481174468994141
0.5316232681274414,0.7459304809570312
0.5316232681274414,0.7459304809570312
0.5335075378417968,0.7489374160766601
0.5335075378417968,0.7489374160766601
0.5319574356079101,0.7476762771606446
0.5319574356079101,0.7476762771606446
0.5327625274658203,0.7481952667236328
0.5327625274658203,0.7481952667236328
0.5324855804443359,0.7495365142822266
0.5324855804443359,0.7495365142822266
0.5323213577270508,0.7489803314208984
0.5323213577270508,0.7489803314208984
0.5341060638427734,0.7501001358032227
0.5341060638427734,0.7501001358032227
0.5327465057373046,0.7495382308959960
0.5327465057373046,0.7495382308959960
0.5333765029907226,0.7494232177734375
0.5333765029907226,0.7494232177734375
0.5333662033081055,0.7524089813232422
0.5333662033081055,0.7524089813232422
0.5332334518432617,0.7501356124877929
0.5332334518432617,0.7501356124877929
0.5349901199340820,0.7517498016357421
0.5349901199340820,0.7517498016357421
0.5331876754760742,0.7510110855102539
0.5331876754760742,0.7510110855102539
0.5340282440185546,0.7521726608276367
0.5340282440185546,0.7521726608276367
0.5336746215820313,0.7524330139160156
0.5336746215820313,0.7524330139160156
0.5333850860595702,0.7499021530151367
0.5333850860595702,0.7499021530151367
0.5343835830688476,0.7497179031372070
0.5343835830688476,0.7497179031372070
0.5322052001953125,0.7487514495849609
0.5322052001953125,0.7487514495849609
0.5320415496826172,0.7460231781005859
0.5320415496826172,0.7460231781005859
0.5308839797973632,0.7448987960815430
0.5308839797973632,0.7448987960815430
0.5295948028564453,0.7405603408813476
0.5295948028564453,0.7405603408813476
0.5306648254394531,0.7411994934082031
0.5306648254394531,0.7411994934082031
0.5285139083862305,0.7386108398437500
0.5285139083862305,0.7386108398437500
0.5289590835571288,0.7378000259399414
0.5289590835571288,0.7378000259399414
0.5280235290527343,0.7377325057983398
0.5280235290527343,0.7377325057983398
0.5276922225952149,0.7366390228271484
0.5276922225952149,0.7366390228271484
0.5290878295898437,0.7367300033569336
0.5290878295898437,0.7367300033569336
0.5273065567016602,0.7355558395385742
0.5273065567016602,0.7355558395385742
0.5276664733886719,0.7350002288818359
0.5276664733886719,0.7350002288818359
0.5273380279541016,0.7368106842041016
0.5273380279541016,0.7368106842041016
0.5267583847045898,0.7338827133178710
0.5267583847045898,0.7338827133178710
0.5284669876098632,0.7349264144897460
0.5284669876098632,0.7349264144897460
0.5264757156372070,0.7332595825195313
0.5264757156372070,0.7332595825195313
0.5272321701049805,0.7347484588623047
0.5272321701049805,0.7347484588623047
0.5269403457641602,0.7352909088134766
0.5269403457641602,0.7352909088134766
0.5267486572265625,0.7336492538452148
0.5267486572265625,0.7336492538452148
0.5283445358276367,0.7352291107177734
0.5283445358276367,0.7352291107177734
0.5268465042114258,0.7356840133666992
0.5268465042114258,0.7356840133666992
0.5277305603027344,0.7354568481445313
0.5277305603027344,0.7354568481445313
0.5277397155761718,0.7371419906616211
0.5277397155761718,0.7371419906616211
0.5272825241088867,0.7349739074707031
0.5272825241088867,0.7349739074707031
0.5291542053222656,0.7379407882690430
0.5291542053222656,0.7379407882690430
0.5276092529296875,0.7367231369018554
0.5276092529296875,0.7367231369018554
0.5284303665161133,0.7368816375732422
0.5284303665161133,0.7368816375732422
0.5279193878173828,0.7381193161010742
0.5279193878173828,0.7381193161010742
0.5277517318725585,0.7373067855834960
0.5277517318725585,0.7373067855834960
0.5294511795043945,0.7378217697143554
0.5294511795043945,0.7378217697143554
0.5280212402343750,0.7373857498168945
0.5280212402343750,0.7373857498168945
0.5284732818603516,0.7369096755981445
0.5284732818603516,0.7369096755981445
0.5283107757568359,0.7397741317749024
0.5283107757568359,0.7397741317749024
0.5281517028808593,0.7374223709106446
0.5281517028808593,0.7374223709106446
0.5299467086791992,0.7392379760742187
0.5299467086791992,0.7392379760742187
0.5282009124755859,0.7385507583618164
0.5282009124755859,0.7385507583618164
0.5290706634521484,0.7399085998535156
0.5290706634521484,0.7399085998535156
0.5289813995361328,0.7408378601074218
0.5289813995361328,0.7408378601074218
0.5289957046508789,0.7395292282104492
0.5289957046508789,0.7395292282104492
0.5306236267089843,0.7405826568603515
0.5306236267089843,0.7405826568603515
0.5291736602783202,0.7416212081909179
0.5291736602783202,0.7416212081909179
0.5299753189086914,0.7413248062133789
0.5299753189086914,0.7413248062133789
0.5299140930175781,0.7430889129638671
0.5299140930175781,0.7430889129638671
0.5295089721679688,0.7415182113647460
0.5295089721679688,0.7415182113647460
0.5314430236816406,0.7441835403442383
0.5314430236816406,0.7441835403442383
0.5300279617309570,0.7430986404418946
0.5300279617309570,0.7430986404418946
0.5309566497802735,0.7434791564941406
0.5309566497802735,0.7434791564941406
0.5306522369384765,0.7445623397827148
0.5306522369384765,0.7445623397827148
0.5305698394775390,0.7446023941040039
0.5305698394775390,0.7446023941040039
0.5323665618896484,0.7454853057861328
0.5323665618896484,0.7454853057861328
0.5309497833251953,0.7453456878662109
0.5309497833251953,0.7453456878662109
0.5314865112304688,0.7454641342163085
0.5314865112304688,0.7454641342163085
0.5316020965576171,0.7481986999511718
0.5316020965576171,0.7481986999511718
0.5313657760620117,0.7459024429321289
0.5313657760620117,0.7459024429321289
0.5333061218261719,0.7475040435791015
0.5333061218261719,0.7475040435791015
0.5315855026245117,0.7467761993408203
0.5315855026245117,0.7467761993408203
0.5324232101440429,0.7485380172729492
0.5324232101440429,0.7485380172729492
0.5324043273925781,0.7492681503295898
0.5324043273925781,0.7492681503295898
0.5321027755737304,0.7477952957153320
0.5321027755737304,0.7477952957153320
0.5337741851806640,0.7491651535034179
0.5337741851806640,0.7491651535034179
0.5322927474975586,0.7497940063476562
0.5322927474975586,0.7497940063476562
0.5330669403076171,0.7493122100830077
0.5330669403076171,0.7493122100830077
0.5331407546997070,0.7509057998657226
0.5331407546997070,0.7509057998657226
0.5325290679931640,0.7487806320190430
0.5325290679931640,0.7487806320190430
0.5345066070556640,0.7516748428344726
0.5345066070556640,0.7516748428344726
0.5329221725463867,0.7506969451904296
0.5329221725463867,0.7506969451904296
0.5337312698364257,0.7509933471679687
0.5337312698364257,0.7509933471679687
0.5335166931152343,0.7525320053100586
0.5335166931152343,0.7525320053100586
0.5333965301513671,0.7518201828002929
0.5333965301513671,0.7518201828002929
0.5352298736572265,0.7526819229125976
0.5352298736572265,0.7526819229125976
0.5338279724121093,0.7523677825927734
0.5338279724121093,0.7523677825927734
0.5342594146728515,0.7518808364868164
0.5342594146728515,0.7518808364868164
0.5342250823974609,0.7547109603881835
0.5342250823974609,0.7547109603881835
0.5338794708251953,0.7522212982177734
0.5338794708251953,0.7522212982177734
0.5356189727783203,0.7533536911010742
0.5356189727783203,0.7533536911010742
0.5335556030273437,0.7520816802978515
0.5335556030273437,0.7520816802978515
0.5338520050048828,0.7517978668212890
0.5338520050048828,0.7517978668212890
0.5330377578735351,0.7505315780639649
0.5330377578735351,0.7505315780639649
0.5318876266479492,0.7464477539062500
0.5318876266479492,0.7464477539062500
0.5322921752929687,0.7443832397460938
0.5322921752929687,0.7443832397460938
0.5297819137573242,0.7426998138427734
0.5297819137573242,0.7426998138427734
0.5295616149902344,0.7400527954101562
0.5295616149902344,0.7400527954101562
0.5290111541748047,0.7402061462402344
0.5290111541748047,0.7402061462402344
0.5278512954711914,0.7371940612792969
0.5278512954711914,0.7371940612792969
0.5293653488159179,0.7384632110595702
0.5293653488159179,0.7384632110595702
0.5274816513061523,0.7366121292114257
0.5274816513061523,0.7366121292114257
0.5278083801269531,0.7356977462768555
0.5278083801269531,0.7356977462768555
0.5272647857666015,0.7357967376708984
0.5272647857666015,0.7357967376708984
0.5266925811767578,0.7347867965698242
0.5266925811767578,0.7347867965698242
0.5282318115234375,0.7348073959350586
0.5282318115234375,0.7348073959350586
0.5264247894287110,0.7337579727172852
0.5264247894287110,0.7337579727172852
0.5265489578247070,0.7329420089721680
0.5265489578247070,0.7329420089721680
0.5264545440673828,0.7347438812255859
0.5264545440673828,0.7347438812255859
0.5259115219116210,0.7319641113281250
0.5259115219116210,0.7330427169799805
0.5284337997436523,0.7329780578613281
0.5261913299560547,0.7301570892333984
0.5253559112548828,0.7301570892333984
0.5270633697509766,0.7340354919433594
0.5270633697509766,0.7340354919433594
0.5256202697753906,0.7327554702758788
0.5256202697753906,0.7327554702758788
0.5301818847656250,0.7333551406860351
0.5301818847656250,0.7333551406860351
0.5262502670288086,0.7321723937988281
0.5262502670288086,0.7321723937988281
0.5267772674560547,0.7338678359985351
0.5267772674560547,0.7338678359985351
0.5277219772338867,0.7362499237060547
0.5277219772338867,0.7362499237060547
0.5290271759033203,0.7345996856689453
0.5290271759033203,0.7345996856689453
0.5282449722290039,0.7331216812133788
0.5282449722290039,0.7331216812133788
0.5269294738769531,0.7358087539672852
0.5269294738769531,0.7358087539672852
0.5273746490478516,0.7352005004882812
0.5273746490478516,0.7352005004882812
0.5278324127197266,0.7370378494262695
0.5276487350463867,0.7370378494262695
0.5267372131347656,0.7334238052368164
0.5267372131347656,0.7334238052368164
0.5284555435180663,0.7360507965087890
0.5284555435180663,0.7360507965087890
0.5270994186401367,0.7368644714355469
0.5270994186401367,0.7368644714355469
0.5303701400756836,0.7360719680786133
0.5303701400756836,0.7360719680786133
0.5285270690917968,0.7358551025390625
0.5282146453857421,0.7358551025390625
0.5270210266113281,0.7365531921386719
0.5273872375488281,0.7365531921386719
0.5289487838745117,0.7373622894287110
0.5289487838745117,0.7373622894287110
0.5304399490356445,0.7380157470703125
0.5304399490356445,0.7380157470703125
0.5281974792480468,0.7356239318847656
0.5281974792480468,0.7356239318847656
0.5288629531860352,0.7397661209106445
0.5288629531860352,0.7397661209106445
0.5278787612915039,0.7388620376586914
0.5278787612915039,0.7388620376586914
0.5323905944824219,0.7393037796020507
0.5323905944824219,0.7393037796020507
0.5285465240478515,0.7380661010742188
0.5285465240478515,0.7380661010742188
0.5290077209472656,0.7399709701538085
0.5290077209472656,0.7399709701538085
0.5301841735839844,0.7421138763427734
0.5301841735839844,0.7421138763427734
0.5314790725708007,0.7408893585205077
0.5314790725708007,0.7408893585205077
0.5306184768676757,0.7395395278930664
0.5306184768676757,0.7395395278930664
0.5293991088867187,0.7425424575805664
0.5293991088867187,0.7425424575805664
0.5299615859985352,0.7425430297851562
0.5299615859985352,0.7425430297851562
0.5338159561157226,0.7442659378051758
0.5338159561157226,0.7442659378051758
0.5295564651489257,0.7410306930541992
0.5295564651489257,0.7410306930541992
0.5313600540161133,0.7438819885253906
0.5313600540161133,0.7438819885253906
0.5303958892822266,0.7449205398559570
0.5303958892822266,0.7449205398559570
0.5336603164672852,0.7445966720581054
0.5336603164672852,0.7445966720581054
0.5318922042846680,0.7444467544555664
0.5318922042846680,0.7444467544555664
0.5303993225097656,0.7455150604248046
0.5303993225097656,0.7455150604248046
0.5324300765991211,0.7465307235717773
0.5324300765991211,0.7465307235717773
0.5339921951293946,0.7472139358520508
0.5339921951293946,0.7472139358520508
0.5316793441772460,0.7445171356201171
0.5316793441772460,0.7445171356201171
0.5327230453491211,0.7486627578735351
0.5327230453491211,0.7486627578735351
0.5313034057617188,0.7475269317626952
0.5313034057617188,0.7475269317626952
0.5359783172607422,0.7481414794921875
0.5359783172607422,0.7481414794921875
0.5319505691528320,0.7468099594116211
0.5319505691528320,0.7468099594116211
0.5323997497558594,0.7485969543457031
0.5323997497558594,0.7485969543457031
0.5335573196411133,0.7508485794067382
0.5335573196411133,0.7508485794067382
0.5348396301269531,0.7493528366088867
0.5348396301269531,0.7493528366088867
0.5337867736816406,0.7478834152221679
0.5337867736816406,0.7478834152221679
0.5327173233032226,0.7509595870971679
0.5327173233032226,0.7509595870971679
0.5332077026367187,0.7505727767944336
0.5332077026367187,0.7505727767944336
0.5370878219604492,0.7523500442504882
0.5370878219604492,0.7523500442504882
0.5327877044677735,0.7489391326904297
0.5327877044677735,0.7489391326904297
0.5345695495605468,0.7517847061157227
0.5345695495605468,0.7517847061157227
0.5334960937500000,0.7530057907104492
0.5334960937500000,0.7530057907104492
0.5365940093994140,0.7519580841064453
0.5365940093994140,0.7519580841064453
0.5348012924194335,0.7514133453369141
0.5348012924194335,0.7514133453369141
0.5330371856689453,0.7516851425170898
0.5330371856689453,0.7516851425170898
0.5345203399658203,0.7515409469604492
0.5345203399658203,0.7515409469604492
0.5355216979980468,0.7508668899536133
0.5339212417602539,0.7508668899536133
0.5323831558227539,0.7462188720703125
0.5323831558227539,0.7462188720703125
0.5325954437255859,0.7476968765258789
0.5325954437255859,0.7476968765258789
0.5300188064575195,0.7441514968872071
0.5300188064575195,0.7441514968872071
0.5336122512817383,0.7419227600097656
0.5336122512817383,0.7419227600097656
0.5288269042968750,0.7386920928955077
0.5288269042968750,0.7386920928955077
0.5286106109619141,0.7387819290161133
0.5286106109619141,0.7387819290161133
0.5293230056762696,0.7397226333618164
0.5293230056762696,0.7397226333618164
0.5301292419433593,0.7374149322509765
0.5301292419433593,0.7374149322509765
0.5287811279296875,0.7351764678955078
0.5287811279296875,0.7351764678955078
0.5273689270019531,0.7373336791992188
0.5273689270019531,0.7373336791992188
0.5274879455566406,0.7363666534423828
0.5274879455566406,0.7363666534423828
0.5310911178588867,0.7370544433593750
0.5277746200561523,0.7370544433593750
0.5263629913330078,0.7330484390258789
0.5263629913330078,0.7330484390258789
0.5279056549072265,0.7351335525512696
0.5279056549072265,0.7351335525512696
0.5265810012817382,0.7353801727294922
0.5265810012817382,0.7353801727294922
0.5294975280761719,0.7343988418579102
0.5294975280761719,0.7343988418579102
0.5278553009033203,0.7337385177612304
0.5278553009033203,0.7337385177612304
0.5260368347167969,0.7343233108520507
0.5260368347167969,0.7343233108520507
0.5278266906738281,0.7352594375610352
0.5278266906738281,0.7352594375610352
0.5294683456420898,0.7358945846557617
0.5294683456420898,0.7358945846557617
0.5270496368408203,0.7334043502807617
0.5270496368408203,0.7334043502807617
0.5282501220703125,0.7373737335205078
0.5282501220703125,0.7373737335205078
0.5268013000488281,0.7363786697387695
0.5268013000488281,0.7363786697387695
0.5314481735229492,0.7372146606445312
0.5314481735229492,0.7372146606445312
0.5275154113769531,0.7360445022583008
0.5275154113769531,0.7360445022583008
0.5278244018554688,0.7373508453369141
0.5278244018554688,0.7373508453369141
0.5291021347045898,0.7394308090209961
0.5291021347045898,0.7394308090209961
0.5301212310791016,0.7378028869628906
0.5301212310791016,0.7378028869628906
0.5291484832763672,0.7363014221191406
0.5291484832763672,0.7363014221191406
0.5280138015747070,0.7391893386840820
0.5280138015747070,0.7391893386840820
0.5282386779785156,0.7384786605834961
0.5282386779785156,0.7384786605834961
0.5323431015014648,0.7402261734008789
0.5323431015014648,0.7402261734008789
0.5277282714843750,0.7368404388427734
0.5277282714843750,0.7368404388427734
0.5295793533325195,0.7395647048950195
0.5295793533325195,0.7395647048950195
0.5285482406616211,0.7408870697021485
0.5298974990844726,0.7408870697021485
0.5315740585327148,0.7400213241577148
0.5315740585327148,0.7400213241577148
0.5301160812377930,0.7398731231689453
0.5301160812377930,0.7398731231689453
0.5284807205200195,0.7408063888549804
0.5291833877563477,0.7408063888549804
0.5303958892822266,0.7417253494262696
0.5303958892822266,0.7417253494262696
0.5321708679199219,0.7427198410034179
0.5321708679199219,0.7427198410034179
0.5295524597167969,0.7401958465576172
0.5295524597167969,0.7401958465576172
0.5309629440307617,0.7441011428833008
0.5309629440307617,0.7441011428833008
0.5293722152709961,0.7434362411499024
0.5293722152709961,0.7434362411499024
0.5340196609497070,0.7439123153686523
0.5340196609497070,0.7439123153686523
0.5301469802856446,0.7428806304931640
0.5301469802856446,0.7428806304931640
0.5305406570434570,0.7444599151611327
0.5305406570434570,0.7444599151611327
0.5318538665771484,0.7464231491088867
0.5318538665771484,0.7464231491088867
0.5329999923706055,0.7453834533691406
0.5329999923706055,0.7453834533691406
0.5320283889770507,0.7441389083862304
0.5320283889770507,0.7441389083862304
0.5310728073120117,0.7471778869628906
0.5310728073120117,0.7471778869628906
0.5314825057983398,0.7470823287963867
0.5314825057983398,0.7470823287963867
0.5356115341186524,0.7487474441528320
0.5356115341186524,0.7487474441528320
0.5310482025146485,0.7454212188720702
0.5310482025146485,0.7454212188720702
0.5328266143798828,0.7483068466186523
0.5328266143798828,0.7483068466186523
0.5318899154663086,0.7492853164672851
0.5318899154663086,0.7492853164672851
0.5350490570068359,0.7486982345581055
0.5350490570068359,0.7486982345581055
0.5334457397460938,0.7484315872192383
0.5334457397460938,0.7484315872192383
0.5317239761352539,0.7492240905761719
0.5317239761352539,0.7492240905761719
0.5335475921630859,0.7501739501953125
0.5331653594970703,0.7501739501953125
0.5353923797607422,0.7508434295654297
0.5353923797607422,0.7508434295654297
0.5327682495117188,0.7480922698974609
0.5327682495117188,0.7480922698974609
0.5341787338256836,0.7519260406494140
0.5341787338256836,0.7519260406494140
0.5324975967407226,0.7508989334106445
0.5324975967407226,0.7508989334106445
0.5370271682739257,0.7516513824462890
0.5370271682739257,0.7516513824462890
0.5332592010498046,0.7504486083984375
0.5332592010498046,0.7504486083984375
0.5334188461303710,0.7518808364868164
0.5334188461303710,0.7518808364868164
0.5348562240600586,0.7540225982666016
0.5348562240600586,0.7540225982666016
0.5359451293945312,0.7524730682373046
0.5359451293945312,0.7524730682373046
0.5348539352416992,0.7510974884033202
0.5348539352416992,0.7510974884033202
0.5337604522705078,0.7538961410522461
0.5337604522705078,0.7538961410522461
0.5339595794677734,0.7529502868652344
0.5339595794677734,0.7529502868652344
0.5379192352294921,0.7540861129760742
0.5379192352294921,0.7540861129760742
0.5329084396362305,0.7496864318847656
0.5329084396362305,0.7496864318847656
0.5339029312133788,0.7509143829345702
0.5339029312133788,0.7509143829345702
0.5324048995971680,0.7500720977783203
0.5324048995971680,0.7500720977783203
0.5345472335815430,0.7466789245605469
0.5345472335815430,0.7466789245605469
0.5318750381469727,0.7438001632690430
0.5318750381469727,0.7438001632690430
0.5292388916015625,0.7421241760253906
0.5292388916015625,0.7421241760253906
0.5301029205322265,0.7412086486816406
0.5301029205322265,0.7412086486816406
0.5314601898193360,0.7407869338989258
0.5314601898193360,0.7407869338989258
0.5285081863403320,0.7371391296386719
0.5285081863403320,0.7371391296386719
0.5294065475463867,0.7400951385498047
0.5294065475463867,0.7400951385498047
0.5274856567382812,0.7383974075317382
0.5274856567382812,0.7383974075317382
0.5315860748291016,0.7382932662963867
0.5315860748291016,0.7382932662963867
0.5276796340942382,0.7364467620849610
0.5276796340942382,0.7364467620849610
0.5277465820312500,0.7372564315795899
0.5277465820312500,0.7372564315795899
0.5288698196411132,0.7386159896850586
0.5288698196411132,0.7386159896850586
0.5297979354858399,0.7366716384887695
0.5297979354858399,0.7366716384887695
0.5283382415771484,0.7350093841552734
0.5283382415771484,0.7350093841552734
0.5289831161499023,0.7381158828735351
0.5289831161499023,0.7381158828735351
0.5289831161499023,0.7379796981811523
0.5273460388183594,0.7371751785278320
0.5317005157470703,0.7371751785278320
0.5280824661254883,0.7370361328125000
0.5280824661254883,0.7370361328125000
0.5281093597412109,0.7384866714477539
0.5281093597412109,0.7384866714477539
0.5277557373046875,0.7386188507080078
0.5277557373046875,0.7386188507080078
0.5296182632446289,0.7390480041503906
0.5296182632446289,0.7390480041503906
0.5281877517700195,0.7390737533569336
0.5281877517700195,0.7390737533569336
0.5285625457763672,0.7388917922973632
0.5285625457763672,0.7388917922973632
0.5288915634155273,0.7415914535522461
0.5288915634155273,0.7415914535522461
0.5283136367797852,0.7393220901489258
0.5283136367797852,0.7393220901489258
0.5302030563354492,0.7401826858520507
0.5302030563354492,0.7401826858520507
0.5283496856689452,0.7392425537109375
0.5283496856689452,0.7392425537109375
0.5290002822875977,0.7405683517456054
0.5290002822875977,0.7405683517456054
0.5291353225708008,0.7414958953857421
0.5291353225708008,0.7414958953857421
0.5286346435546875,0.7400888442993164
0.5286346435546875,0.7400888442993164
0.5301939010620117,0.7408103942871094
0.5301939010620117,0.7408103942871094
0.5287828445434570,0.7415027618408203
0.5287828445434570,0.7415027618408203
0.5293687820434571,0.7408578872680663
0.5293687820434571,0.7408578872680663
0.5297481536865234,0.7426986694335938
0.5297481536865234,0.7426986694335938
0.5288732528686523,0.7408138275146484
0.5288732528686523,0.7408138275146484
0.5309715270996094,0.7432176589965820
0.5309715270996094,0.7432176589965820
0.5294563293457031,0.7425825119018554
0.5294563293457031,0.7425825119018554
0.5301143646240234,0.7426420211791992
0.5301143646240234,0.7426420211791992
0.5302070617675781,0.7446132659912109
0.5302070617675781,0.7446132659912109
0.5298431396484374,0.7443214416503906
0.5298431396484374,0.7443214416503906
0.5318075180053711,0.7446636199951172
0.5318075180053711,0.7446636199951172
0.5304840087890624,0.7448043823242188
0.5304840087890624,0.7448043823242188
0.5308410644531250,0.7443632125854492
0.5308410644531250,0.7443632125854492
0.5312839508056640,0.7476602554321289
0.5312839508056640,0.7476602554321289
0.5306791305541992,0.7457914352416992
0.5306791305541992,0.7457914352416992
0.5328128814697265,0.7469043731689453
0.5328128814697265,0.7469043731689453
0.5310441970825195,0.7467281341552734
0.5310441970825195,0.7467281341552734
0.5317239761352539,0.7477088928222656
0.5317239761352539,0.7477088928222656
0.5320352554321289,0.7490032196044921
0.5320352554321289,0.7490032196044921
0.5316158294677734,0.7475698471069335
0.5316158294677734,0.7475698471069335
0.5332506179809570,0.7479091644287109
0.5332506179809570,0.7479091644287109
0.5317680358886718,0.7492807388305663
0.5317680358886718,0.7492807388305663
0.5323837280273437,0.7486324310302734
0.5323837280273437,0.7486324310302734
0.5328020095825196,0.7505395889282226
0.5328020095825196,0.7505395889282226
0.5320049285888672,0.7490736007690429
0.5320049285888672,0.7490736007690429
0.5339607238769531,0.7507450103759765
0.5339607238769531,0.7507450103759765
0.5323945999145507,0.7501253128051758
0.5323945999145507,0.7501253128051758
0.5330108642578125,0.7500944137573242
0.5330108642578125,0.7500944137573242
0.5330280303955078,0.7512462615966796
0.5330280303955078,0.7512462615966796
0.5325519561767578,0.7513732910156250
0.5325519561767578,0.7513732910156250
0.5345764160156250,0.7516164779663086
0.5345764160156250,0.7516164779663086
0.5331756591796875,0.7517183303833007
0.5331756591796875,0.7517183303833007
0.5334955215454101,0.7515718460083007
0.5334955215454101,0.7515718460083007
0.5339246749877929,0.7543973922729492
0.5339246749877929,0.7543973922729492
0.5333021163940429,0.7523242950439453
0.5333021163940429,0.7523242950439453
0.5353769302368164,0.7531133651733398
0.5353769302368164,0.7531133651733398
0.5335813522338867,0.7523609161376953
0.5335813522338867,0.7523609161376953
0.5339040756225586,0.7532993316650390
0.5339040756225586,0.7532993316650390
0.5339893341064453,0.7536775588989257
0.5339893341064453,0.7536775588989257
0.5330726623535156,0.7511037826538086
0.5330726623535156,0.7511037826538086
0.5338834762573242,0.7499851226806641
0.5338834762573242,0.7499851226806641
0.5316169738769531,0.7483875274658203
0.5316169738769531,0.7483875274658203
0.5310699462890625,0.7448581695556641
0.5310699462890625,0.7448581695556641
0.5304697036743163,0.7437990188598632
0.5304697036743163,0.7437990188598632
0.5286958694458007,0.7396150588989258
0.5286958694458007,0.7396150588989258
0.5298809051513672,0.7403337478637695
0.5298809051513672,0.7403337478637695
0.5278146743774413,0.7382623672485351
0.5278146743774413,0.7382623672485351
0.5279571533203125,0.7371042251586913
0.5279571533203125,0.7371042251586913
0.5276813507080078,0.7377651214599609
0.5276813507080078,0.7377651214599609
0.5268035888671875,0.7361698150634766
0.5268035888671875,0.7361698150634766
0.5281482696533203,0.7354545593261719
0.5281482696533203,0.7354545593261719
0.5265003204345703,0.7344738006591797
0.5265003204345703,0.7344738006591797
0.5263544082641601,0.7330696105957031
0.5263544082641601,0.7330696105957031
0.5265140533447266,0.7354001998901367
0.5265140533447266,0.7354001998901367
0.5256866455078125,0.7327056884765625
0.5256866455078125,0.7327056884765625
0.5273500442504883,0.7329883575439453
0.5273500442504883,0.7329883575439453
0.5254852294921875,0.7322839736938477
0.5268310546875000,0.7322839736938477
0.5259235382080077,0.7327703475952149
0.5259235382080077,0.7327703475952149
0.5262119293212890,0.7337860107421875
0.5262119293212890,0.7337860107421875
0.5257616043090820,0.7323652267456054
0.5257616043090820,0.7323652267456054
0.5272464752197266,0.7326227188110351
0.5272464752197266,0.7326227188110351
0.5259086608886718,0.7341110229492187
0.5259086608886718,0.7341110229492187
0.5263120651245117,0.7333385467529296
0.5263120651245117,0.7333385467529296
0.5267829895019531,0.7352308273315430
0.5267829895019531,0.7352308273315430
0.5259366989135742,0.7336034774780273
0.5259366989135742,0.7336034774780273
0.5278633117675781,0.7351776123046875
0.5278633117675781,0.7351776123046875
0.5261987686157227,0.7344944000244140
0.5261987686157227,0.7344944000244140
0.5268447875976562,0.7342288970947265
0.5268447875976562,0.7342288970947265
0.5268041610717773,0.7353652954101563
0.5268041610717773,0.7353652954101563
0.5263538360595703,0.7352050781250000
0.5263538360595703,0.7352050781250000
0.5281345367431640,0.7352634429931640
0.5281345367431640,0.7352634429931640
0.5266273498535156,0.7350940704345703
0.5266273498535156,0.7350940704345703
0.5268396377563477,0.7348136901855469
0.5268396377563477,0.7348136901855469
0.5273632049560547,0.7375516891479492
0.5273632049560547,0.7375516891479492
0.5267372131347656,0.7353029251098633
0.5267372131347656,0.7353029251098633
0.5286666870117187,0.7361829757690429
0.5286666870117187,0.7361829757690429
0.5268510818481446,0.7357120513916016
0.5268510818481446,0.7357120513916016
0.5274364471435546,0.7369514465332031
0.5274364471435546,0.7369514465332031
0.5278976440429687,0.7382572174072265
0.5278976440429687,0.7382572174072265
0.5274101257324219,0.7368484497070312
0.5274101257324219,0.7368484497070312
0.5289573669433594,0.7375968933105469
0.5289573669433594,0.7375968933105469
0.5275194168090820,0.7386766433715820
0.5275194168090820,0.7386766433715820
0.5281316757202148,0.7380146026611328
0.5281316757202148,0.7380146026611328
0.5286472320556640,0.7399778366088867
0.5286472320556640,0.7399778366088867
0.5279027938842773,0.7379476547241210
0.5279027938842773,0.7379476547241210
0.5296772003173827,0.7401844024658203
0.5296772003173827,0.7401844024658203
0.5282581329345702,0.7397254943847656
0.5282581329345702,0.7397254943847656
0.5288955688476562,0.7396533966064452
0.5288955688476562,0.7396533966064452
0.5291336059570312,0.7414844512939452
0.5291336059570312,0.7414844512939452
0.5287067413330078,0.7411605834960937
0.5287067413330078,0.7411605834960937
0.5304903030395508,0.7413911819458008
0.5304903030395508,0.7413911819458008
0.5291816711425781,0.7416618347167968
0.5291816711425781,0.7416618347167968
0.5294340133666992,0.7408916473388671
0.5294340133666992,0.7408916473388671
0.5299644470214844,0.7443569183349609
0.5299644470214844,0.7443569183349609
0.5294523239135742,0.7424045562744140
0.5294523239135742,0.7424045562744140
0.5313875198364257,0.7434448242187500
0.5313875198364257,0.7434448242187500
0.5296537399291992,0.7435581207275390
0.5296537399291992,0.7435581207275390
0.5302659988403320,0.7442459106445313
0.5302659988403320,0.7442459106445313
0.5308204650878906,0.7457124710083007
0.5308204650878906,0.7457124710083007
0.5304113388061523,0.7443752288818359
0.5304113388061523,0.7443752288818359
0.5318000793457031,0.7447139739990234
0.5318000793457031,0.7447139739990234
0.5306093215942382,0.7463127136230469
0.5306093215942382,0.7463127136230469
0.5311265945434570,0.7457777023315429
0.5311265945434570,0.7457777023315429
0.5317525863647461,0.7477426528930664
0.5317525863647461,0.7477426528930664
0.5309904098510742,0.7464277267456054
0.5309904098510742,0.7464277267456054
0.5328123092651367,0.7483125686645508
0.5328123092651367,0.7483125686645508
0.5313926696777344,0.7478530883789062
0.5360326766967773,0.7478530883789062
0.5321456909179687,0.7478147506713867
0.5321456909179687,0.7478147506713867
0.5322692871093749,0.7491811752319336
0.5322692871093749,0.7491811752319336
0.5318292617797852,0.7489356994628906
0.5318292617797852,0.7489356994628906
0.5333112716674805,0.7487680435180664
0.5333112716674805,0.7487680435180664
0.5315437316894531,0.7479486465454102
0.5315437316894531,0.7479486465454102
0.5313560485839843,0.7461078643798827
0.5313560485839843,0.7461078643798827
0.5310436248779297,0.7466165542602539
0.5310436248779297,0.7466165542602539
0.5294380187988281,0.7419393539428710
0.5294380187988281,0.7419393539428710
0.5304107666015625,0.7401466369628906
0.5304107666015625,0.7401466369628906
0.5278335571289062,0.7377536773681640
0.5278335571289062,0.7377536773681640
0.5277643203735352,0.7375396728515625
0.5277643203735352,0.7375396728515625
0.5277746200561523,0.7376970291137696
0.5277746200561523,0.7376970291137696
0.5268207550048828,0.7351593017578125
0.5268207550048828,0.7351593017578125
0.5278982162475586,0.7349641799926757
0.5278982162475586,0.7349641799926757
0.5262325286865234,0.7351381301879882
0.5262325286865234,0.7351381301879882
0.5264705657958985,0.7335491180419922
0.5264705657958985,0.7335491180419922
0.5268013000488281,0.7347787857055664
0.5268013000488281,0.7347787857055664
0.5257038116455078,0.7320259094238281
0.5257038116455078,0.7320259094238281
0.5271852493286132,0.7336000442504883
0.5271852493286132,0.7336000442504883
0.5254989624023437,0.7325254440307617
0.5254989624023437,0.7325254440307617
0.5259166717529297,0.7317461013793946
0.5259166717529297,0.7317461013793946
0.5258972167968750,0.7331193923950196
0.5258972167968750,0.7331193923950196
0.5252523422241211,0.7320384979248047
0.5252523422241211,0.7320384979248047
0.5268013000488281,0.7319246292114258
0.5268013000488281,0.7319246292114258
0.5254755020141602,0.7320716857910156
0.5254755020141602,0.7320716857910156
0.5256843566894531,0.7311933517456054
0.5256843566894531,0.7311933517456054
0.5262817382812500,0.7346305847167969
0.5262817382812500,0.7346305847167969
0.5256900787353516,0.7327182769775390
0.5256900787353516,0.7327182769775390
0.5259939193725586,0.7332584381103515
0.5259939193725586,0.7309701919555663
0.5274570465087890,0.7350563049316406
0.5274570465087890,0.7350563049316406
0.5258457183837890,0.7342901229858398
0.5258457183837890,0.7342901229858398
0.5297882080078125,0.7346197128295898
0.5297882080078125,0.7346197128295898
0.5265769958496094,0.7337608337402344
0.5265769958496094,0.7337608337402344
0.5265329360961913,0.7343965530395508
0.5265329360961913,0.7343965530395508
0.5280647277832031,0.7363552093505860
0.5280647277832031,0.7363552093505860
0.5293167114257812,0.7351278305053711
0.5293167114257812,0.7351278305053711
0.5274381637573242,0.7337631225585938
0.5274381637573242,0.7337631225585938
0.5271171569824219,0.7369188308715821
0.5271171569824219,0.7369188308715821
0.5270816802978515,0.7358682632446288
0.5270816802978515,0.7358682632446288
0.5314252853393554,0.7377285003662110
0.5314252853393554,0.7377285003662110
0.5269489288330078,0.7346889495849609
0.5269489288330078,0.7346889495849609
0.5281259536743164,0.7374956130981445
0.5281259536743164,0.7374956130981445
0.5279045104980469,0.7389747619628906
0.5279045104980469,0.7389747619628906
0.5307958602905273,0.7378469467163086
0.5307958602905273,0.7378469467163086
0.5294437408447266,0.7380432128906250
0.5294437408447266,0.7380432128906250
0.5279102325439453,0.7391830444335937
0.5279102325439453,0.7391830444335937
0.5291227340698242,0.7404064178466797
0.5291227340698242,0.7404064178466797
0.5317857742309570,0.7415885925292969
0.5317857742309570,0.7415885925292969
0.5289258956909180,0.7384317398071288
0.5289258956909180,0.7384317398071288
0.5304439544677734,0.7425704956054687
0.5304439544677734,0.7425704956054687
0.5289144515991211,0.7418048858642577
0.5289144515991211,0.7418048858642577
0.5330017089843749,0.7426128387451172
0.5330017089843749,0.7426128387451172
0.5297544479370117,0.7420166015624999
0.5297790527343750,0.7429664611816406
0.5297790527343750,0.7429664611816406
0.5314149856567383,0.7453777313232421
0.5314149856567383,0.7453777313232421
0.5327625274658203,0.7441755294799804
0.5327625274658203,0.7441755294799804
0.5309566497802735,0.7428955078125000
0.5309566497802735,0.7428955078125000
0.5306980133056640,0.7463298797607422
0.5306980133056640,0.7463298797607422
0.5307718276977539,0.7453022003173828
0.5307718276977539,0.7453022003173828
0.5352916717529297,0.7473775863647460
0.5352916717529297,0.7473775863647460
0.5307998657226562,0.7443838119506836
0.5307998657226562,0.7443838119506836
0.5317583084106445,0.7470628738403320
0.5317583084106445,0.7470628738403320
0.5316450119018554,0.7488790512084961
0.5316450119018554,0.7488790512084961
0.5345008850097656,0.7472585678100586
0.5345008850097656,0.7472585678100586
0.5330915451049805,0.7473152160644531
0.5330915451049805,0.7473152160644531
0.5316009521484375,0.7484756469726562
0.5316009521484375,0.7484756469726562
0.5326538085937500,0.7490873336791992
0.5326538085937500,0.7490873336791992
0.5353483200073242,0.7505327224731445
0.5353483200073242,0.7505327224731445
0.5323940277099609,0.7470914840698242
0.5323940277099609,0.7470914840698242
0.5338954925537109,0.7509922027587891
0.5338954925537109,0.7509922027587891
0.5323991775512695,0.7505344390869141
0.5323991775512695,0.7505344390869141
0.5362981796264649,0.7508405685424805
0.5362981796264649,0.7508405685424805
0.5330411911010742,0.7500417709350585
0.5330411911010742,0.7500417709350585
0.5328592300415039,0.7504594802856445
0.5328592300415039,0.7504594802856445
0.5343343734741210,0.7521617889404296
0.5343343734741210,0.7521617889404296
0.5355325698852539,0.7503719329833984
0.5355325698852539,0.7503719329833984
0.5330989837646484,0.7477180480957031
0.5330989837646484,0.7477180480957031
0.5320575714111327,0.7493448257446289
0.5320575714111327,0.7493448257446289
0.5312587738037109,0.7461559295654296
0.5312587738037109,0.7461559295654296
0.5346691131591796,0.7452913284301758
0.5346691131591796,0.7452913284301758
0.5292531967163085,0.7396659851074219
0.5292531967163085,0.7396659851074219
0.5292926788330078,0.7401025772094726
0.5292926788330078,0.7401025772094726
0.5283330917358399,0.7399400711059571
0.5283330917358399,0.7399400711059571
0.5307237625122070,0.7375288009643555
0.5307237625122070,0.7375288009643555
0.5289545059204102,0.7364479064941406
0.5289545059204102,0.7364479064941406
0.5271903991699218,0.7368501663208008
0.5271903991699218,0.7368501663208008
0.5277706146240234,0.7370853424072266
0.5277706146240234,0.7370853424072266
0.5302339553833008,0.7376432418823242
0.5302339553833008,0.7376432418823242
0.5270793914794921,0.7337133407592773
0.5270793914794921,0.7337133407592773
0.5283554077148437,0.7370349884033203
0.5283554077148437,0.7370349884033203
0.5267784118652343,0.7356187820434570
0.5267784118652343,0.7356187820434570
0.5303117752075195,0.7357950210571289
0.5303117752075195,0.7357950210571289
0.5269638061523437,0.7347272872924805
0.5269638061523437,0.7347272872924805
0.5266874313354492,0.7350666046142578
0.5266874313354492,0.7350666046142578
0.5282804489135742,0.7372060775756836
0.5282804489135742,0.7372060775756836
0.5297601699829101,0.7360862731933594
0.5297601699829101,0.7360862731933594
0.5276922225952149,0.7347908020019531
0.5276922225952149,0.7347908020019531
0.5275514602661132,0.7382417678833008
0.5275514602661132,0.7382417678833008
0.5275228500366210,0.7370641708374023
0.5275228500366210,0.7370641708374023
0.5320552825927735,0.7390417098999024
0.5320552825927735,0.7390417098999024
0.5276161193847656,0.7362201690673827
0.5287158966064452,0.7362201690673827
0.5284492492675781,0.7387315750122070
0.5284492492675781,0.7387315750122070
0.5282358169555664,0.7404144287109374
0.5291170120239258,0.7404144287109374
0.5310338973999024,0.7385335922241211
0.5310338973999024,0.7385335922241211
0.5296274185180664,0.7384019851684570
0.5296274185180664,0.7384019851684570
0.5281660079956054,0.7394107818603516
0.5281660079956054,0.7394107818603516
0.5289442062377929,0.7399011611938476
0.5289442062377929,0.7399011611938476
0.5316490173339844,0.7411325454711913
0.5316490173339844,0.7411325454711913
0.5285739898681641,0.7377496719360351
0.5285739898681641,0.7377496719360351
0.5300851821899414,0.7415588378906249
0.5300851821899414,0.7415588378906249
0.5287033081054687,0.7409803390502929
0.5287033081054687,0.7409803390502929
0.5323659896850585,0.7414020538330078
0.5323659896850585,0.7414020538330078
0.5292394638061523,0.7408281326293945
0.5292394638061523,0.7408281326293945
0.5291765213012695,0.7413763046264649
0.5291765213012695,0.7413763046264649
0.5309354782104492,0.7433687210083008
0.5309354782104492,0.7433687210083008
0.5324460983276367,0.7426860809326171
0.5324460983276367,0.7426860809326171
0.5302110671997070,0.7413019180297852
0.5302110671997070,0.7413019180297852
0.5299770355224609,0.7448186874389648
0.5299770355224609,0.7448186874389648
0.5300016403198242,0.7439191818237304
0.5300016403198242,0.7439191818237304
0.5345958709716797,0.7456220626831055
0.5345958709716797,0.7456220626831055
0.5302797317504883,0.7429378509521484
0.5302797317504883,0.7429378509521484
0.5311283111572266,0.7455574035644531
0.5311283111572266,0.7455574035644531
0.5309291839599609,0.7470491409301757
0.5309291839599609,0.7470491409301757
0.5338525772094727,0.7457153320312500
0.5338525772094727,0.7457153320312500
0.5324409484863281,0.7455665588378906
0.5324409484863281,0.7455665588378906
0.5310430526733398,0.7469427108764648
0.5310430526733398,0.7469427108764648
0.5318962097167969,0.7476665496826171
0.5318962097167969,0.7476665496826171
0.5346147537231445,0.7489002227783202
0.5346147537231445,0.7489002227783202
0.5315906524658203,0.7455448150634766
0.5315906524658203,0.7455448150634766
0.5331859588623047,0.7492177963256835
0.5331859588623047,0.7492177963256835
0.5317760467529297,0.7485809326171875
0.5317760467529297,0.7485809326171875
0.5354507446289062,0.7490444183349609
0.5354507446289062,0.7490444183349609
0.5322572708129882,0.7484710693359374
0.5322572708129882,0.7484710693359374
0.5321165084838867,0.7490999221801757
0.5321165084838867,0.7490999221801757
0.5338634490966797,0.7512468338012696
0.5338634490966797,0.7512468338012696
0.5354290008544922,0.7502214431762695
0.5354290008544922,0.7502214431762695
0.5332128524780273,0.7488315582275390
0.5332128524780273,0.7488315582275390
0.5330377578735351,0.7521841049194335
0.5330377578735351,0.7521841049194335
0.5329502105712890,0.7509195327758789
0.5329502105712890,0.7509195327758789
0.5375936508178710,0.7527654647827148
0.5375936508178710,0.7527654647827148
0.5331550598144531,0.7498781204223632
0.5331550598144531,0.7498781204223632
0.5337415695190429,0.7521560668945312
0.5337415695190429,0.7521560668945312
0.5335201263427735,0.7535322189331054
0.5335201263427735,0.7535322189331054
0.5360292434692383,0.7509967803955078
0.5360292434692383,0.7509967803955078
0.5342754364013672,0.7494083404541015
0.5342754364013672,0.7494083404541015
0.5321308135986328,0.7488687515258788
0.5321308135986328,0.7488687515258788
0.5319459915161132,0.7471967697143554
0.5319459915161132,0.7471967697143554
0.5338382720947266,0.7460466384887695
0.5338382720947266,0.7460466384887695
0.5297355651855469,0.7401025772094726
0.5297355651855469,0.7401025772094726
0.5305727005004882,0.7419771194458008
0.5305727005004882,0.7419771194458008
0.5286128997802734,0.7402851104736328
0.5286128997802734,0.7402851104736328
0.5317903518676758,0.7392436981201171
0.5317903518676758,0.7392436981201171
0.5283514022827148,0.7379756927490234
0.5283514022827148,0.7379756927490234
0.5278490066528320,0.7377353668212890
0.5278490066528320,0.7377353668212890
0.5293493270874023,0.7389833450317382
0.5293493270874023,0.7389833450317382
0.5305315017700195,0.7378223419189452
0.5286930084228515,0.7378223419189452
0.5281373977661132,0.7357835769653320
0.5281373977661132,0.7357835769653320
0.5277196884155273,0.7386451721191406
0.5277196884155273,0.7386451721191406
0.5274822235107421,0.7370286941528320
0.5274822235107421,0.7370286941528320
0.5318567276000976,0.7381467819213867
0.5318567276000976,0.7381467819213867
0.5274833679199219,0.7352823257446289
0.5274833679199219,0.7352823257446289
0.5279291152954101,0.7375150680541992
0.5279291152954101,0.7375150680541992
0.5279205322265624,0.7391716003417969
0.5279205322265624,0.7391716003417969
0.5307317733764648,0.7376678466796874
0.5307317733764648,0.7376678466796874
0.5295049667358398,0.7375608444213867
0.5295049667358398,0.7375608444213867
0.5280389785766602,0.7390834808349609
0.5280389785766602,0.7390834808349609
0.5289035797119140,0.7398427963256836
0.5289035797119140,0.7398427963256836
0.5315282821655273,0.7408847808837891
0.5315282821655273,0.7408847808837891
0.5284366607666016,0.7374446868896484
0.5284366607666016,0.7374446868896484
0.5300205230712890,0.7409105300903320
0.5300205230712890,0.7409105300903320
0.5284978866577148,0.7400424957275390
0.5284978866577148,0.7400424957275390
0.5321393966674804,0.7403554916381836
0.5321393966674804,0.7403554916381836
0.5288120269775390,0.7396265029907226
0.5288120269775390,0.7396265029907226
0.5286695480346679,0.7399372100830078
0.5286695480346679,0.7399372100830078
0.5302762985229492,0.7417173385620117
0.5302762985229492,0.7417173385620117
0.5316804885864258,0.7408218383789062
0.5316804885864258,0.7408218383789062
0.5293767929077148,0.7391584396362304
0.5293767929077148,0.7391584396362304
0.5303655624389648,0.7430826187133789
0.5303655624389648,0.7426340103149414
0.5290855407714844,0.7424995422363281
0.5337060928344727,0.7424995422363281
0.5298168182373046,0.7421699523925781
0.5298168182373046,0.7421699523925781
0.5302293777465820,0.7441909790039062
0.5302293777465820,0.7441909790039062
0.5294998168945312,0.7436851501464844
0.5294998168945312,0.7436851501464844
0.5311105728149413,0.7438894271850586
0.5311105728149413,0.7438894271850586
0.5299610137939453,0.7444988250732422
0.5299610137939453,0.7444988250732422
0.5303844451904297,0.7435729980468749
0.5303844451904297,0.7435729980468749
0.5312261581420898,0.7469495773315430
0.5312261581420898,0.7469495773315430
0.5303060531616210,0.7451271057128906
0.5303060531616210,0.7451271057128906
0.5319631576538085,0.7460220336914062
0.5319631576538085,0.7460220336914062
0.5304754257202148,0.7464065551757812
0.5304754257202148,0.7464065551757812
0.5312433242797852,0.7469295501708985
0.5312433242797852,0.7469295501708985
0.5319597244262695,0.7484727859497070
0.5319597244262695,0.7484727859497070
0.5310453414916992,0.7470949172973632
0.5310453414916992,0.7470949172973632
0.5325754165649413,0.7472099304199219
0.5325754165649413,0.7472099304199219
0.5312747955322266,0.7490970611572265
0.5312747955322266,0.7490970611572265
0.5320146560668945,0.7481781005859375
0.5320146560668945,0.7481781005859375
0.5328088760375976,0.7501916885375977
0.5328088760375976,0.7501916885375977
0.5315082550048827,0.7486198425292968
0.5315082550048827,0.7486198425292968
0.5333021163940429,0.7501728057861328
0.5333021163940429,0.7501728057861328
0.5319396972656250,0.7500669479370117
0.5319396972656250,0.7500669479370117
0.5326686859130859,0.7496887207031250
0.5326686859130859,0.7496887207031250
0.5332288742065430,0.7510208129882813
0.5332288742065430,0.7510208129882813
0.5321559906005859,0.7508686065673827
0.5321559906005859,0.7508686065673827
0.5339349746704102,0.7510602951049804
0.5339349746704102,0.7510602951049804
0.5325685501098633,0.7515037536621093
0.5325685501098633,0.7515037536621093
0.5330892562866211,0.7509899139404297
0.5330892562866211,0.7509899139404297
0.5338891983032227,0.7538337707519531
0.5338891983032227,0.7538337707519531
0.5327470779418945,0.7518899917602538
0.5327470779418945,0.7518899917602538
0.5345912933349609,0.7523941040039063
0.5345912933349609,0.7523941040039063
0.5328248977661133,0.7518922805786132
0.5328248977661133,0.7518922805786132
0.5333461761474609,0.7521692276000976
0.5333461761474609,0.7521692276000976
0.5336763381958007,0.7523265838623047
0.5336763381958007,0.7523265838623047
0.5320037841796875,0.7492429733276367
0.5320037841796875,0.7492429733276367
0.5326263427734375,0.7476779937744140
0.5326263427734375,0.7476779937744140
0.5302831649780273,0.7461771011352539
0.5302831649780273,0.7461771011352539
0.5298923492431641,0.7424446105957031
0.5298923492431641,0.7424446105957031
0.5298746109008788,0.7421819686889648
0.5298746109008788,0.7421819686889648
0.5279411315917969,0.7387052536010742
0.5279411315917969,0.7387052536010742
0.5292572021484375,0.7395349502563476
0.5292572021484375,0.7395349502563476
0.5274467468261719,0.7384414672851562
0.5274467468261719,0.7384414672851562
0.5278501510620117,0.7371929168701171
0.5278501510620117,0.7371929168701171
0.5280515670776367,0.7383344650268554
0.5280515670776367,0.7383344650268554
0.5267910003662110,0.7368181228637695
0.5267910003662110,0.7368181228637695
0.5281923294067382,0.7362115859985351
0.5281923294067382,0.7362115859985351
0.5266685485839844,0.7360010147094727
0.5266685485839844,0.7360010147094727
0.5267910003662110,0.7344160079956055
0.5267910003662110,0.7344160079956055
0.5274106979370117,0.7371809005737304
0.5274106979370117,0.7371809005737304
0.5260574340820312,0.7347501754760742
0.5260574340820312,0.7347501754760742
0.5277500152587891,0.7350980758666992
0.5277500152587891,0.7350980758666992
0.5260528564453125,0.7352697372436523
0.5260528564453125,0.7352697372436523
0.5268276214599609,0.7355707168579101
0.5268276214599609,0.7355707168579101
0.5275995254516601,0.7370779037475585
0.5275995254516601,0.7370779037475585
0.5266462326049804,0.7358396530151367
0.5266462326049804,0.7358396530151367
0.5281694412231445,0.7361738204956054
0.5281694412231445,0.7361738204956054
0.5269346237182617,0.7380363464355468
0.5269346237182617,0.7380363464355468
0.5275720596313477,0.7371162414550781
0.5275720596313477,0.7371162414550781
0.5285442352294921,0.7390903472900391
0.5285442352294921,0.7390903472900391
0.5271629333496094,0.7376552581787109
0.5271629333496094,0.7376552581787109
0.5289339065551758,0.7389255523681640
0.5289339065551758,0.7389255523681640
0.5275474548339844,0.7388128280639649
0.5275474548339844,0.7388128280639649
0.5282484054565429,0.7383275985717773
0.5282484054565429,0.7383275985717773
0.5287216186523437,0.7396860122680664
0.5287216186523437,0.7396860122680664
0.5275995254516601,0.7394165039062500
0.5275995254516601,0.7394165039062500
0.5294111251831054,0.7395166397094727
0.5294111251831054,0.7395166397094727
0.5281505584716797,0.7400053024291992
0.5281505584716797,0.7400053024291992
0.5284635543823242,0.7394542694091797
0.5284635543823242,0.7394542694091797
0.5293630599975586,0.7421579360961914
0.5293630599975586,0.7421579360961914
0.5281900405883789,0.7402261734008789
0.5281900405883789,0.7402261734008789
0.5301012039184571,0.7410078048706055
0.5301012039184571,0.7410078048706055
0.5285482406616211,0.7410020828247070
0.5285482406616211,0.7410020828247070
0.5292881011962890,0.7420503616333007
0.5292881011962890,0.7420503616333007
0.5301492691040038,0.7435764312744141
0.5301492691040038,0.7435764312744141
0.5289991378784179,0.7424028396606445
0.5289991378784179,0.7424028396606445
0.5307151794433593,0.7430459976196289
0.5307151794433593,0.7430459976196289
0.5294820785522460,0.7446081161499023
0.5294820785522460,0.7446081161499023
0.5301532745361328,0.7437595367431641
0.5301532745361328,0.7437595367431641
0.5311580657958984,0.7456752777099609
0.5307666778564453,0.7456752777099609
0.5296995162963867,0.7438962936401367
0.5296995162963867,0.7438962936401367
0.5315797805786132,0.7459814071655273
0.5313720703125000,0.7459814071655273
0.5349866867065429,0.7460157394409179
0.5349866867065429,0.7460157394409179
0.5309703826904296,0.7456512451171875
0.5300405502319335,0.7456512451171875
0.5315643310546875,0.7475206375122070
0.5315643310546875,0.7475206375122070
0.5304588317871094,0.7470720291137695
0.5304588317871094,0.7470720291137695
0.5323247909545898,0.7472362518310547
0.5323247909545898,0.7472362518310547
0.5312061309814453,0.7479200363159180
0.5312061309814453,0.7479200363159180
0.5315694808959961,0.7470056533813476
0.5315694808959961,0.7470056533813476
0.5326114654541015,0.7501905441284179
0.5326114654541015,0.7501905441284179
0.5313280105590820,0.7484258651733399
0.5313280105590820,0.7484258651733399
0.5332746505737305,0.7493356704711914
0.5332746505737305,0.7493356704711914
0.5317949295043946,0.7498741149902344
0.5317949295043946,0.7498741149902344
0.5325210571289062,0.7502552032470703
0.5325210571289062,0.7502552032470703
0.5333787918090820,0.7517400741577148
0.5333787918090820,0.7517400741577148
0.5321971893310546,0.7504983901977539
0.5321971893310546,0.7504983901977539
0.5338348388671875,0.7505607604980469
0.5338348388671875,0.7505607604980469
0.5325571060180664,0.7522733688354492
0.5325571060180664,0.7522733688354492
0.5330915451049805,0.7510854721069335
0.5330915451049805,0.7510854721069335
0.5339012145996094,0.7525806427001953
0.5339012145996094,0.7525806427001953
0.5320787429809570,0.7501762390136718
0.5320787429809570,0.7501762390136718
0.5335464477539062,0.7501235961914062
0.5335464477539062,0.7501235961914062
0.5314481735229492,0.7481357574462890
0.5314481735229492,0.7481357574462890
0.5310956954956054,0.7450658798217773
0.5310956954956054,0.7450658798217773
0.5306585311889648,0.7436279296875000
0.5306585311889648,0.7436279296875000
0.5283256530761719,0.7410673141479492
0.5283256530761719,0.7410673141479492
0.5295141220092773,0.7393301010131835
0.5295141220092773,0.7393301010131835
0.5275857925415038,0.7387424468994140
0.5275857925415038,0.7387424468994140
0.5274616241455078,0.7370435714721679
0.5274616241455078,0.7370435714721679
0.5281637191772460,0.7386949539184570
0.5281637191772460,0.7386949539184570
0.5264265060424804,0.7359689712524414
0.5264265060424804,0.7359689712524414
0.5282444000244141,0.7358098983764648
0.5282444000244141,0.7358098983764648
0.5262531280517578,0.7350517272949219
0.5262531280517578,0.7350517272949219
0.5266061782836914,0.7351478576660156
0.5266061782836914,0.7351478576660156
0.5273105621337890,0.7357835769653320
0.5273105621337890,0.7357835769653320
0.5257759094238281,0.7339565277099609
0.5257759094238281,0.7339565277099609
0.5272470474243164,0.7339754104614258
0.5272470474243164,0.7339754104614258
0.5258279800415039,0.7348360061645508
0.5258279800415039,0.7348360061645508
0.5261787414550781,0.7334226608276367
0.5261787414550781,0.7334226608276367
0.5271394729614257,0.7350477218627930
0.5271394729614257,0.7350477218627930
0.5255510330200195,0.7331153869628906
0.5255510330200195,0.7331153869628906
0.5275171279907226,0.7352405548095703
0.5275171279907226,0.7352405548095703
0.5261775970458984,0.7353727340698242
0.5261775970458984,0.7353727340698242
0.5269289016723633,0.7351781845092773
0.5269289016723633,0.7351781845092773
0.5276521682739258,0.7369016647338867
0.5276521682739258,0.7369016647338867
0.5264207839965820,0.7365222930908203
0.5264207839965820,0.7365222930908203
0.5282747268676757,0.7365062713623046
0.5282747268676757,0.7365062713623046
0.5270776748657227,0.7368988037109375
0.5270776748657227,0.7368988037109375
0.5272075653076171,0.7356307983398437
0.5272075653076171,0.7356307983398437
0.5281305313110352,0.7385896682739258
0.5281305313110352,0.7385896682739258
0.5266725540161132,0.7366241455078125
0.5266725540161132,0.7366241455078125
0.5285808563232421,0.7371677398681641
0.5281528472900391,0.7371677398681641
0.5270284652709961,0.7374670028686523
0.5270284652709961,0.7374670028686523
0.5275955200195312,0.7377262115478516
0.5275955200195312,0.7377262115478516
0.5285442352294921,0.7389707565307617
0.5285442352294921,0.7389707565307617
0.5273117065429688,0.7375831604003906
0.5273117065429688,0.7375831604003906
0.5288406372070312,0.7376775741577148
0.5288406372070312,0.7376775741577148
0.5276790618896484,0.7395658493041992
0.5276790618896484,0.7395658493041992
0.5282518386840820,0.7385965347290039
0.5282518386840820,0.7385965347290039
0.5292337417602538,0.7405500411987305
0.5292337417602538,0.7405500411987305
0.5276401519775390,0.7393661499023437
0.5276401519775390,0.7393661499023437
0.5296342849731445,0.7408035278320312
0.5296342849731445,0.7408035278320312
0.5283576965332031,0.7409128189086914
0.5283576965332031,0.7409128189086914
0.5290803909301758,0.7406358718872070
0.5290803909301758,0.7406358718872070
0.5298660278320312,0.7419662475585938
0.5298660278320312,0.7419662475585938
0.5285339355468750,0.7420578002929688
0.5285339355468750,0.7420578002929688
0.5304834365844726,0.7424720764160156
0.5304834365844726,0.7424720764160156
0.5295249938964843,0.7432788848876953
0.5295249938964843,0.7432788848876953
0.5297126770019531,0.7427261352539062
0.5297126770019531,0.7427261352539062
0.5308456420898438,0.7455728530883788
0.5308456420898438,0.7455728530883788
0.5295513153076171,0.7438854217529297
0.5295513153076171,0.7438854217529297
0.5300371170043945,0.7423524856567383
0.5295696258544922,0.7423524856567383
0.5319986343383789,0.7456403732299804
0.5319986343383789,0.7456403732299804
0.5303895950317382,0.7455551147460937
0.5303895950317382,0.7455551147460937
0.5342147827148437,0.7457954406738281
0.5342147827148437,0.7457954406738281
0.5312736511230468,0.7456134796142578
0.5312736511230468,0.7456134796142578
0.5308559417724609,0.7462778091430664
0.5308559417724609,0.7462778091430664
0.5327339172363281,0.7477872848510742
0.5327339172363281,0.7477872848510742
0.5341655731201171,0.7475280761718750
0.5341655731201171,0.7475280761718750
0.5318744659423827,0.7457857131958008
0.5318744659423827,0.7457857131958008
0.5319356918334961,0.7492904663085938
0.5319356918334961,0.7492904663085938
0.5316547393798828,0.7479200363159180
0.5316547393798828,0.7479200363159180
0.5364675521850586,0.7490713119506835
0.5364675521850586,0.7490713119506835
0.5315420150756835,0.7465381622314453
0.5315420150756835,0.7465381622314453
0.5318550109863281,0.7476007461547851
0.5318550109863281,0.7476007461547851
0.5315237045288086,0.7479881286621094
0.5315237045288086,0.7479881286621094
0.5333822250366210,0.7441509246826171
0.5333822250366210,0.7441509246826171
0.5311557769775390,0.7408475875854492
0.5311557769775390,0.7408475875854492
0.5285659790039062,0.7398427963256836
0.5285659790039062,0.7398427963256836
0.5283983230590820,0.7381107330322265
0.5283983230590820,0.7381107330322265
0.5308158874511718,0.7381301879882812
0.5308158874511718,0.7381301879882812
0.5268922805786133,0.7336870193481445
0.5268922805786133,0.7336870193481445
0.5281934738159180,0.7356187820434570
0.5281934738159180,0.7356187820434570
0.5262989044189453,0.7346740722656250
0.5262989044189453,0.7346740722656250
0.5295764923095703,0.7337619781494140
0.5295764923095703,0.7337619781494140
0.5263744354248047,0.7326627731323242
0.5263744354248047,0.7326627731323242
0.5256654739379882,0.7324825286865234
0.5256654739379882,0.7324825286865234
0.5272590637207031,0.7329351425170898
0.5272590637207031,0.7329351425170898
0.5283668518066406,0.7321603775024413
0.5283668518066406,0.7321603775024413
0.5257221221923828,0.7295917510986328
0.5257221221923828,0.7295917510986328
0.5255613327026367,0.7323961257934570
0.5255613327026367,0.7323961257934570
0.5249267578125000,0.7307836532592773
0.5249267578125000,0.7307836532592773
0.5295736312866210,0.7310926437377929
0.5295736312866210,0.7310926437377929
0.5247682571411133,0.7287637710571289
0.5247682571411133,0.7287637710571289
0.5252363204956054,0.7306159973144531
0.5247167587280274,0.7306159973144531
0.5255802154541015,0.7324144363403320
0.5255802154541015,0.7324144363403320
0.5281013488769531,0.7312288284301758
0.5281013488769531,0.7312288284301758
0.5269254684448242,0.7305244445800781
0.5269254684448242,0.7305244445800781
0.5253810882568359,0.7323921203613281
0.5253810882568359,0.7323921203613281
0.5261770248413086,0.7329179763793945
0.5261770248413086,0.7329179763793945
0.5292251586914062,0.7344120025634765
0.5292251586914062,0.7344120025634765
0.5258628845214843,0.7311887741088867
0.5258628845214843,0.7311887741088867
0.5277111053466796,0.7340080261230468
0.5277111053466796,0.7340080261230468
0.5259979248046874,0.7339147567749024
0.5259979248046874,0.7339147567749024
0.5295867919921875,0.7338626861572265
0.5295867919921875,0.7338626861572265
0.5267217636108398,0.7335823059082031
0.5267217636108398,0.7335823059082031
0.5261524200439452,0.7340440750122070
0.5261524200439452,0.7340440750122070
0.5280544281005859,0.7353910446166992
0.5280544281005859,0.7353910446166992
0.5292875289916992,0.7348960876464844
0.5292875289916992,0.7348960876464844
0.5269432067871094,0.7329689025878906
0.5269432067871094,0.7329689025878906
0.5269804000854492,0.7365606307983398
0.5269804000854492,0.7365606307983398
0.5265283584594727,0.7353137969970703
0.5265283584594727,0.7353137969970703
0.5314682006835937,0.7363935470581054
0.5314682006835937,0.7363935470581054
0.5267841339111328,0.7343679428100586
0.5267841339111328,0.7343679428100586
0.5275045394897461,0.7364850997924804
0.5275045394897461,0.7364850997924804
0.5276596069335937,0.7386199951171875
0.5276596069335937,0.7386199951171875
0.5303495407104492,0.7371648788452149
0.5303495407104492,0.7371648788452149
0.5291381835937500,0.7366029739379882
0.5291381835937500,0.7366029739379882
0.5277088165283202,0.7384695053100586
0.5277088165283202,0.7384695053100586
0.5284755706787109,0.7389587402343750
0.5284755706787109,0.7389587402343750
0.5317514419555663,0.7410169601440429
0.5317514419555663,0.7410169601440429
0.5282678604125977,0.7380043029785156
0.5282678604125977,0.7380043029785156
0.5302001953125000,0.7412441253662109
0.5302001953125000,0.7412441253662109
0.5287937164306641,0.7416589736938476
0.5287937164306641,0.7416589736938476
0.5326011657714843,0.7417362213134765
0.5326011657714843,0.7417362213134765
0.5297389984130859,0.7417036056518554
0.5297389984130859,0.7417036056518554
0.5292915344238281,0.7423873901367187
0.5292915344238281,0.7423873901367187
0.5311477661132812,0.7436634063720703
0.5311477661132812,0.7436634063720703
0.5326910018920898,0.7435638427734375
0.5326910018920898,0.7435638427734375
0.5302854537963867,0.7418008804321289
0.5302854537963867,0.7418008804321289
0.5303895950317382,0.7455785751342773
0.5303895950317382,0.7455785751342773
0.5299592971801758,0.7445537567138671
0.5299592971801758,0.7445537567138671
0.5349626541137695,0.7455516815185547
0.5349626541137695,0.7455516815185547
0.5302825927734375,0.7435632705688476
0.5302825927734375,0.7435632705688476
0.5310556411743164,0.7456541061401367
0.5310556411743164,0.7456541061401367
0.5312673568725585,0.7475149154663085
0.5312673568725585,0.7475149154663085
0.5338829040527343,0.7464855194091796
0.5338829040527343,0.7464855194091796
0.5328134536743164,0.7456501007080077
0.5328134536743164,0.7456501007080077
0.5312192916870117,0.7477489471435547
0.5312192916870117,0.7477489471435547
0.5319774627685546,0.7483074188232421
0.5319774627685546,0.7483074188232421
0.5352052688598633,0.7498987197875976
0.5352052688598633,0.7498987197875976
0.5317714691162109,0.7466726303100586
0.5317714691162109,0.7466726303100586
0.5335338592529296,0.7493322372436523
0.5335338592529296,0.7493322372436523
0.5317285537719726,0.7484470367431640
0.5317285537719726,0.7484470367431640
0.5348367691040039,0.7471315383911132
0.5348367691040039,0.7471315383911132
0.5312015533447265,0.7448003768920898
0.5312015533447265,0.7448003768920898
0.5295667648315430,0.7424772262573242
0.5295667648315430,0.7424772262573242
0.5303163528442383,0.7407302856445312
0.5303163528442383,0.7407302856445312
0.5306247711181641,0.7378160476684570
0.5306247711181641,0.7378160476684570
0.5274913787841796,0.7340200424194335
0.5274913787841796,0.7340200424194335
0.5269317626953125,0.7359912872314452
0.5269317626953125,0.7359912872314452
0.5259012222290039,0.7333517074584961
0.5259012222290039,0.7333517074584961
0.5302831649780273,0.7332052230834961
0.5302831649780273,0.7332052230834961
0.5251562118530273,0.7302600860595703
0.5251562118530273,0.7302600860595703
0.5255264282226563,0.7313072204589843
0.5255264282226563,0.7313072204589843
0.5254142761230468,0.7326616287231446
0.5254142761230468,0.7326616287231446
0.5277288436889648,0.7304906845092773
0.5277288436889648,0.7304906845092773
0.5264087677001953,0.7291248321533202
0.5264087677001953,0.7291248321533202
0.5246417999267577,0.7302560806274414
0.5246417999267577,0.7302560806274414
0.5251087188720703,0.7297851562500000
0.5251087188720703,0.7297851562500000
0.5279869079589844,0.7311510086059571
0.5279869079589844,0.7311510086059571
0.5243682861328125,0.7274843215942383
0.5243682861328125,0.7274843215942383
0.5260225296020508,0.7300661087036132
0.5260225296020508,0.7300661087036132
0.5244003295898437,0.7301084518432617
0.5244003295898437,0.7301084518432617
0.5280475616455078,0.7299945831298827
0.5280475616455078,0.7299945831298827
0.5252088546752930,0.7299304962158203
0.5252088546752930,0.7299304962158203
0.5248106002807617,0.7305370330810547
0.5248106002807617,0.7305370330810547
0.5267372131347656,0.7319686889648437
0.5267372131347656,0.7319686889648437
0.5281299591064453,0.7320053100585937
0.5281299591064453,0.7320053100585937
0.5258279800415039,0.7301811218261719
0.5258279800415039,0.7301811218261719
0.5258531570434570,0.7337917327880860
0.5258531570434570,0.7337917327880860
0.5253290176391602,0.7323938369750976
0.5253290176391602,0.7323938369750976
0.5300857543945312,0.7329145431518554
0.5300857543945312,0.7329145431518554
0.5252843856811523,0.7305770874023437
0.5252843856811523,0.7305770874023437
0.5258457183837890,0.7322622299194336
0.5258457183837890,0.7322622299194336
0.5259630203247070,0.7338855743408202
0.5259630203247070,0.7338855743408202
0.5283811569213867,0.7325391769409180
0.5283811569213867,0.7325391769409180
0.5273105621337890,0.7316442489624023
0.5273105621337890,0.7316442489624023
0.5255945205688476,0.7335691452026367
0.5255945205688476,0.7335691452026367
0.5264345169067383,0.7340669631958008
0.5264345169067383,0.7340669631958008
0.5295896530151367,0.7358213424682617
0.5295896530151367,0.7358213424682617
0.5261787414550781,0.7327795028686523
0.5261787414550781,0.7327795028686523
0.5281219482421875,0.7358699798583984
0.5281219482421875,0.7358699798583984
0.5265392303466797,0.7360622406005859
0.5265392303466797,0.7360622406005859
0.5303215026855469,0.7361978530883789
0.5303215026855469,0.7361978530883789
0.5274913787841796,0.7361812591552734
0.5274913787841796,0.7361812591552734
0.5268871307373046,0.7367403030395507
0.5268871307373046,0.7367403030395507
0.5289110183715821,0.7380483627319335
0.5289110183715821,0.7380483627319335
0.5303255081176758,0.7377473831176757
0.5303255081176758,0.7377473831176757
0.5279296875000000,0.7359375000000000
0.5279296875000000,0.7359375000000000
0.5280910491943359,0.7396242141723632
0.5280910491943359,0.7396242141723632
0.5276401519775390,0.7383281707763671
0.5276401519775390,0.7383281707763671
0.5325674057006836,0.7395624160766602
0.5325674057006836,0.7395624160766602
0.5278873443603516,0.7377016067504882
0.5278873443603516,0.7377016067504882
0.5284687042236328,0.7397014617919921
0.5284687042236328,0.7397014617919921
0.5288892745971679,0.7419502258300781
0.5288892745971679,0.7419502258300781
0.5314001083374024,0.7404064178466797
0.5280120849609374,0.7404064178466797
0.5302814483642578,0.7396516799926758
0.5302814483642578,0.7396516799926758
0.5286575317382812,0.7415908813476563
0.5286575317382812,0.7415908813476563
0.5293750762939453,0.7417345046997070
0.5293750762939453,0.7417345046997070
0.5326669692993163,0.7437578201293945
0.5326669692993163,0.7437578201293945
0.5291576385498047,0.7407423019409179
0.5291576385498047,0.7407423019409179
0.5311311721801758,0.7436782836914062
0.5311311721801758,0.7436782836914062
0.5295633316040039,0.7439638137817383
0.5295633316040039,0.7439638137817383
0.5332820892333984,0.7438745498657227
0.5332820892333984,0.7438745498657227
0.5305046081542969,0.7439363479614257
0.5305046081542969,0.7439363479614257
0.5299306869506836,0.7445022583007812
0.5299306869506836,0.7445022583007812
0.5318635940551758,0.7455511093139648
0.5318635940551758,0.7455511093139648
0.5332323074340820,0.7452203750610351
0.5332323074340820,0.7452203750610351
0.5305034637451171,0.7424709320068359
0.5305034637451171,0.7424709320068359
0.5303741455078125,0.7435094833374023
0.5303741455078125,0.7435094833374023
0.5325468063354492,0.7413677215576172
0.5329387664794921,0.7413677215576172
0.5280858993530273,0.7379768371582031
0.5280858993530273,0.7379768371582031
0.5281219482421875,0.7368850708007812
0.5281219482421875,0.7368850708007812
0.5257987976074219,0.7349550247192382
0.5257987976074219,0.7349550247192382
0.5267572402954102,0.7336091995239258
0.5267572402954102,0.7336091995239258
0.5255229949951171,0.7331394195556641
0.5255229949951171,0.7331394195556641
0.5250051498413085,0.7310239791870117
0.5250051498413085,0.7310239791870117
0.5259973526000976,0.7325832366943359
0.5259973526000976,0.7325832366943359
0.5239620208740234,0.7299139022827148
0.5239620208740234,0.7299139022827148
0.5255172729492187,0.7299545288085937
0.5255172729492187,0.7299545288085937
0.5241725921630859,0.7295351028442383
0.5241725921630859,0.7295351028442383
0.5241954803466796,0.7293136596679687
0.5241954803466796,0.7293136596679687
0.5252517700195313,0.7300706863403320
0.5252517700195313,0.7300706863403320
0.5233411788940430,0.7282218933105469
0.5233411788940430,0.7282218933105469
0.5246406555175781,0.7285154342651367
0.5246406555175781,0.7285154342651367
0.5237451553344726,0.7295934677124023
0.5237451553344726,0.7295934677124023
0.5239740371704101,0.7280885696411132
0.5239740371704101,0.7280885696411132
0.5254474639892578,0.7298086166381835
0.5254474639892578,0.7298086166381835
0.5233789443969726,0.7280508041381836
0.5233789443969726,0.7280508041381836
0.5251842498779297,0.7302291870117187
0.5251842498779297,0.7302291870117187
0.5244077682495117,0.7307670593261718
0.5244077682495117,0.7307670593261718
0.5248054504394531,0.7300884246826171
0.5248054504394531,0.7300884246826171
0.5259716033935546,0.7319440841674805
0.5259716033935546,0.7319440841674805
0.5242601394653320,0.7314371109008789
0.5242601394653320,0.7314371109008789
0.5258605957031249,0.7316997528076171
0.5258605957031249,0.7316997528076171
0.5252420425415039,0.7324842453002930
0.5252420425415039,0.7324842453002930
0.5250783920288086,0.7307424545288086
0.5250783920288086,0.7307424545288086
0.5263687133789062,0.7336944580078125
0.5263687133789062,0.7336944580078125
0.5246423721313477,0.7317626953124999
0.5246423721313477,0.7317626953124999
0.5263074874877930,0.7324447631835938
0.5263074874877930,0.7324447631835938
0.5252088546752930,0.7329574584960937
0.5252088546752930,0.7329574584960937
0.5254886627197265,0.7327669143676757
0.5254886627197265,0.7327669143676757
0.5267555236816406,0.7339376449584961
0.5267555236816406,0.7339376449584961
0.5251934051513671,0.7327016830444336
0.5251934051513671,0.7327016830444336
0.5264184951782226,0.7329236984252929
0.5264184951782226,0.7329236984252929
0.5258611679077149,0.7349527359008788
0.5271623611450195,0.7349527359008788
0.5259206771850585,0.7336566925048827
0.5259206771850585,0.7336566925048827
0.5275188446044922,0.7357240676879883
0.5275188446044922,0.7357240676879883
0.5256443023681641,0.7345121383666992
0.5256443023681641,0.7345121383666992
0.5273042678833008,0.7361446380615234
0.5273042678833008,0.7361446380615234
0.5267051696777344,0.7365800857543945
0.5267051696777344,0.7365800857543945
0.5269643783569335,0.7357812881469726
0.5269643783569335,0.7357812881469726
0.5281551361083984,0.7373279571533203
0.5281551361083984,0.7373279571533203
0.5266113281250000,0.7373897552490234
0.5266113281250000,0.7373897552490234
0.5281654357910156,0.7378858566284180
0.5281654357910156,0.7378858566284180
0.5276023864746093,0.7389181137084960
0.5276023864746093,0.7389181137084960
0.5275714874267577,0.7379322052001953
0.5275714874267577,0.7379322052001953
0.5290935516357421,0.7406833648681640
0.5290935516357421,0.7406833648681640
0.5274209976196289,0.7391281127929688
0.5274209976196289,0.7391281127929688
0.5291604995727539,0.7400756835937500
0.5291604995727539,0.7400756835937500
0.5283010482788085,0.7404590606689453
0.5283010482788085,0.7404590606689453
0.5285705566406250,0.7407686233520507
0.5285705566406250,0.7407686233520507
0.5299478530883789,0.7422266006469727
0.5299478530883789,0.7422266006469727
0.5283359527587891,0.7410924911499023
0.5283359527587891,0.7410924911499023
0.5296182632446289,0.7418231964111328
0.5296182632446289,0.7418231964111328
0.5291296005249023,0.7435455322265625
0.5291296005249023,0.7435455322265625
0.5292039871215820,0.7420772552490235
0.5292039871215820,0.7420772552490235
0.5307106018066406,0.7440107345581054
0.5307106018066406,0.7440107345581054
0.5288440704345703,0.7423444747924804
0.5288440704345703,0.7423444747924804
0.5304393768310547,0.7443277359008789
0.5304393768310547,0.7443277359008789
0.5299833297729492,0.7449823379516601
0.5299833297729492,0.7449823379516601
0.5299833297729492,0.7439867019653320
0.5299833297729492,0.7439867019653320
0.5313812255859375,0.7458120346069336
0.5313812255859375,0.7458120346069336
0.5297161102294922,0.7457565307617188
0.5297161102294922,0.7457565307617188
0.5311225891113281,0.7457777023315429
0.5311225891113281,0.7457777023315429
0.5310659408569336,0.7470348358154296
0.5310659408569336,0.7470348358154296
0.5306367874145508,0.7453479766845703
0.5306367874145508,0.7453479766845703
0.5322332382202148,0.7483194351196288
0.5322332382202148,0.7483194351196288
0.5303318023681640,0.7466526031494141
0.5303318023681640,0.7466526031494141
0.5315763473510742,0.7463819503784179
0.5315763473510742,0.7463819503784179
0.5305412292480468,0.7460374832153320
0.5305412292480468,0.7460374832153320
0.5297109603881835,0.7435798645019531
0.5297109603881835,0.7435798645019531
0.5301933288574219,0.7420835494995117
0.5301933288574219,0.7420835494995117
0.5273214340209961,0.7377880096435546
0.5273214340209961,0.7377880096435546
0.5274112701416015,0.7351404190063476
0.5274112701416015,0.7351404190063476
0.5263120651245117,0.7354780197143554
0.5263120651245117,0.7354780197143554
0.5255664825439453,0.7320693969726563
0.5255664825439453,0.7320693969726563
0.5264797210693359,0.7324802398681640
0.5264797210693359,0.7324802398681640
0.5239322662353515,0.7297485351562499
0.5239322662353515,0.7297485351562499
0.5249141693115235,0.7298824310302734
0.5249141693115235,0.7298824310302734
0.5239608764648437,0.7292089462280273
0.5239608764648437,0.7292089462280273
0.5237920761108398,0.7271038055419922
0.5237920761108398,0.7271038055419922
0.5244993209838867,0.7274271011352539
0.5244993209838867,0.7274271011352539
0.5224914550781250,0.7266317367553711
0.5224914550781250,0.7266317367553711
0.5236003875732421,0.7259840011596680
0.5236003875732421,0.7259840011596680
0.5228456497192383,0.7263587951660156
0.5228456497192383,0.7263587951660156
0.5223890304565429,0.7244087219238281
0.5223890304565429,0.7244087219238281
0.5236616134643555,0.7265144348144531
0.5236616134643555,0.7265144348144531
0.5217630386352539,0.7244064331054687
0.5232416152954101,0.7248533248901367
0.5232416152954101,0.7248533248901367
0.5224216461181640,0.7251600265502930
0.5224216461181640,0.7251600265502930
0.5224285125732422,0.7252807617187500
0.5224285125732422,0.7252807617187500
0.5239585876464844,0.7268617630004882
0.5239585876464844,0.7268617630004882
0.5224267959594726,0.7258260726928710
0.5224267959594726,0.7258260726928710
0.5236232757568359,0.7265424728393555
0.5236232757568359,0.7265424728393555
0.5233154296875000,0.7284605026245117
0.5233154296875000,0.7284605026245117
0.5231878280639648,0.7267564773559571
0.5231878280639648,0.7267564773559571
0.5248483657836914,0.7286418914794922
0.5248483657836914,0.7286418914794922
0.5227369308471680,0.7269041061401367
0.5227369308471680,0.7269041061401367
0.5241640090942382,0.7285383224487304
0.5241640090942382,0.7285383224487304
0.5237731933593750,0.7289657592773438
0.5237731933593750,0.7289657592773438
0.5236513137817382,0.7276931762695312
0.5236513137817382,0.7276931762695312
0.5248758316040039,0.7294755935668945
0.5248758316040039,0.7294755935668945
0.5231660842895508,0.7289989471435546
0.5231660842895508,0.7289989471435546
0.5245353698730468,0.7289834976196289
0.5245353698730468,0.7289834976196289
0.5243991851806641,0.7301433563232421
0.5243991851806641,0.7301433563232421
0.5239082336425781,0.7283060073852539
0.5239082336425781,0.7283060073852539
0.5255310058593750,0.7314765930175781
0.5255310058593750,0.7314765930175781
0.5237909317016601,0.7299608230590821
0.5237909317016601,0.7299608230590821
0.5252483367919921,0.7307670593261718
0.5252483367919921,0.7307670593261718
0.5248294830322265,0.7319131851196289
0.5248294830322265,0.7319131851196289
0.5248294830322265,0.7315498352050781
0.5248294830322265,0.7315498352050781
0.5263366699218750,0.7331039428710937
0.5263366699218750,0.7331039428710937
0.5247894287109375,0.7323583602905274
0.5247894287109375,0.7323583602905274
0.5259263992309570,0.7324596405029297
0.5259263992309570,0.7324596405029297
0.5258371353149414,0.7350328445434570
0.5258371353149414,0.7350328445434570
0.5257507324218750,0.7335210800170898
0.5257507324218750,0.7335210800170898
0.5273082733154296,0.7356897354125976
0.5273082733154296,0.7356897354125976
0.5254938125610351,0.7347358703613281
0.5254938125610351,0.7347358703613281
0.5269655227661133,0.7360651016235351
0.5269655227661133,0.7360651016235351
0.5268093109130859,0.7369159698486328
0.5268093109130859,0.7369159698486328
0.5268465042114258,0.7358007431030273
0.5268465042114258,0.7358007431030273
0.5281053543090820,0.7374429702758789
0.5281053543090820,0.7374429702758789
0.5264259338378906,0.7376255035400391
0.5264259338378906,0.7376255035400391
0.5278347015380859,0.7379201889038086
0.5278347015380859,0.7379201889038086
0.5278112411499023,0.7392322540283203
0.5278112411499023,0.7392322540283203
0.5274364471435546,0.7381107330322265
0.5274364471435546,0.7381107330322265
0.5290597915649414,0.7409196853637695
0.5290597915649414,0.7409196853637695
0.5274393081665039,0.7395893096923828
0.5274393081665039,0.7395893096923828
0.5289470672607421,0.7403429031372070
0.5289470672607421,0.7403429031372070
0.5285802841186523,0.7411090850830078
0.5285802841186523,0.7411090850830078
0.5284692764282226,0.7410919189453125
0.5284692764282226,0.7410919189453125
0.5299581527709961,0.7427009582519531
0.5299581527709961,0.7427009582519531
0.5284463882446289,0.7417985916137695
0.5284463882446289,0.7417985916137695
0.5294363021850585,0.7422168731689452
0.5294363021850585,0.7422168731689452
0.5293807983398438,0.7442956924438476
0.5293807983398438,0.7442956924438476
0.5291633605957031,0.7425664901733399
0.5291633605957031,0.7425664901733399
0.5309692382812500,0.7445297241210938
0.5309692382812500,0.7445297241210938
0.5290449142456054,0.7431158065795899
0.5299015045166016,0.7431158065795899
0.5303815841674805,0.7449405670166015
0.5303815841674805,0.7449405670166015
0.5301258087158203,0.7457427978515625
0.5301258087158203,0.7457427978515625
0.5301555633544922,0.7445291519165039
0.5301555633544922,0.7445291519165039
0.5314853668212890,0.7464145660400391
0.5314853668212890,0.7464145660400391
0.5298368453979492,0.7462652206420898
0.5298368453979492,0.7462652206420898
0.5311552047729492,0.7462715148925781
0.5311552047729492,0.7462715148925781
0.5310665130615234,0.7475967407226562
0.5310665130615234,0.7475967407226562
0.5305566787719727,0.7455739974975586
0.5305566787719727,0.7455739974975586
0.5321565628051758,0.7483915328979492
0.5321565628051758,0.7483915328979492
0.5301830291748046,0.7461610794067383
0.5301830291748046,0.7461610794067383
0.5309469223022460,0.7453153610229492
0.5298934936523437,0.7436227798461914
0.5297498703002930,0.7443271636962890
0.5302534103393555,0.7443271636962890
0.5287342071533203,0.7409116744995117
0.5287342071533203,0.7409116744995117
0.5289270401000976,0.7392242431640624
0.5289270401000976,0.7392242431640624
0.5262617111206055,0.7352943420410156
0.5262617111206055,0.7352943420410156
0.5263217926025391,0.7333019256591796
0.5263217926025391,0.7333019256591796
0.5255207061767578,0.7339937210083007
0.5255207061767578,0.7339937210083007
0.5247465133666992,0.7305902481079102
0.5247465133666992,0.7305902481079102
0.5258234024047851,0.7312597274780274
0.5258234024047851,0.7312597274780274
0.5234601974487304,0.7289623260498047
0.5234601974487304,0.7289623260498047
0.5243831634521484,0.7289949417114258
0.5243831634521484,0.7289949417114258
0.5238773345947265,0.7288976669311523
0.5238773345947265,0.7288976669311523
0.5232530593872070,0.7265642166137695
0.5232530593872070,0.7265642166137695
0.5243156433105468,0.7271129608154296
0.5243156433105468,0.7271129608154296
0.5223936080932617,0.7264881134033203
0.5223936080932617,0.7264881134033203
0.5231603622436524,0.7256504058837890
0.5231603622436524,0.7256504058837890
0.5230625152587890,0.7264806747436523
0.5230625152587890,0.7264806747436523
0.5221904754638672,0.7242937088012695
0.5221904754638672,0.7242937088012695
0.5237955093383789,0.7265087127685547
0.5237955093383789,0.7265087127685547
0.5220027923583984,0.7250701904296875
0.5220027923583984,0.7250701904296875
0.5230693817138672,0.7253208160400391
0.5230693817138672,0.7253208160400391
0.5229360580444335,0.7262014389038086
0.5229360580444335,0.7262014389038086
0.5225847244262695,0.7260801315307617
0.5225847244262695,0.7260801315307617
0.5243476867675781,0.7276994705200195
0.5243476867675781,0.7276994705200195
0.5228719711303711,0.7271993637084960
0.5228719711303711,0.7271993637084960
0.5237119674682617,0.7273721694946289
0.5237119674682617,0.7273721694946289
0.5238401412963867,0.7296272277832031
0.5238401412963867,0.7296272277832031
0.5234355926513672,0.7275409698486328
0.5234355926513672,0.7275409698486328
0.5252420425415039,0.7294572830200196
0.5252420425415039,0.7294572830200196
0.5232336044311523,0.7277595520019531
0.5232336044311523,0.7277595520019531
0.5244283676147461,0.7291568756103516
0.5244283676147461,0.7291568756103516
0.5240913391113281,0.7298240661621094
0.5240913391113281,0.7298240661621094
0.5239099502563477,0.7283140182495117
0.5239099502563477,0.7283140182495117
0.5251556396484375,0.7301244735717773
0.5251556396484375,0.7301244735717773
0.5236009597778321,0.7297863006591797
0.5236009597778321,0.7297863006591797
0.5247402191162109,0.7297891616821289
0.5247402191162109,0.7297891616821289
0.5246423721313477,0.7309787750244140
0.5246423721313477,0.7309787750244140
0.5242412567138671,0.7290750503540039
0.5242412567138671,0.7290750503540039
0.5258005142211913,0.7320802688598632
0.5258005142211913,0.7320802688598632
0.5242258071899414,0.7306297302246093
0.5242258071899414,0.7306297302246093
0.5254566192626953,0.7314353942871094
0.5254566192626953,0.7314353942871094
0.5250595092773437,0.7326313018798828
0.5250595092773437,0.7326313018798828
0.5250143051147461,0.7319355010986328
0.5242687225341797,0.7319355010986328
0.5265272140502929,0.7335056304931641
0.5265272140502929,0.7335056304931641
0.5251756668090820,0.7326593399047852
0.5251756668090820,0.7326593399047852
0.5258811950683594,0.7327537536621094
0.5258811950683594,0.7327537536621094
0.5259670257568360,0.7353452682495117
0.5259670257568360,0.7353452682495117
0.5255744934082031,0.7334970474243164
0.5255744934082031,0.7334970474243164
0.5274335861206054,0.7355564117431640
0.5274335861206054,0.7355564117431640
0.5257095336914063,0.7348388671875000
0.5257095336914063,0.7348388671875000
0.5267778396606445,0.7359243392944336
0.5267778396606445,0.7359243392944336
0.5267635345458984,0.7368661880493164
0.5267635345458984,0.7368661880493164
0.5267131805419921,0.7356313705444336
0.5267131805419921,0.7356313705444336
0.5279685974121093,0.7370922088623046
0.5279685974121093,0.7370922088623046
0.5266822814941406,0.7375139236450196
0.5266822814941406,0.7375139236450196
0.5277048110961914,0.7376255035400391
0.5277048110961914,0.7376255035400391
0.5276601791381835,0.7390605926513671
0.5276601791381835,0.7390605926513671
0.5273025512695312,0.7375963211059570
0.5273025512695312,0.7375963211059570
0.5289573669433594,0.7402708053588867
0.5289573669433594,0.7402708053588867
0.5274576187133789,0.7390480041503906
0.5274576187133789,0.7390480041503906
0.5287044525146484,0.7396339416503906
0.5287044525146484,0.7396339416503906
0.5282255172729492,0.7404853820800781
0.5282255172729492,0.7404853820800781
