REDsignal,IRsignal
0.4655250549316406,0.5108922958374024
0.4675798416137695,0.5132354736328125
0.4675798416137695,0.5132354736328125
0.4656286239624023,0.5124675750732421
0.4656286239624023,0.5124675750732421
0.4671192169189453,0.5124629974365235
0.4671192169189453,0.5124629974365235
0.4673051834106445,0.5148216247558594
0.4673051834106445,0.5148216247558594
0.4664148330688476,0.5129316329956054
0.4664148330688476,0.5129316329956054
0.4684295654296875,0.5152627944946289
0.4684295654296875,0.5152627944946289
0.4665063858032226,0.5143249511718749
0.4665063858032226,0.5143249511718749
0.4679649353027344,0.5143604278564453
0.4679649353027344,0.5143604278564453
0.4679986953735351,0.5164575576782227
0.4679986953735351,0.5164575576782227
0.4671529769897461,0.5147043228149414
0.4671529769897461,0.5147043228149414
0.4691076278686523,0.5168529510498047
0.4691076278686523,0.5168529510498047
0.4678293228149414,0.5160369873046875
0.4678293228149414,0.5160369873046875
0.4685949325561523,0.5159511566162109
0.4685949325561523,0.5159511566162109
0.4687397003173828,0.5181764602661133
0.4687397003173828,0.5181764602661133
0.4678796768188476,0.5162349700927734
0.4678796768188476,0.5162349700927734
0.4698938369750976,0.5183738708496094
0.4699533462524414,0.5183738708496094
0.4678962707519531,0.5175779342651367
0.4678962707519531,0.5175779342651367
0.4692867279052734,0.5174388885498047
0.4692867279052734,0.5174388885498047
0.4693508148193359,0.5196275711059570
0.4700895309448242,0.5196275711059570
0.4685749053955078,0.5176557540893555
0.4685749053955078,0.5176557540893555
0.4704282760620117,0.5197305679321289
0.4704282760620117,0.5197305679321289
0.4684295654296875,0.5187343597412110
0.4684295654296875,0.5187343597412110
0.4696775436401367,0.5184167861938477
0.4690647125244141,0.5184167861938477
0.4696718215942383,0.5203348159790039
0.4696718215942383,0.5203348159790039
0.4683414459228515,0.5176013946533203
0.4683414459228515,0.5176013946533203
0.4697868347167968,0.5183498382568359
0.4697868347167968,0.5183498382568359
0.4666854858398437,0.5144491195678711
0.4664199829101562,0.5144491195678711
0.4662059783935547,0.5099447250366210
0.4646896362304687,0.5099447250366210
0.4641826629638672,0.5072181701660156
0.4641826629638672,0.5072181701660156
0.4610944747924804,0.5002939224243164
0.4610944747924804,0.5002939224243164
0.4611705780029297,0.4984193801879883
0.4611705780029297,0.4984193801879883
0.4578947067260742,0.4943452835083008
0.4578998565673828,0.4943452835083008
0.4582574844360351,0.4920381546020507
0.4582574844360351,0.4920381546020507
0.4576812744140625,0.4928873062133789
0.4576812744140625,0.4928873062133789
0.4562198638916015,0.4899873733520508
0.4562198638916015,0.4899873733520508
0.4579994201660156,0.4915351867675781
0.4579994201660156,0.4915351867675781
0.4558788299560547,0.4904794692993164
0.4558788299560547,0.4904794692993164
0.4574455261230468,0.4906087875366211
0.4574455261230468,0.4906087875366211
0.4577682495117187,0.4933359146118164
0.4577682495117187,0.4933359146118164
0.4571542739868164,0.4920690536499023
0.4571542739868164,0.4920690536499023
0.4593446731567383,0.4950948715209961
0.4593446731567383,0.4950948715209961
0.4580286026000976,0.4955429077148437
0.4580286026000976,0.4955429077148437
0.4600896835327148,0.4969310760498047
0.4600896835327148,0.4969310760498047
0.4611900329589844,0.5012254714965820
0.4611900329589844,0.5012254714965820
0.4611213684082031,0.5012855529785156
0.4608312606811523,0.5012855529785156
0.4638324737548828,0.5051273345947266
0.4641323089599609,0.5051273345947266
0.4626091003417969,0.5056119918823242
0.4626091003417969,0.5056119918823242
0.4643817901611328,0.5063930511474609
0.4643817901611328,0.5063930511474609
0.4648172378540039,0.5091751098632812
0.4648172378540039,0.5091751098632812
0.4641872406005859,0.5077239990234375
0.4634759902954101,0.5077239990234375
0.4662260055541992,0.5102691650390625
0.4662260055541992,0.5102691650390625
0.4646266937255859,0.5097753524780273
0.4646266937255859,0.5097753524780273
0.4658695220947265,0.5098423004150391
0.4658695220947265,0.5098423004150391
0.4662157058715820,0.5122003555297852
0.4662157058715820,0.5122003555297852
0.4653179168701171,0.5104688644409180
0.4653179168701171,0.5104688644409180
0.4674522399902343,0.5127113342285156
0.4674522399902343,0.5127113342285156
0.4655702590942383,0.5121282577514649
0.4655702590942383,0.5121282577514649
0.4670316696166992,0.5120098114013671
0.4670316696166992,0.5120098114013671
0.4672336578369141,0.5143627166748047
0.4672336578369141,0.5143627166748047
0.4663902282714844,0.5125814437866211
0.4663902282714844,0.5125814437866211
0.4683071136474609,0.5146928787231445
0.4683071136474609,0.5146928787231445
0.4664508819580078,0.5139095306396484
0.4664508819580078,0.5139095306396484
0.4678081512451172,0.5138025283813477
0.4678081512451172,0.5138025283813477
0.4680444717407226,0.5161788940429687
0.4680444717407226,0.5161788940429687
0.4670064926147461,0.5142934799194335
0.4670064926147461,0.5142934799194335
0.4689651489257812,0.5164558410644531
0.4689651489257812,0.5164558410644531
0.4670843124389648,0.5156856536865234
0.4670843124389648,0.5156856536865234
0.4685703277587890,0.5155403137207031
0.4685703277587890,0.5155403137207031
0.4686138153076171,0.5177513122558594
0.4686138153076171,0.5177513122558594
0.4677738189697265,0.5158384323120117
0.4677738189697265,0.5158384323120117
0.4696941375732422,0.5179418563842774
0.4696277618408203,0.5179418563842774
0.4678087234497070,0.5171722412109375
0.4678087234497070,0.5171722412109375
0.4690120697021484,0.5168014526367187
0.4690120697021484,0.5168014526367187
0.4692804336547851,0.5189929962158203
0.4692804336547851,0.5189929962158203
0.4681772232055664,0.5170217514038086
0.4681772232055664,0.5170217514038086
0.4701616287231445,0.5188224792480468
0.4701616287231445,0.5188224792480468
0.4680850982666016,0.5177713394165039
0.4680850982666016,0.5177713394165039
0.4691202163696289,0.5170795440673828
0.4691202163696289,0.5170795440673828
0.4689256668090820,0.5184688568115234
0.4689256668090820,0.5184688568115234
0.4672805786132812,0.5146276473999023
0.4672805786132812,0.5146276473999023
0.4675706863403320,0.5126255035400390
0.4675706863403320,0.5126255035400390
0.4631589889526367,0.5059038162231445
0.4631589889526367,0.5059038162231445
0.4612266540527343,0.4981012344360352
0.4612266540527343,0.4981012344360352
0.4582666397094726,0.4929582595825195
0.4582666397094726,0.4929582595825195
0.4540082931518554,0.4841686248779297
0.4540082931518554,0.4841686248779297
0.4533222198486328,0.4806335449218750
0.4533222198486328,0.4806335449218750
0.4492830276489257,0.4757211685180664
0.4492830276489257,0.4757211685180664
0.4491462707519531,0.4724309921264648
0.4491462707519531,0.4724309921264648
0.4483045578002929,0.4725608825683594
0.4483045578002929,0.4725608825683594
0.4466623306274414,0.4693222045898438
0.4466623306274414,0.4693222045898438
0.4482376098632813,0.4707469940185547
0.4482376098632813,0.4707469940185547
0.4465066909790039,0.4702600479125976
0.4473627090454101,0.4702600479125976
0.4481391906738281,0.4706977844238281
0.4481391906738281,0.4706977844238281
0.4487400054931641,0.4740932464599609
0.4487400054931641,0.4740932464599609
0.4484704971313476,0.4737682342529297
0.4484704971313476,0.4737682342529297
0.4512897491455078,0.4778148651123046
0.4512897491455078,0.4778148651123046
0.4506311416625977,0.4797803878784179
0.4506311416625977,0.4797803878784179
0.4531522750854492,0.4821985244750976
0.4531522750854492,0.4821985244750976
0.4545701980590820,0.4870216369628906
0.4557981491088867,0.4870216369628906
0.4546274185180664,0.4873083114624023
0.4546274185180664,0.4873083114624023
0.4573265075683594,0.4907667160034179
0.4573265075683594,0.4907667160034179
0.4561569213867187,0.4913063049316406
0.4561569213867187,0.4913063049316406
0.4577905654907226,0.4918848037719726
0.4577905654907226,0.4918848037719726
0.4584806442260742,0.4948602676391601
0.4584806442260742,0.4948602676391601
0.4577379226684570,0.4935121536254883
0.4577379226684570,0.4935121536254883
0.4599180221557617,0.4959846496582031
0.4599180221557617,0.4959846496582031
0.4584892272949219,0.4961849212646484
0.4584892272949219,0.4961849212646484
0.4598917007446289,0.4963388442993164
0.4598917007446289,0.4963388442993164
0.4604707717895508,0.4989097595214844
0.4604707717895508,0.4989097595214844
0.4597177505493164,0.4975244522094726
0.4597177505493164,0.4975244522094726
0.4617324829101562,0.4998939514160156
0.4617324829101562,0.4998939514160156
0.4602619171142578,0.4997022628784180
0.4602619171142578,0.4997022628784180
0.4613994598388672,0.4995374679565430
0.4613994598388672,0.4995374679565430
0.4618675231933593,0.5021833419799805
0.4618675231933593,0.5021833419799805
0.4610246658325195,0.5005496978759766
0.4610246658325195,0.5005496978759766
0.4616540908813476,0.5027269363403321
0.4616540908813476,0.5016277313232421
0.4634284973144531,0.5041694641113281
0.4634284973144531,0.5041694641113281
0.4616489410400391,0.5028728485107422
0.4616489410400391,0.5028728485107422
0.4638650894165039,0.5040452957153320
0.4638650894165039,0.5040452957153320
0.4627899169921875,0.5054025650024414
0.4627899169921875,0.5054025650024414
0.4629272460937500,0.5043725967407227
0.4623258590698242,0.5043725967407227
0.4645957946777344,0.5068656921386718
0.4645957946777344,0.5068656921386718
0.4628757476806640,0.5054592132568360
0.4628757476806640,0.5054592132568360
0.4649528503417968,0.5063867568969727
0.4649528503417968,0.5063867568969727
0.4638113021850586,0.5077383041381835
0.4638113021850586,0.5077383041381835
0.4638290405273438,0.5065120697021485
0.4638290405273438,0.5065120697021485
0.4655897140502929,0.5089353561401367
0.4655897140502929,0.5089353561401367
0.4638422012329101,0.5075231552124023
0.4638422012329101,0.5075231552124023
0.4658477783203125,0.5082824707031249
0.4658477783203125,0.5082824707031249
0.4644893646240234,0.5094285964965820
0.4644893646240234,0.5094285964965820
0.4645866394042968,0.5080821990966796
0.4645866394042968,0.5080821990966796
0.4661338806152344,0.5101890563964844
0.4661338806152344,0.5101890563964844
0.4642564773559570,0.5082876205444335
0.4642564773559570,0.5082876205444335
0.4656475067138672,0.5080484390258789
0.4656475067138672,0.5080484390258789
0.4637042999267578,0.5071683883666992
0.4637042999267578,0.5071683883666992
0.4623836517333984,0.5025392532348633
0.4623836517333984,0.5025392532348633
0.4624116897583008,0.5011190414428711
0.4624116897583008,0.5011190414428711
0.4587369918823242,0.4956464767456055
0.4587369918823242,0.4956464767456055
0.4592531204223633,0.4929313659667969
0.4592531204223633,0.4929313659667969
0.4568870544433594,0.4914871215820312
0.4568870544433594,0.4914871215820312
0.4559881210327148,0.4884269714355469
0.4559881210327148,0.4884269714355469
0.4570981979370117,0.4898351669311523
0.4570981979370117,0.4898351669311523
0.4551115036010742,0.4879600524902343
0.4551115036010742,0.4879600524902343
0.4572343826293945,0.4888429641723633
0.4572343826293945,0.4888429641723633
0.4561529159545898,0.4907415390014648
0.4561529159545898,0.4907415390014648
0.4564172744750976,0.4903793334960938
0.4560459136962891,0.4903793334960938
0.4588657379150390,0.4938886642456055
0.4588657379150390,0.4938886642456055
0.4575387954711914,0.4936763763427734
0.4575387954711914,0.4936763763427734
0.4601606369018554,0.4958690643310547
0.4601606369018554,0.4958690643310547
0.4595506668090820,0.4985229492187500
0.4595506668090820,0.4985229492187500
0.4603540420532226,0.4987226486206054
0.4603540420532226,0.4987226486206054
0.4625324249267578,0.5022920608520508
0.4625324249267578,0.5022920608520508
0.4610870361328125,0.5016798019409180
0.4610870361328125,0.5016798019409180
0.4634096145629882,0.5031961441040039
0.4634284973144531,0.5031961441040039
0.4624729156494141,0.5050386428833008
0.4624729156494141,0.5050386428833008
0.4627870559692382,0.5040922164916992
0.4627870559692382,0.5040922164916992
0.4646203994750976,0.5067586898803711
0.4646203994750976,0.5067586898803711
0.4626056671142578,0.5055124282836914
0.4626056671142578,0.5055124282836914
0.4648939132690429,0.5064828872680663
0.4648939132690429,0.5064828872680663
0.4637454986572265,0.5079648971557617
0.4637454986572265,0.5079648971557617
0.4638015747070312,0.5068136215209961
0.4638015747070312,0.5068136215209961
0.4655073165893555,0.5093330383300781
0.4655073165893555,0.5093330383300781
0.4637220382690430,0.5079757690429687
0.4637220382690430,0.5079757690429687
0.4658763885498047,0.5088558197021484
0.4658763885498047,0.5088558197021484
0.4646381378173828,0.5101690292358398
0.4646381378173828,0.5101690292358398
0.4646192550659179,0.5089920043945312
0.4646192550659179,0.5089920043945312
0.4665521621704101,0.5114519119262695
0.4665521621704101,0.5114519119262695
0.4645540237426757,0.5100179672241211
0.4645540237426757,0.5100179672241211
0.4666591644287109,0.5108127593994141
0.4666591644287109,0.5108127593994141
0.4652944564819336,0.5120647430419921
0.4652944564819336,0.5120647430419921
0.4655055999755859,0.5106857299804687
0.4655055999755859,0.5106857299804687
0.4673377990722656,0.5130752563476563
0.4673377990722656,0.5130752563476563
0.4652515411376953,0.5115715026855469
0.4652515411376953,0.5115715026855469
0.4672273635864257,0.5121093750000000
0.4670368194580078,0.5121093750000000
0.4660268783569336,0.5133842468261719
0.4660268783569336,0.5133842468261719
0.4661121368408203,0.5119972229003906
0.4661121368408203,0.5119972229003906
0.4678539276123047,0.5144336700439452
0.4678539276123047,0.5144336700439452
0.4656858444213867,0.5128320693969727
0.4656858444213867,0.5128320693969727
0.4678264617919922,0.5135559082031250
0.4678264617919922,0.5135559082031250
0.4666254043579101,0.5147203445434571
0.4666254043579101,0.5147203445434571
0.4665761947631836,0.5133550643920898
0.4665761947631836,0.5133550643920898
0.4683546066284179,0.5157354354858398
0.4683546066284179,0.5157354354858398
0.4663993835449218,0.5141881942749024
0.4663993835449218,0.5141881942749024
0.4684095382690430,0.5147426605224609
0.4684095382690430,0.5147426605224609
0.4670431137084960,0.5159088134765625
0.4670431137084960,0.5159088134765625
0.4668125152587890,0.5143215179443359
0.4668125152587890,0.5143215179443359
0.4685731887817383,0.5163213729858398
0.4685731887817383,0.5163213729858398
0.4662197113037109,0.5141670227050781
0.4662197113037109,0.5141670227050781
0.4677091598510742,0.5136320114135742
0.4677091598510742,0.5136320114135742
0.4656240463256835,0.5127748489379883
0.4656240463256835,0.5127748489379883
0.4642988204956054,0.5082429885864258
0.4642988204956054,0.5082429885864258
0.4644905090332031,0.5068096160888672
0.4644905090332031,0.5068096160888672
0.4607328414916992,0.5012351989746093
0.4607328414916992,0.5012351989746093
0.4610790252685547,0.4979919433593750
0.4610790252685547,0.4979919433593750
0.4584995269775390,0.4960624694824218
0.4584995269775390,0.4960624694824218
0.4572166442871093,0.4920707702636719
0.4572166442871093,0.4920707702636719
0.4580881118774414,0.4926183700561523
0.4580881118774414,0.4926183700561523
0.4553375244140625,0.4896978378295898
0.4553375244140625,0.4896978378295898
0.4571285247802734,0.4894592285156250
0.4571285247802734,0.4894592285156250
0.4556396484375000,0.4904817581176757
0.4556396484375000,0.4904817581176757
0.4555532455444335,0.4890672683715820
0.4555532455444335,0.4890672683715820
0.4576417922973632,0.4919992446899414
0.4576417922973632,0.4919992446899414
0.4558782577514648,0.4913829803466797
0.4558782577514648,0.4913829803466797
0.4585172653198242,0.4931516647338867
0.4585172653198242,0.4931516647338867
0.4581115722656250,0.4962421417236328
0.4581115722656250,0.4962421417236328
0.4586894989013672,0.4965625762939453
0.4586894989013672,0.4965625762939453
0.4613931655883789,0.5005262374877929
0.4613931655883789,0.5005262374877929
0.4599409103393555,0.5002378463745117
0.4599409103393555,0.5002378463745117
0.4624437332153320,0.5015104293823242
0.4624437332153320,0.5015104293823242
0.4614543914794922,0.5033157348632812
0.4614543914794922,0.5033157348632812
0.4616060256958008,0.5023160934448242
0.4616060256958008,0.5023160934448242
0.4636201858520508,0.5049304962158203
0.4636201858520508,0.5049304962158203
0.4617633819580078,0.5038169860839844
0.4617633819580078,0.5038169860839844
0.4639286041259765,0.5044996261596679
0.4639286041259765,0.5044996261596679
0.4628654479980469,0.5060222625732421
0.4628654479980469,0.5060222625732421
0.4627653121948242,0.5047708511352539
0.4627653121948242,0.5047708511352539
0.4647268295288086,0.5072536468505859
0.4647268295288086,0.5072536468505859
0.4627487182617187,0.5060708999633788
0.4627487182617187,0.5060708999633788
0.4649620056152344,0.5066488265991210
0.4649620056152344,0.5066488265991210
0.4639732360839843,0.5082000732421875
0.4639732360839843,0.5082000732421875
0.4638868331909179,0.5070167541503906
0.4638868331909179,0.5070167541503906
0.4657739639282226,0.5094703674316406
0.4657739639282226,0.5094703674316406
0.4639434814453125,0.5082584381103515
0.4639434814453125,0.5082584381103515
0.4659988403320312,0.5087671279907227
0.4659988403320312,0.5087671279907227
0.4650455474853515,0.5104213714599609
0.4650455474853515,0.5104213714599609
0.4648143768310546,0.5090692520141601
0.4648143768310546,0.5090692520141601
0.4669509887695312,0.5115457534790039
0.4669509887695312,0.5115457534790039
0.4650392532348633,0.5103675842285156
0.4650392532348633,0.5103675842285156
0.4670499801635742,0.5108064651489258
0.4670499801635742,0.5108064651489258
0.4660160064697265,0.5125041961669922
0.4660160064697265,0.5125041961669922
0.4658082962036132,0.5111772537231445
0.4658082962036132,0.5111772537231445
0.4678859710693359,0.5135753631591796
0.4678859710693359,0.5135753631591796
0.4659238815307617,0.5122678756713867
0.4659238815307617,0.5122678756713867
0.4677749633789062,0.5127021789550781
0.4677749633789062,0.5127021789550781
0.4669109344482422,0.5142082214355469
0.4669109344482422,0.5142082214355469
0.4666282653808593,0.5127788543701172
0.4666282653808593,0.5127788543701172
0.4686223983764648,0.5150304794311523
0.4686223983764648,0.5150304794311523
0.4664697647094727,0.5137195587158203
0.4664697647094727,0.5137195587158203
0.4684244155883789,0.5138975143432617
0.4684244155883789,0.5138975143432617
0.4672794342041016,0.5152914047241210
0.4672794342041016,0.5152914047241210
0.4668708801269531,0.5134780883789062
0.4668708801269531,0.5134780883789062
0.4683969497680664,0.5150876998901367
0.4683969497680664,0.5150876998901367
0.4659496307373047,0.5125734329223632
0.4659496307373047,0.5125734329223632
0.4670923233032226,0.5109077453613281
0.4670923233032226,0.5109077453613281
0.4649082183837890,0.5095075607299805
0.4649082183837890,0.5095075607299805
0.4631223678588867,0.5050603866577148
0.4631223678588867,0.5050603866577148
0.4640075683593750,0.5045288085937499
0.4640075683593750,0.5045288085937499
0.4609256744384765,0.5008993148803711
0.4609256744384765,0.5008993148803711
0.4621530532836914,0.4995443344116210
0.4621530532836914,0.4995443344116210
0.4605926513671875,0.5001068115234375
0.4605926513671875,0.5001068115234375
0.4599592208862304,0.4980697631835938
0.4599592208862304,0.4980697631835938
0.4619607925415039,0.5002258300781249
0.4619607925415039,0.5002258300781249
0.4600130081176758,0.4991895675659179
0.4600130081176758,0.4991895675659179
0.4620838165283203,0.5001863479614258
0.4620838165283203,0.5001863479614258
0.4615236282348633,0.5025575637817382
0.4627058029174804,0.5025575637817382
0.4616970062255859,0.5020866394042969
0.4616970062255859,0.5020866394042969
0.4641454696655273,0.5054981231689453
0.4641454696655273,0.5054981231689453
0.4625707626342773,0.5054506301879883
0.4625707626342773,0.5054506301879883
0.4652389526367187,0.5070522308349609
0.4652389526367187,0.5070522308349609
0.4647113800048828,0.5094989776611328
0.4647113800048828,0.5094989776611328
0.4646467208862304,0.5087636947631836
0.4646467208862304,0.5087636947631836
0.4669481277465820,0.5115354537963867
0.4669481277465820,0.5115354537963867
0.4651325225830078,0.5106147766113281
0.4651325225830078,0.5106147766113281
0.4673715591430664,0.5112436294555663
0.4673715591430664,0.5112436294555663
0.4680559158325195,0.5128051757812500
0.4678705215454101,0.5128051757812500
0.4662328720092773,0.5132040023803711
0.4671352386474609,0.5132040023803711
0.4673263549804687,0.5125951766967773
0.4673263549804687,0.5125951766967773
0.4681091308593750,0.5147850036621093
0.4681091308593750,0.5147850036621093
0.4667667388916015,0.5132183074951172
0.4667667388916015,0.5132183074951172
0.4688810348510742,0.5147644042968750
0.4687145233154297,0.5147644042968750
0.4671907424926758,0.5150848388671875
0.4680135726928711,0.5150848388671875
0.4680570602416992,0.5143581390380859
0.4680570602416992,0.5143581390380859
0.4687997817993164,0.5164524078369140
0.4687997817993164,0.5164524078369140
0.4673955917358398,0.5147346496582031
0.4669269561767578,0.5147346496582031
0.4695819854736328,0.5161743164062500
0.4692707061767578,0.5161743164062500
0.4675924301147460,0.5164060592651367
0.4678173065185547,0.5156747817993164
0.4693061828613281,0.5178010940551757
0.4697690963745117,0.5178010940551757
0.4679277420043945,0.5160581588745117
0.4679277420043945,0.5160581588745117
0.4700037002563476,0.5173387527465820
0.4698366165161132,0.5173387527465820
0.4680410385131836,0.5176935195922852
0.4690011978149414,0.5176935195922852
0.4690412521362304,0.5169399261474609
0.4683580398559570,0.5169399261474609
0.4697645187377930,0.5190433502197266
0.4697645187377930,0.5190433502197266
0.4684106826782226,0.5172437667846680
0.4679328918457031,0.5172437667846680
0.4703613281250000,0.5187023162841796
0.4703104019165039,0.5187023162841796
0.4686161041259765,0.5188877105712890
0.4686161041259765,0.5188877105712890
0.4695121765136718,0.5180557250976562
0.4687929153442383,0.5180557250976562
0.4702262878417969,0.5201259613037109
0.4702262878417969,0.5201259613037109
0.4688936233520508,0.5183034896850586
0.4684530258178711,0.5183034896850586
0.4708574295043945,0.5196470260620117
0.4705987930297851,0.5196470260620117
0.4690040588378906,0.5196659088134765
0.4697542190551758,0.5196659088134765
0.4696409225463867,0.5186044692993164
0.4689605712890625,0.5186044692993164
0.4703172683715820,0.5201831817626953
0.4703172683715820,0.5201831817626953
0.4685617446899414,0.5178440093994140
0.4679523468017578,0.5178440093994140
0.4702680587768555,0.5181856155395508
0.4696540832519531,0.5181856155395508
0.4675832748413086,0.5165948867797852
0.4678693771362304,0.5165948867797852
0.4672565460205078,0.5129802703857421
0.4658506393432617,0.5129802703857421
0.4666105270385742,0.5118776321411133
0.4663124084472656,0.5118776321411133
0.4639366149902344,0.5068994522094726
0.4639366149902344,0.5068994522094726
0.4646347045898437,0.5052698135375976
0.4638273239135742,0.5052698135375976
0.4616146087646484,0.5031818389892578
0.4616146087646484,0.5031818389892578
0.4615459442138672,0.5003929138183594
0.4606075286865234,0.5003929138183594
0.4619699478149414,0.5012386322021484
0.4619882583618164,0.5012386322021484
0.4600170135498047,0.4986888885498046
0.4595878601074219,0.4986888885498046
0.4619298934936523,0.4996112823486328
0.4616323471069336,0.4996112823486328
0.4599912643432617,0.4996084213256836
0.4607528686523437,0.4996084213256836
0.4607482910156250,0.4984262466430664
0.4598567962646484,0.4984262466430664
0.4613313674926758,0.5002744674682617
0.4617250442504883,0.5002744674682617
0.4598699569702148,0.4984102249145508
0.4594894409179687,0.4984102249145508
0.4618234634399414,0.4995277404785156
0.4616191864013672,0.4995277404785156
0.4599815368652344,0.4996862411499023
0.4607065200805664,0.4996862411499023
0.4605382919311523,0.4986196517944336
0.4598493576049805,0.4986196517944336
0.4614109039306640,0.5006309509277344
0.4617639541625976,0.5006309509277344
0.4599740982055664,0.4988473892211914
0.4596782684326172,0.4988473892211914
0.4620540618896484,0.5002492904663086
0.4618223190307617,0.5002492904663086
0.4602098464965820,0.5003952026367188
0.4611333847045898,0.5003952026367188
0.4608867645263672,0.4994373321533203
0.4601228713989258,0.4994373321533203
0.4617942810058593,0.5013725280761718
0.4621845245361328,0.5013725280761718
0.4602647781372070,0.4996850967407226
0.4599872589111328,0.4996850967407226
0.4624231338500976,0.5012329101562499
0.4623247146606445,0.5012329101562499
0.4607608795166016,0.5018337249755859
0.4617771148681640,0.5018337249755859
0.4617359161376953,0.5015813827514648
0.4611179351806640,0.5015813827514648
0.4630599975585937,0.5043445587158203
0.4635131835937500,0.5043445587158203
0.4618783950805664,0.5034273147583007
0.4618022918701172,0.5034273147583007
0.4644412994384766,0.5057785034179687
0.4646141052246093,0.5057785034179687
0.4630262374877929,0.5068731307983398
0.4641162872314453,0.5068731307983398
0.4640321731567383,0.5066991806030273
0.4634834289550781,0.5066991806030273
0.4652366638183594,0.5092346191406250
0.4656566619873047,0.5092346191406250
0.4640647888183593,0.5079282760620117
0.4638433456420898,0.5079282760620117
0.4663478851318359,0.5096139907836914
0.4662282943725586,0.5096139907836914
0.4647182464599609,0.5102056503295899
0.4656057357788086,0.5102056503295899
0.4654586791992187,0.5093662261962890
0.4647462844848633,0.5093662261962890
0.4664691925048828,0.5116613388061523
0.4668806076049805,0.5116613388061523
0.4650461196899414,0.5101346969604492
0.4647960662841797,0.5101346969604492
0.4673286437988281,0.5115760803222656
0.4671787261962890,0.5115760803222656
0.4655307769775390,0.5120767593383789
0.4665126800537109,0.5120767593383789
0.4663307189941406,0.5112773895263671
0.4656463623046875,0.5112773895263671
0.4672622680664062,0.5133625030517578
0.4676467895507812,0.5133625030517578
0.4659267425537109,0.5119279861450196
0.4656658172607422,0.5119279861450196
0.4679569244384765,0.5132223129272461
0.4679723739624023,0.5132223129272461
0.4664068222045898,0.5138105392456055
0.4672788619995117,0.5138105392456055
0.4670282363891601,0.5130512237548828
0.4663284301757812,0.5130512237548828
0.4681829452514648,0.5151849746704101
0.4685153961181641,0.5151849746704101
0.4665847778320312,0.5134494781494140
0.4663003921508789,0.5134494781494140
0.4686756134033203,0.5145744323730469
0.4684736251831054,0.5145744323730469
0.4668273925781250,0.5146934509277343
0.4674482345581055,0.5146934509277343
0.4670276641845703,0.5127948760986328
0.4659799575805664,0.5127948760986328
0.4672594070434570,0.5129390716552734
0.4668663024902344,0.5129390716552734
0.4642501831054687,0.5075878143310547
0.4629329681396484,0.5075878143310547
0.4644332885742187,0.5043050765991210
0.4631853103637695,0.5043050765991210
0.4607122421264648,0.4998270034790039
0.4604089736938476,0.4998270034790039
0.4592811584472656,0.4947412490844726
0.4578002929687500,0.4947412490844726
0.4588777542114257,0.4937633514404297
0.4585865020751953,0.4937633514404297
0.4563583374023437,0.4901561737060547
0.4557838439941406,0.4901561737060547
0.4579690933227539,0.4903432846069335
0.4575937271118164,0.4903432846069335
0.4559555053710938,0.4903215408325195
0.4568407058715820,0.4903215408325195
0.4564567565917969,0.4895513534545898
0.4558794021606445,0.4895513534545898
0.4577041625976562,0.4922006607055664
0.4582157135009766,0.4922006607055664
0.4566953659057617,0.4912794113159180
0.4566146850585937,0.4912794113159180
0.4592136383056640,0.4935510635375976
0.4593183517456054,0.4935510635375976
0.4580657958984375,0.4952241897583007
0.4593309402465820,0.4952241897583007
0.4591604232788086,0.4958198547363281
0.4588039398193359,0.4958198547363281
0.4611076354980468,0.4994831085205078
0.4617324829101562,0.4994831085205078
0.4602207183837890,0.4993829727172852
0.4604066848754882,0.4993829727172852
0.4629838943481445,0.5021364212036132
0.4632762908935547,0.5021364212036132
0.4620368957519531,0.5039520263671875
0.4633598327636719,0.5039520263671875
0.4630210876464844,0.5039691925048828
0.4625146865844726,0.5039691925048828
0.4644521713256836,0.5067117691040038
0.4648721694946289,0.5067117691040038
0.4632396697998047,0.5056062698364258
0.4631807327270507,0.5056062698364258
0.4655153274536132,0.5072101593017578
0.4654117584228515,0.5072101593017578
0.4639829635620117,0.5080026626586914
0.4649837493896484,0.5080026626586914
0.4645992279052734,0.5074487686157226
0.4638547897338867,0.5074487686157226
0.4657756805419921,0.5098686218261719
0.4662391662597656,0.5098686218261719
0.4643440246582031,0.5084106445312500
0.4642713546752930,0.5084106445312500
0.4667003631591797,0.5100368499755860
0.4665596008300781,0.5100368499755860
0.4650873184204101,0.5106021881103515
0.4661298751831054,0.5106021881103515
0.4655937194824218,0.5099264144897461
0.4648944854736328,0.5099264144897461
0.4668148040771484,0.5122146606445312
0.4671827316284179,0.5122146606445312
0.4654335021972656,0.5106456756591796
0.4653419494628906,0.5106456756591796
0.4675781250000000,0.5120681762695313
0.4675495147705078,0.5120681762695313
0.4660406112670898,0.5127342224121093
0.4670476913452148,0.5127342224121093
0.4665378570556640,0.5119817733764648
0.4657613754272460,0.5119817733764648
0.4678659439086914,0.5142951965332031
0.4681480407714844,0.5142951965332031
0.4662666320800781,0.5125717163085938
0.4661247253417968,0.5125717163085938
0.4684862136840820,0.5140605926513672
0.4683225631713867,0.5140605926513672
0.4668491363525391,0.5145772933959961
0.4677915573120117,0.5145772933959961
0.4674013137817383,0.5138957977294921
0.4665298461914062,0.5138957977294921
0.4686223983764648,0.5160644531249999
0.4690160751342773,0.5160644531249999
0.4671209335327148,0.5144565582275390
0.4670036315917969,0.5144565582275390
0.4693239212036133,0.5158092498779296
0.4691659927368164,0.5158092498779296
0.4677869796752929,0.5164066314697265
0.4686395645141601,0.5164066314697265
0.4681354522705078,0.5155048370361328
0.4673212051391601,0.5155048370361328
0.4693170547485351,0.5177799224853515
0.4697376251220703,0.5177799224853515
0.4677715301513672,0.5161165237426758
0.4676588058471680,0.5161165237426758
0.4701210021972656,0.5173782348632813
0.4698429107666016,0.5173782348632813
0.4683414459228515,0.5179315567016601
0.4693016052246093,0.5179315567016601
0.4686807632446289,0.5169816970825195
0.4679025650024414,0.5169816970825195
0.4699253082275390,0.5190387725830078
0.4701765060424805,0.5190387725830078
0.4682195663452148,0.5170206069946289
0.4680347442626953,0.5170206069946289
0.4702011108398437,0.5179246902465821
0.4698818206787109,0.5179246902465821
0.4681783676147461,0.5177822113037109
0.4688907623291015,0.5177822113037109
0.4679054260253906,0.5151975631713867
0.4664978027343750,0.5151975631713867
0.4678487777709961,0.5139816284179687
0.4671855926513672,0.5139816284179687
0.4641580581665039,0.5072690963745117
0.4628471374511718,0.5072690963745117
0.4639480590820312,0.5029993057250977
0.4624929428100586,0.5029993057250977
0.4598745346069336,0.4982780456542968
0.4597726821899414,0.4982780456542968
0.4583450317382812,0.4929840087890625
0.4565488815307617,0.4929840087890625
0.4579719543457031,0.4920736312866211
0.4577745437622070,0.4920736312866211
0.4553518295288086,0.4885871887207031
0.4550491333007812,0.4885871887207031
0.4571182250976562,0.4891170501708984
0.4569162368774414,0.4891170501708984
0.4555595397949219,0.4896818161010742
0.4565031051635742,0.4896818161010742
0.4559984207153320,0.4891222000122070
0.4553009033203125,0.4891222000122070
0.4575399398803711,0.4921703338623047
0.4582168579101562,0.4921703338623047
0.4563709259033203,0.4914424896240234
0.4566553115844726,0.4914424896240234
0.4571502685546875,0.4937444686889648
0.4582180023193359,0.4937444686889648
0.4603580474853515,0.4977029800415039
0.4603580474853515,0.4977029800415039
0.4590105056762695,0.4984302520751953
0.4590105056762695,0.4984302520751953
0.4614263534545898,0.5002252578735351
0.4614263534545898,0.5002252578735351
0.4621988296508789,0.5039405822753906
0.4621988296508789,0.5039405822753906
0.4619264602661133,0.5031852722167969
0.4619264602661133,0.5031852722167969
0.4643142700195312,0.5064102172851562
0.4643142700195312,0.5064102172851562
0.4626863479614258,0.5060176849365234
0.4626863479614258,0.5060176849365234
0.4644115447998047,0.5064279556274414
0.4644115447998047,0.5064279556274414
0.4645969390869140,0.5089519500732421
0.4654563903808593,0.5089519500732421
0.4637477874755859,0.5072731018066406
0.4637477874755859,0.5072731018066406
0.4658678054809570,0.5097312927246094
0.4658678054809570,0.5097312927246094
0.4639406204223633,0.5088174819946288
0.4639406204223633,0.5088174819946288
0.4655055999755859,0.5088735580444336
0.4655055999755859,0.5088735580444336
0.4654209136962890,0.5109867095947266
0.4654209136962890,0.5109867095947266
0.4645580291748047,0.5090423583984375
0.4645580291748047,0.5090423583984375
0.4666717529296875,0.5112625122070312
0.4666717529296875,0.5112625122070312
0.4645174026489258,0.5100574493408203
0.4645174026489258,0.5100574493408203
0.4658386230468750,0.5101673126220703
0.4658386230468750,0.5101673126220703
0.4659130096435546,0.5121339797973633
0.4659130096435546,0.5121339797973633
0.4650381088256836,0.5101467132568359
0.4650381088256836,0.5101467132568359
0.4670230865478515,0.5122987747192382
0.4670230865478515,0.5122987747192382
0.4649499893188476,0.5111709594726562
0.4649499893188476,0.5111709594726562
0.4663513183593750,0.5111457824707031
0.4663513183593750,0.5111457824707031
0.4664051055908203,0.5132783889770508
0.4664051055908203,0.5132783889770508
0.4656784057617187,0.5114055633544922
0.4656784057617187,0.5114055633544922
0.4674150466918945,0.5135410308837890
0.4674150466918945,0.5135410308837890
0.4655261993408203,0.5124429702758789
0.4655261993408203,0.5124429702758789
0.4669698715209961,0.5123594284057617
0.4669698715209961,0.5123594284057617
0.4670585632324218,0.5145332336425781
0.4670585632324218,0.5145332336425781
0.4661636352539062,0.5126449584960937
0.4661636352539062,0.5126449584960937
0.4680988311767578,0.5147300720214844
0.4680988311767578,0.5147300720214844
0.4662540435791016,0.5137813568115234
0.4662540435791016,0.5137813568115234
0.4676342010498047,0.5134941101074219
0.4676342010498047,0.5134941101074219
0.4676050186157226,0.5156032562255859
0.4676050186157226,0.5156032562255859
0.4667884826660156,0.5136165618896484
0.4667884826660156,0.5136165618896484
0.4687242507934570,0.5157239913940429
0.4687242507934570,0.5157239913940429
0.4666963577270508,0.5145732879638671
0.4666963577270508,0.5145732879638671
0.4678739547729492,0.5141069412231445
0.4678739547729492,0.5141069412231445
0.4678791046142578,0.5160884857177734
0.4678791046142578,0.5160884857177734
0.4668159484863281,0.5137470245361327
0.4668159484863281,0.5137470245361327
0.4685440063476562,0.5156301498413086
0.4685440063476562,0.5156301498413086
0.4664508819580078,0.5142740249633789
0.4664508819580078,0.5142740249633789
0.4676010131835937,0.5135965347290039
0.4676010131835937,0.5135965347290039
0.4673389434814453,0.5150671005249023
0.4673389434814453,0.5150671005249023
0.4661367416381836,0.5123016357421875
0.4661367416381836,0.5123016357421875
0.4676193237304687,0.5135524749755859
0.4674802780151367,0.5135524749755859
0.4654678344726562,0.5117609024047851
0.4654678344726562,0.5117609024047851
0.4664577484130859,0.5108362197875976
0.4664577484130859,0.5108362197875976
0.4663015365600586,0.5127805709838867
0.4663015365600586,0.5127805709838867
0.4651210784912109,0.5106525421142578
0.4651210784912109,0.5106525421142578
0.4673578262329101,0.5128583908081055
0.4673578262329101,0.5128583908081055
0.4655416488647461,0.5123010635375976
0.4655416488647461,0.5123010635375976
0.4670579910278320,0.5124778747558594
0.4670579910278320,0.5124778747558594
0.4673612594604492,0.5152399063110351
0.4673612594604492,0.5152399063110351
0.4666809082031250,0.5138786315917968
0.4666809082031250,0.5138786315917968
0.4689176559448242,0.5165479660034179
0.4689176559448242,0.5165479660034179
0.4671964645385742,0.5161954879760742
0.4671964645385742,0.5161954879760742
0.4687116622924805,0.5161708831787110
0.4687116622924805,0.5161708831787110
0.4690029144287109,0.5187177658081055
0.4690029144287109,0.5187177658081055
0.4681005477905273,0.5167814254760742
0.4681005477905273,0.5167814254760742
0.4702074050903320,0.5189323425292969
0.4702074050903320,0.5189323425292969
0.4681657791137695,0.5181272506713867
0.4681657791137695,0.5181272506713867
0.4696191787719726,0.5179304122924805
0.4696191787719726,0.5179304122924805
0.4697971343994141,0.5202924728393554
0.4697971343994141,0.5202924728393554
0.4687911987304687,0.5182949066162109
0.4687911987304687,0.5182949066162109
0.4707017898559570,0.5202724456787109
0.4707017898559570,0.5202724456787109
0.4688999176025390,0.5195652008056640
0.4696752548217773,0.5195652008056640
0.4701988220214843,0.5191709518432617
0.4701988220214843,0.5191709518432617
0.4702926635742187,0.5213951110839844
0.4702926635742187,0.5213951110839844
0.4692249298095703,0.5193403244018554
0.4692249298095703,0.5193403244018554
0.4711858749389648,0.5213916778564452
0.4711858749389648,0.5213916778564452
0.4692735671997070,0.5206048965454101
0.4692735671997070,0.5206048965454101
0.4705844879150390,0.5202020645141602
0.4705844879150390,0.5202020645141602
0.4706073760986328,0.5225440979003906
0.4706073760986328,0.5225440979003906
0.4697507858276367,0.5203617095947265
0.4697507858276367,0.5203617095947265
0.4716516494750976,0.5224279403686524
0.4716516494750976,0.5224279403686524
0.4696889877319336,0.5215341567993164
0.4696889877319336,0.5215341567993164
0.4709140777587890,0.5212703704833984
0.4709140777587890,0.5212703704833984
0.4711503982543945,0.5234333038330078
0.4711503982543945,0.5234333038330078
0.4700386047363281,0.5212812423706055
0.4700386047363281,0.5212812423706055
0.4721019744873047,0.5234001159667968
0.4721019744873047,0.5234001159667968
0.4701169967651367,0.5226568222045899
0.4701169967651367,0.5226568222045899
0.4715332031250000,0.5222179412841796
0.4715332031250000,0.5222179412841796
0.4716585159301758,0.5244043350219726
0.4716585159301758,0.5244043350219726
0.4705621719360351,0.5222379684448242
0.4705621719360351,0.5222379684448242
0.4724458694458007,0.5242080688476562
0.4724458694458007,0.5242080688476562
0.4705867767333984,0.5233572006225585
0.4705867767333984,0.5233572006225585
0.4718542098999023,0.5228176116943359
0.4718542098999023,0.5228176116943359
0.4716928482055664,0.5246801376342773
0.4716928482055664,0.5246801376342773
0.4702365875244141,0.5215415954589844
0.4702365875244141,0.5215415954589844
0.4715904235839843,0.5216514587402343
0.4715904235839843,0.5216514587402343
0.4680124282836914,0.5168815612792969
0.4680124282836914,0.5168815612792969
0.4669504165649414,0.5107858657836913
0.4669504165649414,0.5107858657836913
0.4641586303710937,0.5063547134399414
0.4641586303710937,0.5063547134399414
0.4605411529541015,0.4981201171875000
0.4605411529541015,0.4981201171875000
0.4600313186645508,0.4947263717651367
0.4600313186645508,0.4947263717651367
0.4560573577880859,0.4897768020629882
0.4560573577880859,0.4897768020629882
0.4557260513305664,0.4864683151245117
0.4544946670532226,0.4864683151245117
0.4550971984863281,0.4869592666625976
0.4550971984863281,0.4869592666625976
0.4535350799560547,0.4842315673828125
0.4535350799560547,0.4842315673828125
0.4556236267089844,0.4865867614746093
0.4556236267089844,0.4865867614746093
0.4541130065917969,0.4869649887084961
0.4541130065917969,0.4869649887084961
0.4562753677368164,0.4881963729858398
0.4562753677368164,0.4881963729858398
0.4573900222778320,0.4925354003906250
0.4573900222778320,0.4925354003906250
0.4573522567749023,0.4928936004638672
0.4573522567749023,0.4928936004638672
0.4603809356689453,0.4972852706909179
0.4603809356689453,0.4972852706909179
0.4596542358398437,0.4989383697509766
0.4596542358398437,0.4989383697509766
0.4617771148681640,0.5002407073974610
0.4617771148681640,0.5002407073974610
0.4625661849975586,0.5036945343017578
0.4625661849975586,0.5036945343017578
0.4618474960327148,0.5025083541870117
0.4618474960327148,0.5025083541870117
0.4643754959106445,0.5051416397094727
0.4643754959106445,0.5051416397094727
0.4626760482788086,0.5051582336425781
0.4626760482788086,0.5051582336425781
0.4642175674438476,0.5051673889160156
0.4642175674438476,0.5051673889160156
0.4644275665283203,0.5079299926757812
0.4644275665283203,0.5079299926757812
0.4635778427124023,0.5062288284301758
0.4635778427124023,0.5062288284301758
0.4658025741577148,0.5085966110229492
0.4658025741577148,0.5085966110229492
0.4640481948852539,0.5083614349365234
0.4648893356323242,0.5083614349365234
0.4654146194458008,0.5081560134887695
0.4654146194458008,0.5081560134887695
0.4657876968383789,0.5107452392578125
0.4657876968383789,0.5107452392578125
0.4647869110107422,0.5089399337768554
0.4647869110107422,0.5089399337768554
0.4670013427734375,0.5110776901245117
0.4670013427734375,0.5110776901245117
0.4649477005004883,0.5107149124145508
0.4649477005004883,0.5107149124145508
0.4663450241088867,0.5102697372436523
0.4663450241088867,0.5102697372436523
0.4665756225585938,0.5126867294311523
0.4665756225585938,0.5126867294311523
0.4655937194824218,0.5107292175292969
0.4655937194824218,0.5107292175292969
0.4675380706787109,0.5127559661865234
0.4675380706787109,0.5127559661865234
0.4656927108764648,0.5124292373657227
0.4656927108764648,0.5124292373657227
0.4669641494750976,0.5119560241699218
0.4669641494750976,0.5119560241699218
0.4672771453857422,0.5142133712768554
0.4672771453857422,0.5142133712768554
0.4660503387451171,0.5120201110839844
0.4660503387451171,0.5120201110839844
0.4681360244750976,0.5138448715209961
0.4681360244750976,0.5138448715209961
0.4662048339843750,0.5134786605834961
0.4662048339843750,0.5134786605834961
0.4674997329711914,0.5127862930297852
0.4674997329711914,0.5127862930297852
0.4675443649291992,0.5150556564331055
0.4675443649291992,0.5150556564331055
0.4664915084838867,0.5129653930664062
0.4664915084838867,0.5129653930664062
0.4686487197875976,0.5148330688476562
0.4686487197875976,0.5148330688476562
0.4666803359985351,0.5144926071166992
0.4666803359985351,0.5144926071166992
0.4678522109985351,0.5138626098632812
0.4678522109985351,0.5138626098632812
0.4681926727294922,0.5161514282226562
0.4681926727294922,0.5161514282226562
0.4671289443969726,0.5140605926513672
0.4671289443969726,0.5140605926513672
0.4690578460693359,0.5158395767211914
0.4690578460693359,0.5158395767211914
0.4669412612915039,0.5150888442993163
0.4669412612915039,0.5150888442993163
0.4681337356567383,0.5143976211547852
0.4681337356567383,0.5143976211547852
0.4681629180908203,0.5164369583129883
0.4681629180908203,0.5164369583129883
0.4669160842895508,0.5138895034790039
0.4669160842895508,0.5138895034790039
0.4686149597167968,0.5149034500122071
0.4686149597167968,0.5149034500122071
0.4662523269653320,0.5135375976562500
0.4662523269653320,0.5135375976562500
0.4667415618896484,0.5114049911499023
0.4667415618896484,0.5114049911499023
0.4661104202270507,0.5117883682250977
0.4661104202270507,0.5098628997802734
0.4664829254150391,0.5084438323974609
0.4645317077636719,0.5098028182983398
0.4653253555297852,0.5098028182983398
0.4642135620117187,0.5077205657958984
0.4632946014404297,0.5077205657958984
0.4657499313354492,0.5097982406616210
0.4659811019897461,0.5097982406616210
0.4637489318847656,0.5082721710205078
0.4641042709350586,0.5082721710205078
0.4661144256591797,0.5094211578369140
0.4659358978271484,0.5094211578369140
0.4650804519653320,0.5111629486083984
0.4660915374755859,0.5111629486083984
0.4652149200439453,0.5102394104003906
0.4646547317504883,0.5102394104003906
0.4672817230224609,0.5131513595581054
0.4676353454589843,0.5131513595581054
0.4654792785644531,0.5120601654052734
0.4659101486206054,0.5120601654052734
0.4679746627807617,0.5134082794189453
0.4678882598876953,0.5134082794189453
0.4668685913085937,0.5149898529052734
0.4679386138916015,0.5149898529052734
0.4670162200927734,0.5140388488769531
0.4663198471069336,0.5140388488769531
0.4689571380615234,0.5166709899902343
0.4691854476928711,0.5166709899902343
0.4671014785766601,0.5152713775634765
0.4673927307128906,0.5152713775634765
0.4692237854003906,0.5160701751708984
0.4689760208129883,0.5160701751708984
0.4679649353027344,0.5174554824829102
0.4690361022949219,0.5174554824829102
0.4680284500122070,0.5160913467407227
0.4672714233398437,0.5160913467407227
0.4699224472045898,0.5186571121215821
0.4701742172241211,0.5186571121215821
0.4677886962890625,0.5170543670654296
0.4681846618652343,0.5170543670654296
0.4700592041015625,0.5178239822387695
0.4698577880859375,0.5178239822387695
0.4687431335449219,0.5191143035888671
0.4698303222656250,0.5191143035888671
0.4688049316406250,0.5176729202270508
0.4679677963256836,0.5176729202270508
0.4705696105957031,0.5201551437377929
0.4707612991333008,0.5201551437377929
0.4684587478637695,0.5185111999511719
0.4688718795776367,0.5185111999511719
0.4706583023071289,0.5190988540649414
0.4704483032226562,0.5190988540649414
0.4694091796875000,0.5204103469848632
0.4703149795532227,0.5204103469848632
0.4692512512207031,0.5188293457031250
0.4684988021850586,0.5188293457031250
0.4710548400878906,0.5213201522827148
0.4712156295776367,0.5213201522827148
0.4688753128051757,0.5195657730102539
0.4692810058593750,0.5195657730102539
0.4711481094360351,0.5201436996459960
0.4709186553955078,0.5201436996459960
0.4697319030761719,0.5214334487915039
0.4707355499267578,0.5214334487915039
0.4696323394775390,0.5198799133300781
0.4688644409179688,0.5198799133300781
0.4714525222778320,0.5222511291503906
0.4717123031616210,0.5222511291503906
0.4693553924560547,0.5205419540405273
0.4696929931640625,0.5205419540405273
0.4715269088745117,0.5212108612060546
0.4711412429809570,0.5212108612060546
0.4701438903808594,0.5224800109863281
0.4712196350097656,0.5224800109863281
0.4701650619506836,0.5209648132324218
0.4693262100219726,0.5209648132324218
0.4721277236938476,0.5234682083129882
0.4721494674682617,0.5234682083129882
0.4698022842407226,0.5216817855834961
0.4702011108398437,0.5216817855834961
0.4719726562500000,0.5223369598388672
0.4716785430908203,0.5223369598388672
0.4705513000488281,0.5235671997070312
0.4716436386108398,0.5235671997070312
0.4706308364868164,0.5220726013183593
0.4697742462158203,0.5220726013183593
0.4725826263427734,0.5244312286376953
0.4725448608398437,0.5244312286376953
0.4702640533447265,0.5226573944091797
0.4706577301025390,0.5226573944091797
0.4722621917724609,0.5229721069335938
0.4719646453857422,0.5229721069335938
0.4707933425903320,0.5239837646484374
0.4718021392822265,0.5239837646484374
0.4704368591308594,0.5218322753906249
0.4693702697753906,0.5218322753906249
0.4717134475708007,0.5228931427001953
0.4714754104614258,0.5228931427001953
0.4684301376342773,0.5181673049926757
0.4678424835205078,0.5181673049926757
0.4685520172119140,0.5137825012207031
0.4669887542724609,0.5137825012207031
0.4646404266357422,0.5091287612915039
0.4643251419067382,0.5091287612915039
0.4620340347290039,0.5015939712524414
0.4599197387695312,0.5015939712524414
0.4614074707031250,0.4984050750732422
0.4603906631469726,0.4984050750732422
0.4570140838623047,0.4916782379150391
0.4561952590942382,0.4916782379150391
0.4570089340209961,0.4880870819091797
0.4557575225830078,0.4880870819091797
0.4540712356567382,0.4863962173461914
0.4546325683593750,0.4863962173461914
0.4531019210815430,0.4829607009887695
0.4519695281982422,0.4829607009887695
0.4545948028564453,0.4845726013183593
0.4546211242675781,0.4845726013183593
0.4522413253784179,0.4827564239501953
0.4526767730712891,0.4827564239501953
0.4545358657836914,0.4837823867797851
0.4543401718139648,0.4837823867797851
0.4535625457763672,0.4859195709228515
0.4548007965087890,0.4859195709228515
0.4540563583374023,0.4856414794921875
0.4534996032714844,0.4856414794921875
0.4566278457641602,0.4896915435791016
0.4572315216064453,0.4896915435791016
0.4552379608154297,0.4899513244628906
0.4561431884765625,0.4899513244628906
0.4582981109619140,0.4925811767578125
0.4586053848266601,0.4925811767578125
0.4580961227416992,0.4962135314941406
0.4596593856811523,0.4962135314941406
0.4590248107910156,0.4968584060668945
0.4587404251098632,0.4968584060668945
0.4618961334228515,0.5013055801391602
0.4625478744506836,0.5013055801391602
0.4604352951049804,0.5010063171386718
0.4610773086547851,0.5010063171386718
0.4631521224975585,0.5024923324584961
0.4630977630615234,0.5024923324584961
0.4621398925781250,0.5045700073242188
0.4632202148437500,0.5045700073242188
0.4623029708862305,0.5036659240722656
0.4616518020629883,0.5036659240722656
0.4645076751708984,0.5065750122070313
0.4648103713989258,0.5065750122070313
0.4625907897949219,0.5054048538208008
0.4629753112792969,0.5054048538208008
0.4647972106933593,0.5061944961547852
0.4645826339721679,0.5061944961547852
0.4636219024658203,0.5079465866088867
0.4646833419799805,0.5079465866088867
0.4635234832763672,0.5066190719604492
0.4628705978393555,0.5066190719604492
0.4657098770141601,0.5094154357910156
0.4658506393432617,0.5094154357910156
0.4635183334350585,0.5080741882324219
0.4640378952026367,0.5080741882324219
0.4657688140869141,0.5087768554687500
0.4655988693237305,0.5087768554687500
0.4646095275878906,0.5104001998901367
0.4656520843505859,0.5104001998901367
0.4646055221557617,0.5090229034423828
0.4637672424316406,0.5090229034423828
0.4665578842163086,0.5116441726684570
0.4667695999145507,0.5116441726684570
0.4644687652587891,0.5101335525512695
0.4649934768676758,0.5101335525512695
0.4667003631591797,0.5108179092407227
0.4664354324340820,0.5108179092407227
0.4655376434326172,0.5123239517211914
0.4664411544799805,0.5123239517211914
0.4652978897094726,0.5109661102294921
0.4645362854003906,0.5109661102294921
0.4672834396362304,0.5133350372314452
0.4675397872924805,0.5133350372314452
0.4651479721069336,0.5118873596191406
0.4656034469604492,0.5118873596191406
0.4674545288085937,0.5123388290405273
0.4671838760375976,0.5123388290405273
0.4661487579345703,0.5137109756469727
0.4671455383300781,0.5137109756469727
0.4659273147583007,0.5122455596923828
0.4651319503784179,0.5122455596923828
0.4679609298706054,0.5147089004516602
0.4681257247924804,0.5147089004516602
0.4658025741577148,0.5130025863647460
0.4661115646362304,0.5130025863647460
0.4677743911743164,0.5133779525756835
0.4675449371337890,0.5133779525756835
0.4664628982543945,0.5146207809448242
0.4674762725830078,0.5146207809448242
0.4661808013916016,0.5127874374389648
0.4652830123901367,0.5127874374389648
0.4680118560791016,0.5147209167480469
0.4678430557250977,0.5147209167480469
0.4651828765869140,0.5116922378540039
0.4651634216308593,0.5116922378540039
0.4662157058715820,0.5090801239013671
0.4649185180664062,0.5090801239013671
0.4627046585083008,0.5052703857421875
0.4622606277465820,0.5052703857421875
0.4597463607788086,0.4965379714965820
0.4570369720458984,0.4965379714965820
0.4581996917724609,0.4910825729370117
0.4564155578613281,0.4910825729370117
0.4523878097534180,0.4818912506103515
0.4512474060058593,0.4818912506103515
0.4514419555664062,0.4760135650634765
0.4500131607055664,0.4760135650634765
0.4479761123657227,0.4727760314941406
0.4480058670043945,0.4727760314941406
0.4460638046264648,0.4679843902587890
0.4447843551635742,0.4679843902587890
0.4470651626586914,0.4682853698730469
0.4467842102050781,0.4682853698730469
0.4441303253173828,0.4655250549316406
0.4445051193237304,0.4655250549316406
0.4461301803588867,0.4656240463256835
0.4459093093872070,0.4656240463256835
0.4451625823974609,0.4676324844360351
0.4462371826171875,0.4676324844360351
0.4452959060668945,0.4673103332519531
0.4448432922363281,0.4673103332519531
0.4479949951171875,0.4710897445678711
0.4485071182250976,0.4710897445678711
0.4467247009277344,0.4715635299682617
0.4476888656616211,0.4715635299682617
0.4498117446899414,0.4742752075195312
0.4503524780273437,0.4742752075195312
0.4499879837036133,0.4789844512939453
0.4517131805419922,0.4789844512939453
0.4511793136596680,0.4806489944458008
0.4512256622314453,0.4806489944458008
0.4546966552734375,0.4859172821044921
0.4553575515747070,0.4859172821044921
0.4535911560058594,0.4866525650024414
0.4544357299804687,0.4866525650024414
0.4564298629760742,0.4888246536254883
0.4566535949707031,0.4888246536254883
0.4559886932373047,0.4914876937866210
0.4569728851318359,0.4914876937866210
0.4561563491821289,0.4907827377319336
0.4555526733398437,0.4907827377319336
0.4584709167480469,0.4939996719360351
0.4587398529052734,0.4939996719360351
0.4566867828369141,0.4933090209960938
0.4571880340576172,0.4933090209960938
0.4588766098022461,0.4942428588867187
0.4589275360107422,0.4942428588867187
0.4581945419311523,0.4964069366455078
0.4591638565063476,0.4964069366455078
0.4580537796020507,0.4952962875366211
0.4574043273925781,0.4952962875366211
0.4602882385253906,0.4982002258300781
0.4605611801147461,0.4982002258300781
0.4583541870117187,0.4972103118896484
0.4589263916015625,0.4972103118896484
0.4606309890747070,0.4979261398315429
0.4605897903442382,0.4979261398315429
0.4596347808837891,0.4998550415039062
0.4606132507324219,0.4998550415039062
0.4594556808471679,0.4985681533813476
0.4588588714599609,0.4985681533813476
0.4616632461547852,0.5013519287109375
0.4617942810058593,0.5013519287109375
0.4597703933715820,0.5001474380493164
0.4601737976074218,0.5001474380493164
0.4617725372314453,0.5007837295532226
0.4617267608642578,0.5007837295532226
0.4608306884765625,0.5025941848754882
0.4617794036865234,0.5025941848754882
0.4605897903442382,0.5012420654296875
0.4598842620849609,0.5012420654296875
0.4628299713134765,0.5039411544799804
0.4629501342773437,0.5039411544799804
0.4607763290405273,0.5026016235351562
0.4611791610717773,0.5026016235351562
0.4629037857055664,0.5032287597656250
0.4627641677856445,0.5032287597656250
0.4618846893310546,0.5048818588256836
0.4628368377685547,0.5048818588256836
0.4616735458374023,0.5034851074218750
0.4609239578247070,0.5034851074218750
0.4637815475463867,0.5061264038085938
0.4639114379882812,0.5061264038085938
0.4617033004760742,0.5048498153686524
0.4622159957885742,0.5048498153686524
0.4639125823974609,0.5054271697998046
0.4637666702270508,0.5054271697998046
0.4629163742065430,0.5071723937988281
0.4637672424316406,0.5071723937988281
0.4625776290893555,0.5056915283203125
0.4618160247802734,0.5056915283203125
0.4646003723144531,0.5082578659057617
0.4648555755615234,0.5082578659057617
0.4625015258789062,0.5067489624023437
0.4630210876464844,0.5067489624023437
0.4628826141357422,0.5061710357666015
0.4628826141357422,0.5061710357666015
0.4628826141357422,0.5064697265625000
0.4647651672363281,0.5076232910156250
0.4647651672363281,0.5076232910156250
0.4621730804443359,0.5062362670898437
0.4621730804443359,0.5062362670898437
0.4619785308837890,0.5016368865966797
0.4619785308837890,0.5016368865966797
0.4598854064941406,0.4974443435668945
0.4598854064941406,0.4974443435668945
0.4550531387329101,0.4872613906860351
0.4550531387329101,0.4872613906860351
0.4532409667968750,0.4802124023437500
0.4510311126708984,0.4802124023437500
0.4475349426269531,0.4726112365722656
0.4475349426269531,0.4726112365722656
0.4457468032836914,0.4658575057983398
0.4457468032836914,0.4658575057983398
0.4442155838012695,0.4637809753417969
0.4442155838012695,0.4637809753417969
0.4412727355957031,0.4590568542480469
0.4412727355957031,0.4590568542480469
0.4425458908081055,0.4587604522705078
0.4425458908081055,0.4587604522705078
0.4399120330810547,0.4577922821044922
0.4399120330810547,0.4577922821044922
0.4406026840209961,0.4561368942260742
0.4406026840209961,0.4561368942260742
0.4407949447631836,0.4575725555419922
0.4407949447631836,0.4575725555419922
0.4392110824584961,0.4549329757690430
0.4392110824584961,0.4549329757690430
0.4410678863525391,0.4560441970825195
0.4410678863525391,0.4560441970825195
0.4389547348022461,0.4562564849853515
0.4389547348022461,0.4562564849853515
0.4404087066650391,0.4560132980346679
0.4404087066650391,0.4560132980346679
0.4414901733398438,0.4590299606323242
0.4414901733398438,0.4590299606323242
0.4405843734741211,0.4582231521606445
0.4404687881469727,0.4582231521606445
0.4435369491577149,0.4617908477783203
0.4435369491577149,0.4617908477783203
0.4425035476684570,0.4647668838500976
0.4443460464477539,0.4647668838500976
0.4453153610229492,0.4671255111694336
0.4453153610229492,0.4671255111694336
0.4474685668945312,0.4726976394653320
0.4474685668945312,0.4726976394653320
0.4476121902465820,0.4739461898803711
0.4476121902465820,0.4739461898803711
0.4511095046997070,0.4785118103027344
0.4511095046997070,0.4785118103027344
0.4502145767211914,0.4809127807617187
0.4502145767211914,0.4809127807617187
0.4523002624511718,0.4819318771362304
0.4523002624511718,0.4819318771362304
0.4536088943481445,0.4855127334594727
0.4536088943481445,0.4855127334594727
0.4526315689086914,0.4846893310546875
0.4523729324340820,0.4846893310546875
0.4553981781005859,0.4871835708618164
0.4553981781005859,0.4871835708618164
0.4537147521972656,0.4881328582763672
0.4537147521972656,0.4881328582763672
0.4552093505859375,0.4880933761596680
0.4552093505859375,0.4880933761596680
0.4560934066772461,0.4908966064453125
0.4560934066772461,0.4908966064453125
0.4551132202148437,0.4895719528198242
0.4551132202148437,0.4895719528198242
0.4573974609375000,0.4917469024658203
0.4573974609375000,0.4917469024658203
0.4556390762329101,0.4924455642700195
0.4556390762329101,0.4924455642700195
0.4569305419921875,0.4920902252197266
0.4569305419921875,0.4920902252197266
0.4578489303588867,0.4945970535278320
0.4578489303588867,0.4945970535278320
0.4566432952880859,0.4931854248046875
0.4566432952880859,0.4931854248046875
0.4589595794677734,0.4951852798461914
0.4589595794677734,0.4951852798461914
0.4570180892944335,0.4958370208740234
0.4570180892944335,0.4958370208740234
0.4584274291992188,0.4953334808349609
0.4584274291992188,0.4953334808349609
0.4592342376708984,0.4978723526000977
0.4592342376708984,0.4978723526000977
0.4579954147338867,0.4963285446166992
0.4579954147338867,0.4963285446166992
0.4601760864257812,0.4982683181762695
0.4599586486816406,0.4982683181762695
0.4584165573120117,0.4987340927124023
0.4584165573120117,0.4987340927124023
0.4596536636352539,0.4982482910156250
0.4596536636352539,0.4982482910156250
0.4605617523193359,0.5006584167480469
0.4605617523193359,0.5006584167480469
0.4590517044067383,0.4990207672119140
0.4590517044067383,0.4990207672119140
0.4615139007568359,0.5008483886718750
0.4615139007568359,0.5008483886718750
0.4594854354858398,0.5010864257812500
0.4594854354858398,0.5010864257812500
0.4606727600097656,0.5003871917724609
0.4606727600097656,0.5003871917724609
0.4612243652343750,0.5025392532348633
0.4612243652343750,0.5025392532348633
0.4597005844116211,0.5000724792480469
0.4597005844116211,0.5000724792480469
0.4612226486206055,0.5001102447509765
0.4612226486206055,0.5001102447509765
0.4576761245727539,0.4962862014770508
0.4576761245727539,0.4962862014770508
0.4561254501342773,0.4888818740844726
0.4561254501342773,0.4888818740844726
0.4531751632690429,0.4825286865234375
0.4531751632690429,0.4825286865234375
0.4476871490478516,0.4716493606567382
0.4476871490478516,0.4716493606567382
0.4459917068481445,0.4651954650878906
0.4459917068481445,0.4651954650878906
0.4405614852905274,0.4589452743530273
0.4405614852905274,0.4589452743530273
0.4393535614013672,0.4534320831298828
0.4393535614013672,0.4534320831298828
0.4384185791015625,0.4523300170898437
0.4384185791015625,0.4523300170898437
0.4356874465942382,0.4481597900390625
0.4356874465942382,0.4481597900390625
0.4369377136230468,0.4481586456298828
0.4369377136230468,0.4481586456298828
0.4345579147338867,0.4474262237548828
0.4345579147338867,0.4474262237548828
0.4354248046875000,0.4459093093872070
0.4354248046875000,0.4459093093872070
0.4358058929443359,0.4478296279907226
0.4358058929443359,0.4478296279907226
0.4342506408691406,0.4457393646240234
0.4342506408691406,0.4457393646240234
0.4367042541503906,0.4476081848144531
0.4367042541503906,0.4476081848144531
0.4350311279296875,0.4484109878540039
0.4350311279296875,0.4484109878540039
0.4365537643432617,0.4484973907470703
0.4365537643432617,0.4484973907470703
0.4375459671020508,0.4519460678100586
0.4375459671020508,0.4519460678100586
0.4371219635009765,0.4521183013916015
0.4405323028564453,0.4565946578979492
0.4405323028564453,0.4565946578979492
0.4402839660644531,0.4606401443481445
0.4402839660644531,0.4606401443481445
0.4431352615356445,0.4634233474731445
0.4431352615356445,0.4634233474731445
0.4454332351684570,0.4689348220825195
0.4454332351684570,0.4689348220825195
0.4455081939697266,0.4697462081909179
0.4455081939697266,0.4697462081909179
0.4485454559326172,0.4733499526977539
0.4485454559326172,0.4733499526977539
0.4472808837890625,0.4748622894287109
0.4472808837890625,0.4748622894287109
0.4488750457763672,0.4751392364501953
0.4488750457763672,0.4751392364501953
0.4500532150268555,0.4782651901245117
0.4500532150268555,0.4782651901245117
0.4489425659179687,0.4773010253906250
0.4489425659179687,0.4773010253906250
0.4513790130615234,0.4796665191650391
0.4513790130615234,0.4796665191650391
0.4498907089233398,0.4806049346923828
0.4498907089233398,0.4806049346923828
0.4512479782104492,0.4804012298583984
0.4512479782104492,0.4804012298583984
0.4522441864013672,0.4831426620483398
0.4522441864013672,0.4831426620483398
0.4509584426879882,0.4818317413330078
0.4509584426879882,0.4818317413330078
0.4534812927246094,0.4838842391967773
0.4534812927246094,0.4838842391967773
0.4517910003662109,0.4847059249877930
0.4517910003662109,0.4847059249877930
0.4529909133911132,0.4843374252319336
0.4529909133911132,0.4843374252319336
0.4538045883178711,0.4868465423583984
0.4538045883178711,0.4868465423583984
0.4527128219604492,0.4855379104614257
0.4527128219604492,0.4855379104614257
0.4550291061401367,0.4875389099121094
0.4550291061401367,0.4875389099121094
0.4533193588256836,0.4881963729858398
0.4533193588256836,0.4881963729858398
0.4544929504394531,0.4877431869506836
0.4544929504394531,0.4877431869506836
0.4555452346801758,0.4903335571289062
0.4555452346801758,0.4903335571289062
0.4543024063110351,0.4889293670654297
0.4543024063110351,0.4889293670654297
0.4566318511962890,0.4907695770263671
0.4566318511962890,0.4907695770263671
0.4547922134399414,0.4913509368896484
0.4547922134399414,0.4913509368896484
0.4560567855834960,0.4908147811889648
0.4560567855834960,0.4908147811889648
0.4570484161376953,0.4932695388793945
0.4570484161376953,0.4932695388793945
0.4556344985961914,0.4917657852172851
0.4556344985961914,0.4917657852172851
0.4578552246093750,0.4934926986694336
0.4578552246093750,0.4934926986694336
0.4560602188110351,0.4937953948974609
0.4560602188110351,0.4937953948974609
0.4570438385009765,0.4928575515747070
0.4570438385009765,0.4928575515747070
0.4575788497924804,0.4946262359619140
0.4575788497924804,0.4946262359619140
0.4554822921752930,0.4914396286010742
0.4546394348144531,0.4914396286010742
0.4563749313354492,0.4894609451293945
0.4563749313354492,0.4894609451293945
0.4521692276000976,0.4841154098510742
0.4521692276000976,0.4841154098510742
0.4501264572143555,0.4760427474975586
0.4501264572143555,0.4760427474975586
0.4475761413574219,0.4713460922241210
0.4475761413574219,0.4713460922241210
0.4432165145874024,0.4633340835571289
0.4432165145874024,0.4633340835571289
0.4431249618530274,0.4602367401123046
0.4431249618530274,0.4602367401123046
0.4393970489501953,0.4571256637573242
0.4393970489501953,0.4571256637573242
0.4391046524047851,0.4539773941040039
0.4391046524047851,0.4539773941040039
0.4393707275390625,0.4550588607788086
0.4393707275390625,0.4550588607788086
0.4374830245971680,0.4526687622070312
0.4374830245971680,0.4526687622070312
0.4396980285644531,0.4542531967163086
0.4396980285644531,0.4542531967163086
0.4378183364868164,0.4550611495971679
0.4378183364868164,0.4550611495971679
0.4393106460571289,0.4550834655761719
0.4393106460571289,0.4550834655761719
0.4407217025756836,0.4585870742797851
0.4407217025756836,0.4585870742797851
0.4399726867675781,0.4585332870483398
0.4401769638061523,0.4585332870483398
0.4430688858032226,0.4622125625610352
0.4430688858032226,0.4622125625610352
0.4423164367675781,0.4648944854736328
0.4423164367675781,0.4648944854736328
0.4445491790771484,0.4666797637939453
0.4445491790771484,0.4666797637939453
0.4465238571166992,0.4716716766357422
0.4465238571166992,0.4716716766357422
0.4462966918945312,0.4724086761474609
0.4462966918945312,0.4724086761474609
0.4496126174926758,0.4761383056640625
0.4496126174926758,0.4761383056640625
0.4484762191772461,0.4780500411987305
0.4484762191772461,0.4780500411987305
0.4501693725585937,0.4785650253295898
0.4501693725585937,0.4785650253295898
0.4513366699218750,0.4817453384399414
0.4513366699218750,0.4817453384399414
0.4504131317138672,0.4807531356811523
0.4504131317138672,0.4807531356811523
0.4529691696166992,0.4829864501953125
0.4529691696166992,0.4829864501953125
0.4511587142944335,0.4838144302368164
0.4511587142944335,0.4838144302368164
0.4522876739501953,0.4834671020507812
0.4522876739501953,0.4834671020507812
0.4534063339233398,0.4862257003784179
0.4534063339233398,0.4862257003784179
0.4522476196289062,0.4848466873168945
0.4522476196289062,0.4848466873168945
0.4545307159423828,0.4867750167846679
0.4545307159423828,0.4867750167846679
0.4526807785034179,0.4874410629272461
0.4526807785034179,0.4874410629272461
0.4538578033447265,0.4868207931518554
0.4538578033447265,0.4868207931518554
0.4548992156982422,0.4893745422363281
0.4548992156982422,0.4893745422363281
0.4535602569580078,0.4880058288574218
0.4535602569580078,0.4880058288574218
0.4557987213134765,0.4898208618164062
0.4557987213134765,0.4898208618164062
0.4541501998901367,0.4903810501098633
0.4541501998901367,0.4903810501098633
0.4552516937255859,0.4896675109863281
0.4552516937255859,0.4896675109863281
0.4561180114746093,0.4922155380249023
0.4561180114746093,0.4922155380249023
0.4555114746093750,0.4927602767944336
0.4563663482666016,0.4927602767944336
0.4551458358764648,0.4911867141723633
0.4544803619384765,0.4911867141723633
0.4574089050292969,0.4937187194824219
0.4574575424194336,0.4937187194824219
0.4552659988403320,0.4926664352416992
0.4559051513671875,0.4926664352416992
0.4572349548339844,0.4930492401123047
0.4569946289062500,0.4930492401123047
0.4565975189208984,0.4950891494750976
0.4575525283813476,0.4950891494750976
0.4561140060424804,0.4934194564819336
0.4554410934448242,0.4934194564819336
0.4583341598510742,0.4960298538208008
0.4583576202392578,0.4960298538208008
0.4561666488647461,0.4948802947998047
0.4568132400512695,0.4948802947998047
0.4581905364990234,0.4951498031616210
0.4577791213989257,0.4951498031616210
0.4573682785034179,0.4968927383422851
0.4582117080688476,0.4968927383422851
0.4566799163818359,0.4949386596679687
0.4558433532714843,0.4949386596679687
0.4585922241210937,0.4966569900512695
0.4584028244018554,0.4966569900512695
0.4558015823364258,0.4937181472778320
0.4557575225830078,0.4937181472778320
0.4561878204345703,0.4901727676391601
0.4547458648681640,0.4901727676391601
0.4530458450317383,0.4865461349487304
0.4525354385375976,0.4865461349487304
0.4496246337890625,0.4779178619384765
0.4473690032958984,0.4779178619384765
0.4487897872924805,0.4737264633178710
0.4472980499267578,0.4737264633178710
0.4437589645385742,0.4665899276733398
0.4431020736694336,0.4665899276733398
0.4433080673217774,0.4622486114501953
0.4420005798339844,0.4622486114501953
0.4407239913940429,0.4602487564086914
0.4408779144287109,0.4602487564086914
0.4388076782226563,0.4556774139404297
0.4374738693237304,0.4556774139404297
0.4399944305419922,0.4560579299926757
0.4395750045776367,0.4560579299926757
0.4369886398315430,0.4533004760742188
0.4372713088989258,0.4533004760742188
0.4383693695068359,0.4525920867919921
0.4377639770507812,0.4525920867919921
0.4372095108032226,0.4535116195678711
0.4380311965942383,0.4535116195678711
0.4362842559814453,0.4510505676269531
0.4354368209838867,0.4510505676269531
0.4383029937744141,0.4530944824218750
0.4382698059082031,0.4530944824218750
0.4359746932983398,0.4515460968017578
0.4365383148193359,0.4515460968017578
0.4380706787109375,0.4520977020263672
0.4377330780029297,0.4520977020263672
0.4374996185302734,0.4545930862426757
0.4388408660888672,0.4545930862426757
0.4375499725341797,0.4539934158325195
0.4370830535888672,0.4539934158325195
0.4405071258544922,0.4584560394287109
0.4411365509033203,0.4584560394287109
0.4393901824951172,0.4594991683959961
0.4405958175659180,0.4594991683959961
0.4425859451293945,0.4624076843261719
0.4428434371948242,0.4624076843261719
0.4429527282714844,0.4669527053833007
0.4446647644042969,0.4669527053833007
0.4436536788940429,0.4678304672241211
0.4435558319091797,0.4678304672241211
0.4471458435058593,0.4726530075073242
0.4477758407592773,0.4726530075073242
0.4458435058593750,0.4731943130493164
0.4468854904174804,0.4731943130493164
0.4484968185424805,0.4751701354980469
0.4482410430908203,0.4751701354980469
0.4484304428100586,0.4780591964721679
0.4494827270507812,0.4780591964721679
0.4483503341674804,0.4770349502563476
0.4476585388183594,0.4770349502563476
0.4508262634277344,0.4801454544067383
0.4509590148925781,0.4801454544067383
0.4488029479980469,0.4793489456176758
0.4496337890625000,0.4793489456176758
0.4509630203247070,0.4802782058715820
0.4506574630737304,0.4802782058715820
0.4503736495971680,0.4824880599975586
0.4516004562377929,0.4824880599975586
0.4501888275146484,0.4812892913818359
0.4495044708251953,0.4812892913818359
0.4525789260864257,0.4841388702392578
0.4527185440063476,0.4841388702392578
0.4505556106567383,0.4831003189086914
0.4512651443481445,0.4831003189086914
0.4527048110961914,0.4837062835693359
0.4522939682006836,0.4837062835693359
0.4519260406494141,0.4857782363891601
0.4530567169189453,0.4857782363891601
0.4516016006469726,0.4844381332397460
0.4509012222290039,0.4844381332397460
0.4540283203125000,0.4872745513916015
0.4541473388671875,0.4872745513916015
0.4519929885864258,0.4862056732177734
0.4526309967041016,0.4862056732177734
0.4540157318115234,0.4868099212646484
0.4536415100097656,0.4868099212646484
0.4532924652099609,0.4889316558837891
0.4543762207031250,0.4889316558837891
0.4529462814331054,0.4873517990112304
0.4522247314453125,0.4873517990112304
0.4553632736206055,0.4901659011840820
0.4554731369018554,0.4901659011840820
0.4532003402709961,0.4890386581420898
0.4539339065551757,0.4890386581420898
0.4553478240966797,0.4894689559936523
0.4549650192260742,0.4894689559936523
0.4545879364013672,0.4916599273681641
0.4556276321411132,0.4916599273681641
0.4542646408081055,0.4899976730346680
0.4534572601318359,0.4899976730346680
0.4565088272094726,0.4926395416259766
0.4565958023071289,0.4926395416259766
0.4542640686035156,0.4914505004882812
0.4549781799316406,0.4914505004882812
0.4563823699951172,0.4919408798217773
0.4559383392333984,0.4919408798217773
0.4557060241699218,0.4938583374023438
0.4565872192382812,0.4938583374023438
0.4550720214843750,0.4920267105102539
0.4543642044067382,0.4920267105102539
0.4572727203369140,0.4943790435791016
0.4572343826293945,0.4943790435791016
0.4548471450805664,0.4925937652587891
0.4552711486816406,0.4925937652587891
0.4564527511596679,0.4919454574584960
0.4555606842041016,0.4919454574584960
0.4545965194702148,0.4912868499755859
0.4548236846923828,0.4912868499755859
0.4523580551147461,0.4851625442504883
0.4504594802856445,0.4851625442504883
0.4523540496826172,0.4823976516723633
0.4510734558105469,0.4823976516723633
0.4475749969482422,0.4755128860473632
0.4470748901367188,0.4755128860473632
0.4472814559936523,0.4713712692260742
0.4459384918212890,0.4713712692260742
0.4449680328369141,0.4701364517211914
0.4453857421875000,0.4701364517211914
0.4434167861938477,0.4660886764526367
0.4422649383544922,0.4660886764526367
0.4450996398925781,0.4674373626708984
0.4449119567871094,0.4674373626708984
0.4426265716552734,0.4656847000122070
0.4433086395263672,0.4656847000122070
0.4446796417236328,0.4663209915161133
0.4443969726562500,0.4663209915161133
0.4441583633422851,0.4687482833862304
0.4453245162963867,0.4687482833862304
0.4440147399902344,0.4677394866943359
0.4434522628784179,0.4677394866943359
0.4466611862182617,0.4712985992431640
0.4470170974731445,0.4712985992431640
0.4449954986572265,0.4711555480957031
0.4460409164428711,0.4711555480957031
0.4476190567016601,0.4729110717773437
0.4475452423095703,0.4729110717773437
0.4475658416748047,0.4765068054199219
0.4490907669067383,0.4765068054199219
0.4478977203369141,0.4764844894409179
0.4476402282714844,0.4764844894409179
0.4511312484741211,0.4809700012207031
0.4515918731689453,0.4809700012207031
0.4496601104736328,0.4815925598144531
0.4508548736572265,0.4815925598144531
0.4525714874267578,0.4835889816284180
0.4524204254150390,0.4835889816284180
0.4524518966674804,0.4868471145629882
0.4537851333618164,0.4868471145629882
0.4523317337036132,0.4860534667968750
0.4518075942993164,0.4860534667968750
0.4550497055053710,0.4891908645629883
0.4551412582397460,0.4891908645629883
0.4530424118041992,0.4883840560913086
0.4538572311401367,0.4883840560913086
0.4552356719970703,0.4891702651977539
0.4548786163330078,0.4891702651977539
0.4546709060668945,0.4914567947387695
0.4557975769042968,0.4914567947387695
0.4542331695556641,0.4898832321166992
0.4535465240478516,0.4898832321166992
0.4566375732421875,0.4926887512207031
0.4566507339477539,0.4926887512207031
0.4543722152709961,0.4914636611938477
0.4551057815551758,0.4914636611938477
0.4564659118652343,0.4920169830322265
0.4561220169067383,0.4920169830322265
0.4557632446289062,0.4941141128540039
0.4567949295043945,0.4941141128540039
0.4554096221923828,0.4924032211303710
0.4545335769653320,0.4924032211303710
0.4575582504272461,0.4947607040405273
0.4575353622436523,0.4947607040405273
0.4552448272705078,0.4934326171875000
0.4558788299560547,0.4934326171875000
0.4572206497192383,0.4938606262207031
0.4568338394165039,0.4938606262207031
0.4565374374389648,0.4958553314208984
0.4575508117675781,0.4958553314208984
0.4560110092163085,0.4940580368041992
0.4552539825439453,0.4940580368041992
0.4581888198852539,0.4965814590454101
0.4582443237304688,0.4965814590454101
0.4560241699218750,0.4953557968139648
0.4565900802612304,0.4953557968139648
0.4579965591430664,0.4957666397094727
0.4576480865478516,0.4957666397094727
0.4573568344116211,0.4978128433227539
0.4584125518798828,0.4978128433227539
0.4569431304931640,0.4961540222167968
0.4562181472778320,0.4961540222167968
0.4591810226440429,0.4985143661499023
0.4592479705810547,0.4985143661499023
0.4570518493652344,0.4972732543945312
0.4576526641845703,0.4972732543945312
0.4589784622192383,0.4975902557373046
0.4586362838745117,0.4975902557373046
0.4582294464111328,0.4994235992431640
0.4592811584472656,0.4994235992431640
0.4577104568481445,0.4978071212768554
0.4570552825927734,0.4978071212768554
0.4600439071655273,0.5002744674682617
0.4600736618041992,0.5002744674682617
0.4577722549438477,0.4987037658691406
0.4583644866943359,0.4987037658691406
0.4596965789794922,0.4990430831909179
0.4592433929443359,0.4990430831909179
0.4588926315307617,0.5007843017578125
0.4597846984863281,0.5007843017578125
0.4582849502563476,0.4987873077392578
0.4574483871459961,0.4987873077392578
0.4602870941162109,0.5008209228515624
0.4602401733398437,0.5008209228515624
0.4577070236206054,0.4988307952880859
0.4580646514892578,0.4988307952880859
0.4589361190795898,0.4974403381347656
0.4579444885253906,0.4974403381347656
0.4570123672485351,0.4960739135742187
0.4568796157836914,0.4960739135742187
0.4542085647583007,0.4891942977905273
0.4522230148315429,0.4891942977905273
0.4537748336791992,0.4853233337402343
0.4522722244262695,0.4853233337402343
0.4487749099731445,0.4777656555175781
0.4479669570922851,0.4777656555175781
0.4480630874633789,0.4727731704711914
0.4465553283691406,0.4727731704711914
0.4453170776367187,0.4705066680908203
0.4453886032104492,0.4705066680908203
0.4433258056640625,0.4657264709472656
0.4420623779296875,0.4657264709472656
0.4444736480712890,0.4661893844604492
0.4441486358642578,0.4661893844604492
0.4417894363403320,0.4637569427490234
0.4421184539794922,0.4637569427490234
0.4433481216430664,0.4635217666625976
0.4429292678833008,0.4635217666625976
0.4426403045654297,0.4654529571533203
0.4436325073242187,0.4654529571533203
0.4421648025512695,0.4638948440551758
0.4416458129882813,0.4638948440551758
0.4447500228881836,0.4669996261596679
0.4448661804199219,0.4669996261596679
0.4428377151489258,0.4666002273559570
0.4437852859497070,0.4666002273559570
0.4452753067016602,0.4682064056396484
0.4452907562255859,0.4682064056396484
0.4453090667724609,0.4715452194213867
0.4466909408569336,0.4715452194213867
0.4454938888549805,0.4716768264770508
0.4452518463134765,0.4716768264770508
0.4487274169921875,0.4760587692260742
0.4492658615112304,0.4760587692260742
0.4474634170532226,0.4770114898681641
0.4485734939575195,0.4770114898681641
0.4503936767578125,0.4792488098144531
0.4503593444824219,0.4792488098144531
0.4505527496337891,0.4828256607055664
0.4517732620239258,0.4828256607055664
0.4506196975708008,0.4822082519531250
0.4500789642333984,0.4822082519531250
0.4531694412231445,0.4855539321899414
0.4533605575561523,0.4855539321899414
0.4512371063232422,0.4848787307739257
0.4520376205444336,0.4848787307739257
0.4520771026611328,0.4856700897216797
0.4518459320068359,0.4856700897216797
0.4544483184814453,0.4874925613403320
0.4543281555175781,0.4874925613403320
0.4525651931762695,0.4881820678710938
0.4525651931762695,0.4881820678710938
0.4538166046142578,0.4875864028930664
0.4538166046142578,0.4875864028930664
0.4547235488891601,0.4900382995605468
0.4547235488891601,0.4900382995605468
0.4532976150512695,0.4884607315063476
0.4532976150512695,0.4884607315063476
0.4554971694946289,0.4901315689086914
0.4554971694946289,0.4901315689086914
0.4538990020751953,0.4905418395996093
0.4538990020751953,0.4905418395996093
0.4548465728759765,0.4899021148681640
0.4548465728759765,0.4899021148681640
0.4557649612426757,0.4922143936157226
0.4557649612426757,0.4922143936157226
0.4541696548461914,0.4906436920166015
0.4541696548461914,0.4906436920166015
0.4564825057983398,0.4921422958374023
0.4564825057983398,0.4921422958374023
0.4547224044799805,0.4926155090332031
0.4557735443115234,0.4926155090332031
0.4556499481201172,0.4917881011962890
0.4556499481201172,0.4917881011962890
0.4564418792724609,0.4941730499267578
0.4564418792724609,0.4941730499267578
0.4550342559814453,0.4924661636352539
0.4550342559814453,0.4924661636352539
0.4573539733886718,0.4939699172973633
0.4573539733886718,0.4939699172973633
0.4554731369018554,0.4943641662597656
0.4554731369018554,0.4943641662597656
0.4564052581787109,0.4936838150024414
0.4556190490722656,0.4936838150024414
0.4572841644287109,0.4959606170654297
0.4572841644287109,0.4959606170654297
0.4560132980346679,0.4942731857299805
0.4560132980346679,0.4942731857299805
0.4582157135009766,0.4958742141723633
0.4582157135009766,0.4958742141723633
0.4563703536987305,0.4964326858520507
0.4563703536987305,0.4964326858520507
0.4574272155761718,0.4956705093383789
0.4574272155761718,0.4956705093383789
0.4584486007690429,0.4979799270629883
0.4584486007690429,0.4979799270629883
0.4568984985351562,0.4962375640869141
0.4568984985351562,0.4962375640869141
0.4591289520263672,0.4978420257568359
0.4591289520263672,0.4978420257568359
0.4572984695434570,0.4983495712280273
0.4572984695434570,0.4983495712280273
0.4582111358642578,0.4973196029663086
0.4582111358642578,0.4973196029663086
0.4589893341064453,0.4993961334228516
0.4589893341064453,0.4993961334228516
0.4572149276733398,0.4972423553466797
0.4572149276733398,0.4972423553466797
0.4592679977416992,0.4981327056884766
0.4588308334350586,0.4981327056884766
0.4568384170532226,0.4970357894897461
0.4568384170532226,0.4970357894897461
0.4566026687622070,0.4935390472412109
0.4566026687622070,0.4935390472412109
0.4559108734130859,0.4922927856445312
0.4559108734130859,0.4922927856445312
0.4527820587158203,0.4867424011230468
0.4527820587158203,0.4867424011230468
0.4533594131469726,0.4843322753906250
0.4533594131469726,0.4843322753906250
0.4499330520629883,0.4815216064453125
0.4499330520629883,0.4815216064453125
0.4497310638427734,0.4784042358398437
0.4497310638427734,0.4784042358398437
0.4499776840209961,0.4794084548950195
0.4499776840209961,0.4794084548950195
0.4482107162475586,0.4771865844726562
0.4482107162475586,0.4771865844726562
0.4504909515380859,0.4788797378540039
0.4504909515380859,0.4788797378540039
0.4488784790039063,0.4801500320434570
0.4488784790039063,0.4801500320434570
0.4503450393676758,0.4801860809326172
0.4503450393676758,0.4801860809326172
0.4526081085205078,0.4838138580322265
0.4526081085205078,0.4845623016357422
0.4509687423706055,0.4837125778198242
0.4512445449829101,0.4837125778198242
0.4541868209838867,0.4871829986572265
0.4541868209838867,0.4871829986572265
0.4531682968139648,0.4893081665039062
0.4531682968139648,0.4893081665039062
0.4548259735107422,0.4899353027343750
0.4544506072998047,0.4899353027343750
0.4563331604003906,0.4933610916137695
0.4563331604003906,0.4933610916137695
0.4550954818725585,0.4924043655395507
0.4550954818725585,0.4924043655395507
0.4578603744506836,0.4946159362792968
0.4578603744506836,0.4946159362792968
0.4561220169067383,0.4953065872192383
0.4561220169067383,0.4953065872192383
0.4572023391723632,0.4948310852050781
0.4572023391723632,0.4948310852050781
0.4582077026367187,0.4974712371826172
0.4582077026367187,0.4974712371826172
0.4567880630493164,0.4958118438720703
0.4567880630493164,0.4958118438720703
0.4592565536499023,0.4976171493530273
0.4592565536499023,0.4976171493530273
0.4573534011840820,0.4981904983520508
0.4573534011840820,0.4981904983520508
0.4583164215087890,0.4973390579223633
0.4583164215087890,0.4973390579223633
0.4592679977416992,0.4997371673583984
0.4592679977416992,0.4997371673583984
0.4577854156494141,0.4979776382446289
0.4577854156494141,0.4979776382446289
0.4602258682250976,0.4997457504272461
0.4602258682250976,0.4997457504272461
0.4581418991088867,0.5001314163208007
0.4581418991088867,0.5001314163208007
0.4592227935791016,0.4992324829101562
0.4592227935791016,0.4992324829101562
0.4600788116455078,0.5015613555908203
0.4605731964111328,0.5015613555908203
0.4585830688476562,0.4997520446777344
0.4585830688476562,0.4997520446777344
0.4608301162719726,0.5014411926269531
0.4608301162719726,0.5014411926269531
0.4589830398559570,0.5016323089599609
0.4589830398559570,0.5016323089599609
0.4600410461425781,0.5008214950561524
0.4600410461425781,0.5008214950561524
0.4607276916503906,0.5030645370483399
0.4607276916503906,0.5030645370483399
0.4590414047241211,0.5011831283569336
0.4590414047241211,0.5011831283569336
0.4614664077758789,0.5027257919311523
0.4614664077758789,0.5027257919311523
0.4596038818359375,0.5029672622680664
0.4596038818359375,0.5029672622680664
0.4605640411376953,0.5021696090698242
0.4605640411376953,0.5021696090698242
0.4612060546875000,0.5042924880981445
0.4612060546875000,0.5042924880981445
0.4598407745361328,0.5024682998657226
0.4598407745361328,0.5024682998657226
0.4621021270751953,0.5040819168090820
0.4621021270751953,0.5040819168090820
0.4602493286132812,0.5045173645019531
0.4602493286132812,0.5045173645019531
0.4610446929931640,0.5035629272460938
0.4610446929931640,0.5035629272460938
0.4619619369506835,0.5058225631713867
0.4619619369506835,0.5058225631713867
0.4604621887207031,0.5039062500000000
0.4604621887207031,0.5039062500000000
0.4627258300781250,0.5053442001342773
0.4627258300781250,0.5053442001342773
0.4606916427612304,0.5056617736816406
0.4606916427612304,0.5056617736816406
0.4615476608276367,0.5044017791748047
0.4615476608276367,0.5044017791748047
0.4622571945190430,0.5061098098754883
0.4624620437622070,0.5061098098754883
0.4603105545043945,0.5035469055175781
0.4603105545043945,0.5035469055175781
0.4618915557861328,0.5035177230834961
0.4618915557861328,0.5035177230834961
0.4588319778442382,0.5010463714599609
0.4588319778442382,0.5010463714599609
0.4581413269042969,0.4961877822875976
0.4581413269042969,0.4961877822875976
0.4571743011474609,0.4942955017089843
0.4571743011474609,0.4942955017089843
0.4535024642944336,0.4882089614868164
0.4523866653442383,0.4882089614868164
0.4542594909667969,0.4861536026000977
0.4542594909667969,0.4861536026000977
0.4511295318603515,0.4840484619140625
0.4511295318603515,0.4840484619140625
0.4512044906616210,0.4815153121948242
0.4512044906616210,0.4815153121948242
0.4515598297119141,0.4829755783081054
0.4515598297119141,0.4829755783081054
0.4499628067016602,0.4810129165649414
0.4499628067016602,0.4810129165649414
0.4524358749389648,0.4828771591186523
0.4524358749389648,0.4828771591186523
0.4507335662841797,0.4837915420532226
0.4520685195922851,0.4837915420532226
0.4519157409667969,0.4838481903076172
0.4519157409667969,0.4838481903076172
0.4534927368164062,0.4872482299804687
0.4534927368164062,0.4872482299804687
0.4524278640747070,0.4866834640502929
0.4525342941284179,0.4866834640502929
0.4554536819458008,0.4896995544433593
0.4554536819458008,0.4896995544433593
0.4541193008422851,0.4915786743164062
0.4541193008422851,0.4915786743164062
0.4557809829711914,0.4921531677246094
0.4554079055786133,0.4921531677246094
0.4574426651000976,0.4958124160766602
0.4574426651000976,0.4958124160766602
0.4562856674194335,0.4950468063354492
0.4562856674194335,0.4950468063354492
0.4589235305786132,0.4973505020141601
0.4589235305786132,0.4973505020141601
0.4574151992797851,0.4981361389160156
0.4574151992797851,0.4981361389160156
0.4584777832031250,0.4974912643432617
0.4584777832031250,0.4974912643432617
0.4593721389770508,0.5000158309936523
0.4593721389770508,0.5000158309936523
0.4577922821044922,0.4983083724975585
0.4577922821044922,0.4983083724975585
0.4602167129516601,0.4998596191406250
0.4602167129516601,0.4998596191406250
0.4583456039428710,0.5003477096557617
0.4583456039428710,0.5003477096557617
0.4593017578125000,0.4994047164916992
0.4593017578125000,0.4994047164916992
0.4600484848022461,0.5017021179199218
0.4600484848022461,0.5017021179199218
0.4587083816528320,0.4998985290527344
0.4587083816528320,0.4998985290527344
0.4610000610351562,0.5014028549194336
0.4606618881225586,0.5014028549194336
0.4590190887451172,0.5017015457153320
0.4590190887451172,0.5017015457153320
0.4598321914672852,0.5007310867309570
0.4598321914672852,0.5007310867309570
0.4608026504516601,0.5030324935913085
0.4608026504516601,0.5030324935913085
0.4592079162597656,0.5010549545288085
0.4592079162597656,0.5010549545288085
0.4614973068237305,0.5024717330932617
0.4614973068237305,0.5024717330932617
0.4592800140380859,0.5027738571166992
0.4604833602905273,0.5027738571166992
0.4603557586669922,0.5017358779907226
0.4603557586669922,0.5017358779907226
0.4612575531005859,0.5039743423461914
0.4612575531005859,0.5039743423461914
0.4596410751342773,0.5020637512207031
0.4596410751342773,0.5020637512207031
0.4617107391357422,0.5034816741943359
0.4617107391357422,0.5034816741943359
0.4599025726318359,0.5036996841430664
0.4599025726318359,0.5036996841430664
0.4607494354248047,0.5027704238891602
0.4607494354248047,0.5027704238891602
0.4615516662597656,0.5048824310302734
0.4620254516601562,0.5048824310302734
0.4600101470947265,0.5030673980712891
0.4600101470947265,0.5030673980712891
0.4623619079589844,0.5044458389282226
0.4623619079589844,0.5044458389282226
0.4603975296020508,0.5046094894409180
0.4603975296020508,0.5046094894409180
0.4612907409667968,0.5036991119384765
0.4612907409667968,0.5036991119384765
0.4620140075683594,0.5060073852539062
0.4620140075683594,0.5060073852539062
0.4606435775756836,0.5041740417480468
0.4606435775756836,0.5041740417480468
0.4629341125488281,0.5056549072265625
0.4629341125488281,0.5056549072265625
0.4610012054443359,0.5059907913208007
0.4610012054443359,0.5059907913208007
0.4617799758911132,0.5050420761108398
0.4609949111938476,0.5050420761108398
0.4627470016479492,0.5072633743286132
0.4627470016479492,0.5072633743286132
0.4612026214599609,0.5053768157958984
0.4612026214599609,0.5053768157958984
0.4634817123413086,0.5068330764770508
0.4634817123413086,0.5068330764770508
0.4613433837890625,0.5070522308349609
0.4624168395996093,0.5070522308349609
0.4622257232666016,0.5059816360473632
0.4622257232666016,0.5059816360473632
0.4630817413330078,0.5080015182495117
0.4630817413330078,0.5080015182495117
0.4614486694335938,0.5059982299804687
0.4614486694335938,0.5059982299804687
0.4634559631347656,0.5073972702026367
0.4631452560424805,0.5073972702026367
0.4615888595581055,0.5073669433593749
0.4615888595581055,0.5073669433593749
0.4622646331787109,0.5061229705810547
0.4622646331787109,0.5061229705810547
0.4628328323364257,0.5077125549316406
0.4628328323364257,0.5077125549316406
0.4609371185302734,0.5051038742065429
0.4603672027587891,0.5054941177368164
0.4628431320190429,0.5055450439453125
0.4623584747314453,0.5055450439453125
0.4603523254394531,0.5047199249267578
0.4603523254394531,0.5047199249267578
0.4607254028320312,0.5025003433227538
0.4596439361572265,0.5025003433227538
0.4610212326049805,0.5038656234741211
0.4610212326049805,0.5038656234741211
0.4593784332275390,0.5015012741088867
0.4591089248657226,0.5015012741088867
0.4616323471069336,0.5028522491455077
0.4613548278808594,0.5028522491455077
0.4597034454345703,0.5035257339477539
0.4597034454345703,0.5035257339477539
0.4607877731323242,0.5030685424804687
0.4607877731323242,0.5030685424804687
0.4620620727539062,0.5060663223266602
0.4620620727539062,0.5060663223266602
0.4608432769775390,0.5049671173095703
0.4608432769775390,0.5049671173095703
0.4634925842285156,0.5071918487548828
0.4634925842285156,0.5071918487548828
0.4617181777954101,0.5079322814941406
0.4617181777954101,0.5079322814941406
0.4628757476806640,0.5071815490722656
0.4628757476806640,0.5071815490722656
0.4639474868774414,0.5095653533935547
0.4639474868774414,0.5095653533935547
0.4623189926147461,0.5078659057617188
0.4621507644653320,0.5078659057617188
0.4646690368652344,0.5094566345214844
0.4646690368652344,0.5094566345214844
0.4628837585449219,0.5098669052124023
0.4628837585449219,0.5098669052124023
0.4636556625366210,0.5088718414306640
0.4628625869750976,0.5088718414306640
0.4645488739013672,0.5111921310424804
0.4645488739013672,0.5111921310424804
0.4629203796386718,0.5093507766723633
0.4629203796386718,0.5093507766723633
0.4653488159179687,0.5107618331909179
0.4653488159179687,0.5107618331909179
0.4633781433105468,0.5111005783081054
0.4633781433105468,0.5111005783081054
0.4642364501953125,0.5101066589355469
0.4642364501953125,0.5101066589355469
0.4651159286499023,0.5123708724975585
0.4651159286499023,0.5123708724975585
0.4636991500854492,0.5105461120605469
0.4636991500854492,0.5105461120605469
0.4659015655517578,0.5119834899902344
0.4659015655517578,0.5119834899902344
0.4639217376708984,0.5123113632202149
0.4639217376708984,0.5123113632202149
0.4647766113281250,0.5114290237426757
0.4647766113281250,0.5114290237426757
0.4658449172973633,0.5137046813964844
0.4658449172973633,0.5137046813964844
0.4641849517822265,0.5115949630737304
0.4641849517822265,0.5115949630737304
0.4664308547973632,0.5130678176879883
0.4660840988159179,0.5130678176879883
0.4643239974975586,0.5132703781127930
0.4643239974975586,0.5132703781127930
0.4654226303100586,0.5123451232910156
0.4654226303100586,0.5123451232910156
0.4662065505981445,0.5145715713500977
0.4662065505981445,0.5145715713500977
0.4646020889282226,0.5125802993774414
0.4642307281494140,0.5125802993774414
0.4667741775512695,0.5138608932495117
0.4663644790649414,0.5138608932495117
0.4648401260375976,0.5141092300415039
0.4648401260375976,0.5141092300415039
0.4657470703125000,0.5132228851318359
0.4657470703125000,0.5132228851318359
0.4665899276733398,0.5153211593627930
0.4665899276733398,0.5153211593627930
0.4649007797241211,0.5133716583251953
0.4649007797241211,0.5133716583251953
0.4672176361083984,0.5147792816162109
0.4672176361083984,0.5147792816162109
0.4653081893920898,0.5150161743164062
0.4653081893920898,0.5150161743164062
0.4661029815673828,0.5140703201293945
0.4661029815673828,0.5140703201293945
0.4668800354003906,0.5161205291748047
0.4672691345214843,0.5161205291748047
0.4652378082275390,0.5140577316284179
0.4649145126342773,0.5140577316284179
0.4673109054565430,0.5151226043701171
0.4670116424560546,0.5151226043701171
0.4652732849121093,0.5150190353393554
0.4652732849121093,0.5150190353393554
0.4657236099243164,0.5131536483764648
0.4646026611328125,0.5131536483764648
0.4659553527832031,0.5137744903564453
0.4659553527832031,0.5137744903564453
0.4633558273315430,0.5093090057373046
0.4633558273315430,0.5093090057373046
0.4641283035278320,0.5075620651245117
0.4641283035278320,0.5075620651245117
0.4608764648437500,0.5050100326538086
0.4608764648437500,0.5050100326538086
0.4606538772583008,0.5018423080444335
0.4606538772583008,0.5018423080444335
0.4608243942260742,0.5026851654052734
0.4608243942260742,0.5026851654052734
0.4589893341064453,0.5004358291625977
0.4589893341064453,0.5004358291625977
0.4612958908081055,0.5019430160522461
0.4612958908081055,0.5019430160522461
0.4596839904785156,0.5030508041381836
0.4609371185302734,0.5030508041381836
0.4609136581420898,0.5029535293579102
0.4609136581420898,0.5029535293579102
0.4621782302856445,0.5060806274414062
0.4628133773803711,0.5060806274414062
0.4610149383544921,0.5052463531494140
0.4610149383544921,0.5052463531494140
0.4637123107910156,0.5075637817382812
0.4637123107910156,0.5075637817382812
0.4621868133544922,0.5087047576904297
0.4633609771728515,0.5087047576904297
0.4633317947387695,0.5082824707031249
0.4627132415771484,0.5082824707031249
0.4643308639526367,0.5109214782714844
0.4643308639526367,0.5109214782714844
0.4629604339599609,0.5093799591064453
0.4629604339599609,0.5093799591064453
0.4653013229370117,0.5110004425048827
0.4650655746459961,0.5110004425048827
0.4634616851806641,0.5114736557006836
0.4645151138305664,0.5114736557006836
0.4643285751342773,0.5105295181274414
0.4635532379150391,0.5105295181274414
0.4651731491088867,0.5127016067504883
0.4651731491088867,0.5127016067504883
0.4636316299438477,0.5106805801391602
0.4634313583374023,0.5106805801391602
0.4659021377563476,0.5121076583862304
0.4659021377563476,0.5121076583862304
0.4637935638427734,0.5123479843139648
0.4637935638427734,0.5123479843139648
0.4647302627563477,0.5111503601074219
0.4639846801757812,0.5111503601074219
0.4654380798339843,0.5132314682006835
0.4657007217407226,0.5132314682006835
0.4637392044067383,0.5111709594726562
0.4637392044067383,0.5111709594726562
0.4657991409301758,0.5123382568359375
0.4654895782470703,0.5123382568359375
0.4639274597167968,0.5124441146850586
0.4639274597167968,0.5124441146850586
0.4646472930908203,0.5112144470214843
0.4638965606689453,0.5112144470214843
0.4655033111572265,0.5132331848144531
0.4655033111572265,0.5132331848144531
0.4637208938598633,0.5113254547119140
0.4637208938598633,0.5113254547119140
0.4660491943359375,0.5125825881958007
0.4660491943359375,0.5125825881958007
0.4641414642333984,0.5127828598022460
0.4641414642333984,0.5127828598022460
0.4648984909057617,0.5117099761962890
0.4640487670898437,0.5117099761962890
0.4656429290771484,0.5137012481689452
0.4656429290771484,0.5137012481689452
0.4640310287475586,0.5116556167602538
0.4640310287475586,0.5116556167602538
0.4663124084472656,0.5130889892578124
0.4659324645996094,0.5130889892578124
0.4643503189086914,0.5132543563842773
0.4653854370117188,0.5132543563842773
0.4651371002197265,0.5122341156005860
0.4651371002197265,0.5122341156005860
0.4659748077392578,0.5142230987548828
0.4659748077392578,0.5142230987548828
0.4644201278686523,0.5121831893920898
0.4640069961547851,0.5121831893920898
0.4665664672851562,0.5133573532104492
0.4665664672851562,0.5133573532104492
0.4645694732666015,0.5137899398803710
0.4656629562377930,0.5137899398803710
0.4654735565185547,0.5127130508422851
0.4648006439208984,0.5127130508422851
0.4661973953247070,0.5146471023559570
0.4665315628051758,0.5146471023559570
0.4647354125976562,0.5126701354980469
0.4647354125976562,0.5126701354980469
0.4667816162109375,0.5139804840087890
0.4665979385375976,0.5139804840087890
0.4650032043457031,0.5142980575561523
0.4660377502441406,0.5142980575561523
0.4659118652343750,0.5132497787475586
0.4651445388793945,0.5132497787475586
0.4666906356811523,0.5152673721313477
0.4666906356811523,0.5152673721313477
0.4650787353515625,0.5132926940917969
0.4646987915039062,0.5132926940917969
0.4672410964965820,0.5145887374877930
0.4672410964965820,0.5145887374877930
0.4653865814208984,0.5148387908935547
0.4653865814208984,0.5148387908935547
0.4661785125732422,0.5136812210083007
0.4653980255126953,0.5136812210083007
0.4668554306030273,0.5155248641967773
0.4668554306030273,0.5155248641967773
0.4652589797973632,0.5133882522583008
0.4652589797973632,0.5133882522583008
0.4673074722290039,0.5145704269409179
0.4669544219970703,0.5145704269409179
0.4653511047363281,0.5146442413330078
0.4661458969116211,0.5146442413330078
0.4659433364868164,0.5131856918334960
0.4652252197265625,0.5131856918334960
0.4666934967041015,0.5149200439453124
0.4669464111328125,0.5149200439453124
0.4649339675903320,0.5126895904541016
0.4649339675903320,0.5126895904541016
0.4669246673583984,0.5133705139160156
0.4666597366333007,0.5133705139160156
0.4648012161254882,0.5132074356079102
0.4648012161254882,0.5132074356079102
0.4654380798339843,0.5116355895996093
0.4646821975708008,0.5116355895996093
0.4659988403320312,0.5133144378662109
0.4661527633666992,0.5133144378662109
0.4644035339355468,0.5112327575683594
0.4644035339355468,0.5112327575683594
0.4664926528930664,0.5125013351440429
0.4664926528930664,0.5125013351440429
0.4648355484008789,0.5129882812500000
0.4648355484008789,0.5129882812500000
0.4656703948974609,0.5122049331665038
0.4651468276977539,0.5122049331665038
0.4667512893676757,0.5146917343139649
0.4671272277832031,0.5146917343139649
0.4653310775756836,0.5133464813232421
0.4651348114013671,0.5133464813232421
0.4677366256713867,0.5149818420410156
0.4676410675048828,0.5149818420410156
0.4661945343017578,0.5156919479370117
0.4671627044677734,0.5156919479370117
0.4669847488403320,0.5148748397827149
0.4664131164550781,0.5148748397827149
0.4679145812988281,0.5171321868896485
0.4682516098022461,0.5171321868896485
0.4665103912353515,0.5154207229614257
0.4665103912353515,0.5154207229614257
0.4687517166137695,0.5169204711914063
0.4685171127319336,0.5169204711914063
0.4669424057006836,0.5172878265380859
0.4669424057006836,0.5172878265380859
0.4677572250366211,0.5164026260375977
0.4669744491577148,0.5164026260375977
0.4687419891357422,0.5184923171997070
0.4690595626831054,0.5184923171997070
0.4671014785766601,0.5167110443115234
0.4671014785766601,0.5167110443115234
0.4693410873413086,0.5180397033691406
0.4691345214843750,0.5180397033691406
0.4673601150512695,0.5183275222778320
0.4683895111083984,0.5183275222778320
0.4683712005615234,0.5174926757812500
0.4676822662353515,0.5174926757812500
0.4691831588745117,0.5195240020751953
0.4694784164428711,0.5195240020751953
0.4676330566406250,0.5177541732788086
0.4673194885253906,0.5177541732788086
0.4696535110473632,0.5190067291259766
0.4696535110473632,0.5190067291259766
0.4678819656372070,0.5193969726562500
0.4689445495605469,0.5193969726562500
0.4687740325927734,0.5183555603027343
0.4678859710693359,0.5183555603027343
0.4696174621582031,0.5204612731933593
0.4679191589355469,0.5185787200927734
0.4676799774169922,0.5185787200927734
0.4701799392700195,0.5198844909667969
0.4699716567993164,0.5198844909667969
0.4683563232421875,0.5203079223632813
0.4692701339721679,0.5203079223632813
0.4691127777099609,0.5192419052124023
0.4684003829956054,0.5192419052124023
0.4698795318603515,0.5213727951049805
0.4702989578247070,0.5213727951049805
0.4685251235961914,0.5194742202758789
0.4682973861694336,0.5194742202758789
0.4706108093261718,0.5208669662475586
0.4704019546508789,0.5208669662475586
0.4687379837036132,0.5210746765136719
0.4697891235351562,0.5210746765136719
0.4695522308349609,0.5201190948486328
0.4687196731567382,0.5201190948486328
0.4704734802246093,0.5223335266113281
0.4707103729248047,0.5223335266113281
0.4695985794067383,0.5212749481201172
0.4695985794067383,0.5212749481201172
0.4695985794067383,0.5224044799804687
0.4690074920654297,0.5204172134399414
0.4690074920654297,0.5204172134399414
0.4711675643920898,0.5227689743041992
0.4711675643920898,0.5227689743041992
0.4689010620117187,0.5211936950683593
0.4689010620117187,0.5211936950683593
0.4706525802612305,0.5212011337280273
0.4706525802612305,0.5212011337280273
0.4698801040649414,0.5229194641113281
0.4698801040649414,0.5229194641113281
0.4690933227539062,0.5207651138305663
0.4690933227539062,0.5207651138305663
0.4712305068969727,0.5227523803710937
0.4712305068969727,0.5227523803710937
0.4685491561889648,0.5207508087158202
0.4685491561889648,0.5207508087158202
0.4701038360595703,0.5199171066284179
0.4701038360595703,0.5199171066284179
0.4684444427490234,0.5200515747070312
0.4684444427490234,0.5200515747070312
0.4667770385742187,0.5153663635253906
0.4667770385742187,0.5153663635253906
0.4674797058105469,0.5143861770629883
0.4674797058105469,0.5143861770629883
0.4639297485351562,0.5102039337158203
0.4639297485351562,0.5102039337158203
0.4647903442382812,0.5079122543334961
0.4647903442382812,0.5079122543334961
0.4632854461669922,0.5083665847778320
0.4632854461669922,0.5083665847778320
0.4624265670776367,0.5059501647949218
0.4624265670776367,0.5059501647949218
0.4646306991577148,0.5083774566650391
0.4646306991577148,0.5083774566650391
0.4627000808715820,0.5077194213867188
0.4627000808715820,0.5077194213867188
0.4650953292846680,0.5090211868286133
0.4650953292846680,0.5090211868286133
0.4648464202880859,0.5120721817016601
0.4648464202880859,0.5120721817016601
0.4648395538330078,0.5114862442016601
0.4648395538330078,0.5114862442016601
0.4675443649291992,0.5148599624633788
0.4675443649291992,0.5148599624633788
0.4657127380371093,0.5142454147338867
0.4657127380371093,0.5142454147338867
0.4678047180175781,0.5148759841918945
0.4678047180175781,0.5148759841918945
0.4671369552612304,0.5170732498168945
0.4671369552612304,0.5170732498168945
0.4666992187500000,0.5153732299804688
0.4666992187500000,0.5153732299804688
0.4690658569335937,0.5179956436157226
0.4690658569335937,0.5179956436157226
0.4668760299682617,0.5167871475219726
0.4668760299682617,0.5167871475219726
0.4687717437744141,0.5170761108398437
0.4687717437744141,0.5170761108398437
0.4681039810180664,0.5189014434814453
0.4681039810180664,0.5189014434814453
0.4676382064819335,0.5172569274902343
0.4676382064819335,0.5172569274902343
0.4697467803955078,0.5195926666259766
0.4697467803955078,0.5195926666259766
0.4675277709960937,0.5182308197021485
0.4675277709960937,0.5182308197021485
0.4694755554199219,0.5183744430541992
0.4694755554199219,0.5183744430541992
0.4687191009521484,0.5202415466308593
0.4687191009521484,0.5202415466308593
0.4681228637695312,0.5183675765991210
0.4681228637695312,0.5183675765991210
0.4703075408935546,0.5206764221191406
0.4703075408935546,0.5206764221191406
0.4680587768554687,0.5191068649291992
0.4686790466308594,0.5191068649291992
0.4699567794799804,0.5191989898681640
0.4699567794799804,0.5191989898681640
0.4690332412719727,0.5208881378173827
0.4690332412719727,0.5208881378173827
0.4683769226074219,0.5188694000244141
0.4683769226074219,0.5188694000244141
0.4705896377563477,0.5211055755615234
0.4705896377563477,0.5211055755615234
0.4682447433471679,0.5196510314941406
0.4682447433471679,0.5196510314941406
0.4700391769409180,0.5195886611938476
0.4700391769409180,0.5195886611938476
0.4691625595092773,0.5211788177490234
0.4691625595092773,0.5211788177490234
0.4685474395751953,0.5192138671875000
0.4685474395751953,0.5192138671875000
0.4706720352172851,0.5213430404663085
0.4706720352172851,0.5213430404663085
0.4683294296264648,0.5199188232421875
0.4683294296264648,0.5199188232421875
0.4701416015625000,0.5199085235595703
0.4701416015625000,0.5199085235595703
0.4692106246948242,0.5214923858642578
0.4692106246948242,0.5214923858642578
0.4686481475830078,0.5196184158325196
0.4686481475830078,0.5196184158325196
0.4707441329956055,0.5217447280883789
0.4707441329956055,0.5217447280883789
0.4685125350952148,0.5202735900878906
0.4685125350952148,0.5202735900878906
0.4703269958496094,0.5202404022216797
0.4703269958496094,0.5202404022216797
0.4694063186645507,0.5217418670654297
0.4694063186645507,0.5217418670654297
0.4687007904052734,0.5198226928710937
0.4687007904052734,0.5198226928710937
0.4707223892211914,0.5221395492553711
0.4707223892211914,0.5221395492553711
0.4686687469482422,0.5206632614135742
0.4686687469482422,0.5206632614135742
0.4705713272094726,0.5206094741821289
0.4705713272094726,0.5206094741821289
0.4694795608520508,0.5220211029052734
0.4694795608520508,0.5220211029052734
0.4687614440917969,0.5200212478637695
0.4687614440917969,0.5200212478637695
0.4708316802978516,0.5221647262573242
0.4708316802978516,0.5221647262573242
0.4687088012695312,0.5206323623657226
0.4687088012695312,0.5206323623657226
0.4703012466430664,0.5203422546386719
0.4703012466430664,0.5203422546386719
0.4692586898803711,0.5217538833618164
0.4692586898803711,0.5217538833618164
0.4685205459594726,0.5196418762207031
0.4685205459594726,0.5196418762207031
0.4706314086914062,0.5215736389160156
0.4706314086914062,0.5215736389160156
0.4682870864868164,0.5201580047607421
0.4682870864868164,0.5201580047607421
0.4700986862182617,0.5201459884643554
0.4700986862182617,0.5201459884643554
0.4691465377807617,0.5216337203979492
0.4691465377807617,0.5216337203979492
0.4686161041259765,0.5197792053222656
0.4686161041259765,0.5197792053222656
0.4706285476684570,0.5219793319702148
0.4706285476684570,0.5219793319702148
0.4685274124145508,0.5207067489624023
0.4685274124145508,0.5207067489624023
0.4703481674194336,0.5207817077636718
0.4703481674194336,0.5207817077636718
0.4695968627929688,0.5226264953613281
0.4695968627929688,0.5226264953613281
0.4689245223999023,0.5208148956298828
0.4689245223999023,0.5208148956298828
0.4711893081665039,0.5231037139892578
0.4711893081665039,0.5231037139892578
0.4690526962280273,0.5216657638549804
0.4690526962280273,0.5216657638549804
0.4708683013916015,0.5218282699584961
0.4708683013916015,0.5218282699584961
0.4699796676635742,0.5234510421752929
0.4699796676635742,0.5234510421752929
0.4694686889648437,0.5216285705566406
0.4694686889648437,0.5216285705566406
0.4716659545898437,0.5238830566406250
0.4716659545898437,0.5238830566406250
0.4695041656494141,0.5225040435791015
0.4695041656494141,0.5225040435791015
0.4712448120117188,0.5226728439331054
0.4712448120117188,0.5226728439331054
0.4704917907714843,0.5243368148803711
0.4704917907714843,0.5243368148803711
0.4698966979980468,0.5223936080932617
0.4698966979980468,0.5223936080932617
0.4720899581909179,0.5247093200683594
0.4720899581909179,0.5247093200683594
0.4696706771850586,0.5231792449951171
0.4696706771850586,0.5231792449951171
0.4715635299682617,0.5233114242553710
0.4715635299682617,0.5233114242553710
0.4706113815307617,0.5248111724853516
0.4706113815307617,0.5248111724853516
0.4701484680175781,0.5230430603027344
0.4693817138671875,0.5230430603027344
0.4722095489501953,0.5252677917480468
0.4722095489501953,0.5252677917480468
0.4699607849121094,0.5237279891967773
0.4699607849121094,0.5237279891967773
0.4718856811523438,0.5238121032714843
0.4718856811523438,0.5238121032714843
0.4709913253784179,0.5254474639892578
0.4709913253784179,0.5254474639892578
0.4703847885131835,0.5236249923706054
0.4703847885131835,0.5236249923706054
0.4725391387939453,0.5257982254028321
0.4725391387939453,0.5257982254028321
0.4700889587402344,0.5242795944213867
0.4700889587402344,0.5242795944213867
0.4722141265869140,0.5244083404541016
0.4722141265869140,0.5244083404541016
0.4711818695068359,0.5260322570800781
0.4711818695068359,0.5260322570800781
0.4705936431884765,0.5242023468017578
0.4705936431884765,0.5242023468017578
0.4727886199951172,0.5264911651611328
0.4727886199951172,0.5264911651611328
0.4706308364868164,0.5248718261718750
0.4706308364868164,0.5248718261718750
0.4723508834838867,0.5249044418334960
0.4723508834838867,0.5249044418334960
0.4714725494384766,0.5266244888305663
0.4714725494384766,0.5266244888305663
0.4708328247070312,0.5247087478637695
0.4708328247070312,0.5247087478637695
0.4731582641601562,0.5270765304565429
0.4731582641601562,0.5270765304565429
0.4708036422729492,0.5253421783447265
0.4708036422729492,0.5253421783447265
0.4727233886718750,0.5256116867065429
0.4727233886718750,0.5256116867065429
0.4718570709228516,0.5272470474243164
0.4718570709228516,0.5272470474243164
0.4713598251342773,0.5254646301269531
0.4713598251342773,0.5254646301269531
0.4734609603881836,0.5277168273925781
0.4734609603881836,0.5277168273925781
0.4711715698242187,0.5260808944702148
0.4711715698242187,0.5260808944702148
0.4730781555175781,0.5261838912963867
0.4730781555175781,0.5261838912963867
0.4721128463745117,0.5277088165283202
0.4721128463745117,0.5277088165283202
0.4714347839355468,0.5257181167602539
0.4714347839355468,0.5257181167602539
0.4734724044799805,0.5278089523315429
0.4734724044799805,0.5278089523315429
0.4709157943725586,0.5258365631103515
0.4709157943725586,0.5258365631103515
0.4726839065551758,0.5253204345703125
0.4726839065551758,0.5253204345703125
0.4712636947631836,0.5259578704833984
0.4712636947631836,0.5259578704833984
0.4699762344360351,0.5223861694335937
0.4699762344360351,0.5223861694335937
0.4710193634033203,0.5220720291137695
0.4710193634033203,0.5220720291137695
0.4675489425659179,0.5176746368408203
0.4675489425659179,0.5176746368408203
0.4680553436279297,0.5152313232421875
0.4680553436279297,0.5152313232421875
0.4662797927856445,0.5148942947387695
0.4662797927856445,0.5148942947387695
0.4651554107666016,0.5116189956665039
0.4651554107666016,0.5116189956665039
0.4671289443969726,0.5135004043579101
0.4671289443969726,0.5135004043579101
0.4647726058959961,0.5118633270263672
0.4647726058959961,0.5118633270263672
0.4666980743408203,0.5124681472778320
0.4666980743408203,0.5124681472778320
0.4661825180053711,0.5149211883544922
0.4661825180053711,0.5149211883544922
0.4662179946899414,0.5142196655273438
0.4662179946899414,0.5142196655273438
0.4688426971435546,0.5177879333496094
0.4688426971435546,0.5177879333496094
0.4671815872192382,0.5174503326416016
0.4671815872192382,0.5174503326416016
0.4696117401123047,0.5186336517333984
0.4696117401123047,0.5186336517333984
0.4691133499145508,0.5209304809570312
0.4691133499145508,0.5209304809570312
0.4687191009521484,0.5195846557617188
0.4687191009521484,0.5195846557617188
0.4710033416748047,0.5221366882324219
0.4710033416748047,0.5221366882324219
0.4687992095947265,0.5209058761596680
0.4687992095947265,0.5209058761596680
0.4707481384277343,0.5211662292480469
0.4707481384277343,0.5211662292480469
0.4698978424072265,0.5230459213256836
0.4698978424072265,0.5230459213256836
0.4694400787353515,0.5212400436401367
0.4688261032104492,0.5212400436401367
0.4717151641845703,0.5236598968505859
0.4717151641845703,0.5236598968505859
0.4694183349609375,0.5222259521484375
0.4694183349609375,0.5222259521484375
0.4713088989257812,0.5224399566650391
0.4713088989257812,0.5224399566650391
0.4704299926757812,0.5241668701171874
0.4704299926757812,0.5241668701171874
0.4698595046997070,0.5223833084106445
0.4698595046997070,0.5223833084106445
0.4721345901489258,0.5246263504028320
0.4721345901489258,0.5246263504028320
0.4698366165161132,0.5231992721557617
0.4698366165161132,0.5231992721557617
0.4717226028442383,0.5232702255249023
0.4717226028442383,0.5232702255249023
0.4722885131835937,0.5243282318115234
0.4721351623535156,0.5243282318115234
0.4703361511230468,0.5246171951293945
0.4713672637939453,0.5246171951293945
0.4712774276733398,0.5235700607299805
0.4705289840698242,0.5235700607299805
0.4720087051391602,0.5256225585937500
0.4723108291625976,0.5256225585937500
0.4705003738403320,0.5236370086669921
0.4702022552490234,0.5236370086669921
0.4726930618286133,0.5249914169311524
0.4723869323730469,0.5249914169311524
0.4706417083740234,0.5251224517822265
0.4715738296508789,0.5251224517822265
0.4714302062988281,0.5240621566772461
0.4706680297851562,0.5240621566772461
0.4722106933593750,0.5259973526000976
0.4726610183715820,0.5259973526000976
0.4706623077392578,0.5238504409790039
0.4702136993408203,0.5238504409790039
0.4727165222167968,0.5251888275146485
0.4724372863769531,0.5251888275146485
0.4705879211425781,0.5253152847290039
0.4715715408325195,0.5253152847290039
0.4715423583984375,0.5241222381591797
0.4708608627319336,0.5241222381591797
0.4722908020019531,0.5260293960571288
0.4726272583007812,0.5260293960571288
0.4706880569458007,0.5240804672241210
0.4702863693237305,0.5240804672241210
0.4726009368896484,0.5252489089965821
0.4723176956176758,0.5252489089965821
0.4706611633300781,0.5252494812011719
0.4717203140258789,0.5252494812011719
0.4716144561767578,0.5241645812988281
0.4707498550415039,0.5241645812988281
0.4722061157226562,0.5262004852294921
0.4725305557250976,0.5262004852294921
0.4705839157104492,0.5238607406616210
0.4701782226562500,0.5238607406616210
0.4727239608764648,0.5250680923461913
0.4723606109619141,0.5250680923461913
0.4705295562744141,0.5250246047973632
0.4713060379028320,0.5250246047973632
0.4712202072143554,0.5235860824584960
0.4704477310180664,0.5235860824584960
0.4716361999511718,0.5251968383789062
0.4719205856323242,0.5251968383789062
0.4700546264648438,0.5226905822753906
0.4694887161254883,0.5226905822753906
0.4717363357543945,0.5232376098632813
0.4711629867553710,0.5232376098632813
0.4692506790161133,0.5224119186401367
0.4699493408203125,0.5224119186401367
0.4696094512939453,0.5202901840209960
0.4687065124511718,0.5202901840209960
0.4700540542602539,0.5214769363403320
0.4703361511230468,0.5214769363403320
0.4684638977050781,0.5192436218261719
0.4680364608764648,0.5192436218261719
0.4705764770507812,0.5206048965454101
0.4702938079833984,0.5206048965454101
0.4686138153076171,0.5210460662841797
0.4696191787719726,0.5210460662841797
0.4697238922119140,0.5204555511474609
0.4692878723144531,0.5204555511474609
0.4708162307739258,0.5229703903198242
0.4713071823120117,0.5229703903198242
0.4695001602172851,0.5215501785278320
0.4691482543945312,0.5215501785278320
0.4715984344482422,0.5231300354003906
0.4714073181152343,0.5231300354003906
0.4698686599731445,0.5236089706420898
0.4708631515502930,0.5236089706420898
0.4708923339843750,0.5227254867553711
0.4702823638916016,0.5227254867553711
0.4717420578002929,0.5249364852905273
0.4721151351928711,0.5249364852905273
0.4701993942260742,0.5232210159301758
0.4699110031127929,0.5232210159301758
0.4723646163940429,0.5245107650756836
0.4723257064819336,0.5245107650756836
0.4705507278442382,0.5248094558715820
0.4714628219604492,0.5248094558715820
0.4715045928955078,0.5239259719848632
0.4708551406860351,0.5239259719848632
0.4721620559692383,0.5259561538696289
0.4724893569946289,0.5259561538696289
0.4707944869995117,0.5240781784057617
0.4704969406127930,0.5240781784057617
0.4728401184082031,0.5255023956298828
0.4726501464843750,0.5255023956298828
0.4710691452026367,0.5257164001464844
0.4719635009765625,0.5257164001464844
0.4717826843261719,0.5248277664184570
0.4711023330688476,0.5248277664184570
0.4726449966430664,0.5267978668212890
0.4730541229248046,0.5267978668212890
0.4711950302124023,0.5248998641967774
0.4707309722900390,0.5248998641967774
0.4731044769287109,0.5262823104858398
0.4730901718139648,0.5262823104858398
0.4712842941284179,0.5265489578247070
0.4721202850341797,0.5265489578247070
0.4722032546997070,0.5254932403564453
0.4716264724731445,0.5254932403564453
0.4730426788330078,0.5275331497192383
0.4733551025390625,0.5275331497192383
0.4714382171630859,0.5255338668823242
0.4710565567016601,0.5255338668823242
0.4734764099121094,0.5269351959228515
0.4732091903686523,0.5269351959228515
0.4715978622436523,0.5271457672119141
0.4725254058837891,0.5271457672119141
0.4725814819335937,0.5260482788085937
0.4718507766723632,0.5260482788085937
0.4732858657836914,0.5280550003051757
0.4736160278320312,0.5280550003051757
0.4716613769531250,0.5261323928833007
0.4712493896484375,0.5261323928833007
0.4738403320312500,0.5272813796997070
0.4735954284667969,0.5272813796997070
0.4718730926513672,0.5276418685913086
0.4728366851806640,0.5276418685913086
0.4727994918823242,0.5266027450561523
0.4720727920532226,0.5266027450561523
0.4733413696289062,0.5286672592163085
0.4737625122070312,0.5286672592163085
0.4718673706054687,0.5266571044921875
0.4715801239013672,0.5266571044921875
0.4741390228271484,0.5280601501464843
0.4738288879394531,0.5280601501464843
0.4720939636230468,0.5282003402709960
0.4731410980224609,0.5282003402709960
0.4730970382690429,0.5272201538085938
0.4722564697265625,0.5272201538085938
0.4737516403198242,0.5293733596801757
0.4742586135864257,0.5293733596801757
0.4722255706787109,0.5273786544799804
0.4718072891235351,0.5273786544799804
0.4744617462158203,0.5287782669067382
0.4741327285766601,0.5287782669067382
0.4723846435546875,0.5289733886718749
0.4733339309692383,0.5289733886718749
0.4733316421508789,0.5278793334960937
0.4726667404174805,0.5278793334960937
0.4740749359130859,0.5298786163330078
0.4744211196899414,0.5298786163330078
0.4724052429199219,0.5276487350463867
0.4718833923339844,0.5276487350463867
0.4742288589477539,0.5287376403808594
0.4739004135131836,0.5287376403808594
0.4721958160400390,0.5285585403442382
0.4731021881103515,0.5285585403442382
0.4729036331176757,0.5268722534179687
0.4719263076782226,0.5268722534179687
0.4730283737182617,0.5277442932128906
0.4730037689208984,0.5277442932128906
0.4703493118286133,0.5235031127929687
0.4693410873413086,0.5235031127929687
0.4714244842529297,0.5217201232910156
0.4702119827270508,0.5217201232910156
0.4677789688110351,0.5182399749755859
0.4678676605224609,0.5182399749755859
0.4671380996704101,0.5133665084838867
0.4655525207519531,0.5133665084838867
0.4662025451660156,0.5120080947875977
0.4658369064331054,0.5120080947875977
0.4632917404174804,0.5068948745727538
0.4622972488403320,0.5068948745727538
0.4643394470214843,0.5056005477905273
0.4635269165039062,0.5056005477905273
0.4613908767700195,0.5037071228027343
0.4619813919067383,0.5037071228027343
0.4616060256958008,0.5015367507934571
0.4605812072753906,0.5015367507934571
0.4620918273925781,0.5028545379638671
0.4623275756835937,0.5028545379638671
0.4603620529174804,0.5007064819335937
0.4598894119262695,0.5007064819335937
0.4626823425292969,0.5026359558105469
0.4625341415405273,0.5026359558105469
0.4608192443847656,0.5038415908813476
0.4622039794921875,0.5038415908813476
0.4626565933227539,0.5043685913085937
0.4623825073242187,0.5043685913085937
0.4641975402832031,0.5081291198730469
0.4649797439575195,0.5081291198730469
0.4634267807006835,0.5081199645996094
0.4634988784790039,0.5081199645996094
0.4664400100708008,0.5114072799682617
0.4666088104248047,0.5114072799682617
0.4653104782104492,0.5131902694702148
0.4665475845336914,0.5131902694702148
0.4668491363525391,0.5131668090820313
0.4662282943725586,0.5131668090820313
0.4679277420043945,0.5158842086791992
0.4684295654296875,0.5158842086791992
0.4665990829467773,0.5144748687744141
0.4662511825561523,0.5144748687744141
0.4689119338989258,0.5162521362304687
0.4688409805297851,0.5162521362304687
0.4671649932861328,0.5168569564819335
0.4681909561157226,0.5168569564819335
0.4683540344238281,0.5161422729492188
0.4676078796386718,0.5161422729492188
0.4689891815185547,0.5185358047485351
0.4694383621215820,0.5185358047485351
0.4677658081054688,0.5167259216308594
0.4673858642578125,0.5167259216308594
0.4699539184570312,0.5184190750122070
0.4697301864624023,0.5184190750122070
0.4679901123046875,0.5187183380126953
0.4689903259277344,0.5187183380126953
0.4688964843750000,0.5179235458374023
0.4682075500488281,0.5179235458374023
0.4698005676269531,0.5201705932617188
0.4702205657958984,0.5201705932617188
0.4683385848999023,0.5182897567749023
0.4680210113525390,0.5182897567749023
0.4705249786376953,0.5198690414428710
0.4703481674194336,0.5198690414428710
0.4685422897338867,0.5201837539672851
0.4694629669189453,0.5201837539672851
0.4696100234985351,0.5192550659179688
0.4689451217651367,0.5192550659179688
0.4703739166259766,0.5214483261108398
0.4707561492919922,0.5214483261108398
0.4689050674438476,0.5195383071899414
0.4685297012329102,0.5195383071899414
0.4709238052368164,0.5210317611694336
0.4706428527832031,0.5210317611694336
0.4690481185913086,0.5212532043457031
