REDsignal,IRsignal
0.8676710128784180,0.9420862197875977
0.8676710128784180,0.9420862197875977
0.8680051803588867,0.9425559997558594
0.8680051803588867,0.9425559997558594
0.8707906723022460,0.9466867446899414
0.8707906723022460,0.9466867446899414
0.8721078872680664,0.9511104583740234
0.8721078872680664,0.9503763198852538
0.8718875885009766,0.9517507553100586
0.8745763778686523,0.9517507553100586
0.8746948242187500,0.9562070846557617
0.8737077713012695,0.9562070846557617
0.8759416580200196,0.9596666336059569
0.8772165298461914,0.9596666336059569
0.8765830993652344,0.9614736557006835
0.8765636444091797,0.9614736557006835
0.8791969299316406,0.9670400619506836
0.8791614532470703,0.9670400619506836
0.8795471191406250,0.9687578201293945
0.8818868637084961,0.9687578201293945
0.8832847595214843,0.9734619140624999
0.8817958831787109,0.9734619140624999
0.8828578948974609,0.9766330718994141
0.8849515914916992,0.9766330718994141
0.8836406707763672,0.9779451370239257
0.8824808120727539,0.9779451370239257
0.8850934982299804,0.9770336151123047
0.8834775924682617,0.9770336151123047
0.8819446563720703,0.9677387237548828
0.8799860000610351,0.9677387237548828
0.8758632659912109,0.9532121658325194
0.8700828552246094,0.9532121658325194
0.8667692184448242,0.9365610122680663
0.8642309188842773,0.9365610122680663
0.8603050231933593,0.9220481872558594
0.8565988540649414,0.9220481872558594
0.8575933456420898,0.9148881912231445
0.8542980194091797,0.9148881912231445
0.8524852752685547,0.9071119308471679
0.8530054092407227,0.9071119308471679
0.8514135360717773,0.9047487258911132
0.8491189956665038,0.9047487258911132
0.8492065429687500,0.9025205612182616
0.8500762939453125,0.9025205612182616
0.8495338439941406,0.8996818542480468
0.8472553253173828,0.8996818542480468
0.8486143112182617,0.8991519927978515
0.8475471496582031,0.8991519927978515
0.8470092773437500,0.8970748901367187
0.8485462188720703,0.8970748901367187
0.8479900360107422,0.8977518081665039
0.8465789794921875,0.8977518081665039
0.8479986190795898,0.8981740951538085
0.8486309051513672,0.8981740951538085
0.8473852157592773,0.8967344284057617
0.8466253280639648,0.8967344284057617
0.8485284805297851,0.8989339828491211
0.8479734420776367,0.8989339828491211
0.8477972030639648,0.8981946945190430
0.8493965148925781,0.8981946945190430
0.8502027511596679,0.9000320434570312
0.8480878829956054,0.9000320434570312
0.8489982604980468,0.9012176513671875
0.8506473541259766,0.9012176513671875
0.8500236511230469,0.9023128509521484
0.8494646072387695,0.9023128509521484
0.8517156600952148,0.9055990219116210
0.8513746261596680,0.9055990219116210
0.8524869918823242,0.9061946868896484
0.8536714553833008,0.9061946868896484
0.8537017822265625,0.9093601226806640
0.8530059814453125,0.9093601226806640
0.8541332244873047,0.9136156082153319
0.8563922882080078,0.9136156082153319
0.8561456680297851,0.9165424346923827
0.8561685562133788,0.9165424346923827
0.8602357864379883,0.9227262496948242
0.8597196578979492,0.9227262496948242
0.8598884582519531,0.9250968933105468
0.8626836776733399,0.9250968933105468
0.8637084960937500,0.9319730758666992
0.8634584426879882,0.9319730758666992
0.8650148391723632,0.9380447387695312
0.8678386688232421,0.9380447387695312
0.8688537597656250,0.9421537399291992
0.8679903030395507,0.9421537399291992
0.8712455749511718,0.9485286712646483
0.8715740203857422,0.9485286712646483
0.8716449737548828,0.9515172958374023
0.8742078781127930,0.9515172958374023
0.8749620437622070,0.9568244934082031
0.8742771148681641,0.9568244934082031
0.8766323089599609,0.9610651016235351
0.8778734207153320,0.9610651016235351
0.8773075103759765,0.9625682830810547
0.8769561767578125,0.9625682830810547
0.8800031661987304,0.9683773040771484
0.8799945831298828,0.9683773040771484
0.8798538208007812,0.9700664520263671
0.8821512222290039,0.9700664520263671
0.8839445114135742,0.9747522354125976
0.8822015762329102,0.9747522354125976
0.8832698822021484,0.9783880233764648
0.8855855941772460,0.9783880233764648
0.8849618911743163,0.9808748245239257
0.8846105575561524,0.9808748245239257
0.8876352310180664,0.9862335205078124
0.8876581192016602,0.9862335205078124
0.8882732391357422,0.9872577667236327
0.8894176483154297,0.9872577667236327
0.8898777008056641,0.9903190612792968
0.8889146804809570,0.9903190612792968
0.8898817062377929,0.9940647125244140
0.8918638229370117,0.9940647125244140
0.8910078048706055,0.9945613861083984
0.8903039932250977,0.9945613861083984
0.8941732406616211,0.9984855651855469
0.8928400039672851,0.9984855651855469
0.8918077468872070,0.9971958160400390
0.8936067581176758,0.9971958160400390
0.8940490722656250,1.0001890182495117
0.8927404403686523,1.0001890182495117
0.8935844421386718,1.0022197723388671
0.8953279495239258,1.0022197723388671
0.8953496932983398,1.0019004821777344
0.8934671401977539,1.0019004821777344
0.8960386276245117,1.0044925689697266
0.8955762863159179,1.0044925689697266
0.8947122573852538,1.0041641235351562
0.8962028503417968,1.0041641235351562
0.8967029571533203,1.0060747146606446
0.8952301025390624,1.0060747146606446
0.8971601486206054,1.0077747344970702
0.8976133346557617,1.0077747344970702
0.8962142944335937,1.0062274932861328
0.8952323913574218,1.0062274932861328
0.8978708267211913,1.0095582962036131
0.8973232269287109,1.0095582962036131
0.8963739395141601,1.0085151672363282
0.8979829788208008,1.0085151672363282
0.8995508193969727,1.0101825714111328
0.8970228195190429,1.0101825714111328
0.8975687026977539,1.0109985351562500
0.8991067886352538,1.0109985351562500
0.8979131698608398,1.0104091644287110
0.8967109680175781,1.0104091644287110
0.8992492675781250,1.0126636505126954
0.8986198425292968,1.0126636505126954
0.8987926483154297,1.0110202789306639
0.8989751815795898,1.0110202789306639
0.8987394332885742,1.0107004165649414
0.8970840454101562,1.0107004165649414
0.8970067977905273,1.0105894088745118
0.8977329254150390,1.0105894088745118
0.8951511383056641,1.0034711837768555
0.8914192199707031,1.0034711837768555
0.8909219741821289,0.9871524810791015
0.8837001800537109,0.9871524810791015
0.8775959014892578,0.9610651016235351
0.8740573883056640,0.9610651016235351
0.8698019027709961,0.9431179046630859
0.8643991470336914,0.9431179046630859
0.8619638442993164,0.9304744720458984
0.8607856750488281,0.9304744720458984
0.8588321685791015,0.9206943511962891
0.8551414489746093,0.9206943511962891
0.8564077377319336,0.9172353744506836
0.8549709320068359,0.9172353744506836
0.8531164169311524,0.9131349563598632
0.8542448043823242,0.9131349563598632
0.8539249420166015,0.9124855041503905
0.8520195007324218,0.9124855041503905
0.8538465499877930,0.9126634597778320
0.8540966033935546,0.9126634597778320
0.8526998519897461,0.9102916717529297
0.8516950607299805,0.9102916717529297
0.8541435241699219,0.9133764266967773
0.8537361145019531,0.9133764266967773
0.8528291702270507,0.9125329971313476
0.8546871185302735,0.9125329971313476
0.8561948776245117,0.9147136688232421
0.8539707183837890,0.9147136688232421
0.8547340393066406,0.9166494369506836
0.8565044403076172,0.9166494369506836
0.8557422637939452,0.9175786972045898
0.8553297042846679,0.9175786972045898
0.8582468032836914,0.9222347259521484
0.8582101821899414,0.9222347259521484
0.8591960906982422,0.9238208770751952
0.8605396270751953,0.9238208770751952
0.8612691879272460,0.9282245635986328
0.8610008239746093,0.9282245635986328
0.8626974105834960,0.9349382400512695
0.8654130935668946,0.9349382400512695
0.8654851913452148,0.9396022796630858
0.8659938812255860,0.9396022796630858
0.8708896636962891,0.9483638763427734
0.8709280014038085,0.9483638763427734
0.8714269638061524,0.9534090042114257
0.8746994018554687,0.9534090042114257
0.8762168884277344,0.9618993759155273
0.8763204574584961,0.9618993759155273
0.8783311843872070,0.9695497512817383
0.8810840606689453,0.9695497512817383
0.8823675155639649,0.9739322662353516
0.8812831878662110,0.9739322662353516
0.8845607757568359,0.9798374176025391
0.8848485946655273,0.9798374176025391
0.8846265792846679,0.9823442459106445
0.8869188308715820,0.9823442459106445
0.8875556945800781,0.9860412597656250
0.8865657806396484,0.9860412597656250
0.8889638900756835,0.9895843505859374
0.8897632598876953,0.9895843505859374
0.8887544631958008,0.9894109725952148
0.8880500793457031,0.9894109725952148
0.8907794952392578,0.9936183929443358
0.8904161453247070,0.9936183929443358
0.8898141860961913,0.9935663223266601
0.8917711257934570,0.9935663223266601
0.8932170867919922,0.9958923339843749
0.8907983779907226,0.9958923339843749
0.8915948867797852,0.9974241256713867
0.8932989120483398,0.9974241256713867
0.8922626495361328,0.9976902008056641
0.8914735794067382,0.9976902008056641
0.8939861297607422,1.0008813858032226
0.8934328079223632,1.0008813858032226
0.8939855575561523,1.0001987457275390
0.8948450088500977,1.0001987457275390
0.8947906494140625,1.0013534545898437
0.8934843063354492,1.0013534545898437
0.8943140029907226,1.0040359497070312
0.8960586547851562,1.0040359497070312
0.8950103759765625,1.0037172317504883
0.8941646575927734,1.0037172317504883
0.8979761123657226,1.0064815521240233
0.8962337493896484,1.0064815521240233
0.8954784393310546,1.0050024032592773
0.8971921920776367,1.0050024032592773
0.8971555709838867,1.0074291229248047
0.8959024429321288,1.0074291229248047
0.8966606140136718,1.0091869354248046
0.8982633590698242,1.0091869354248046
0.8983434677124024,1.0083080291748046
0.8964523315429688,1.0083080291748046
0.8986478805541992,1.0102958679199219
0.8980951309204102,1.0102958679199219
0.8972665786743164,1.0099016189575194
0.8990627288818359,1.0099016189575194
0.8990810394287109,1.0112623214721679
0.8975194931030274,1.0112623214721679
0.8997093200683594,1.0129434585571289
0.9001344680786132,1.0129434585571289
0.8987749099731445,1.0114620208740235
0.8979160308837890,1.0114620208740235
0.9004571914672851,1.0145433425903321
0.8998306274414062,1.0145433425903321
0.8989660263061523,1.0135208129882811
0.9007913589477539,1.0135208129882811
0.9019666671752929,1.0149919509887695
0.8994300842285156,1.0149919509887695
0.9000812530517578,1.0159034729003906
0.9016399383544922,1.0159034729003906
0.9004062652587890,1.0154405593872069
0.8994581222534179,1.0154405593872069
0.9018316268920898,1.0178821563720704
0.9012102127075194,1.0178821563720704
0.9017280578613280,1.0168888092041015
0.9022665023803711,1.0168888092041015
0.9020725250244140,1.0171943664550780
0.9004297256469727,1.0171943664550780
0.9010866165161132,1.0186168670654296
0.9023002624511718,1.0186168670654296
0.9006397247314453,1.0158376693725586
0.8990873336791992,1.0158376693725586
0.9017257690429688,1.0140981674194336
0.8984333038330078,1.0140981674194336
0.8941652297973632,0.9985296249389648
0.8914283752441406,0.9985296249389648
0.8864582061767577,0.9781597137451171
0.8800512313842773,0.9781597137451171
0.8764583587646484,0.9593502044677734
0.8737043380737305,0.9593502044677734
0.8701566696166992,0.9422985076904297
0.8650697708129883,0.9422985076904297
0.8651659011840820,0.9339220046997070
0.8624467849731445,0.9339220046997070
0.8602312088012695,0.9270486831665039
0.8607587814331055,0.9270486831665039
0.8600143432617188,0.9240497589111327
0.8576625823974610,0.9240497589111327
0.8591165542602539,0.9231903076171875
0.8591783523559570,0.9231903076171875
0.8573942184448242,0.9196706771850586
0.8563064575195313,0.9196706771850586
0.8585271835327148,0.9217449188232422
0.8577495574951172,0.9217449188232422
0.8567670822143555,0.9206056594848633
0.8586610794067383,0.9206056594848633
0.8598054885864258,0.9218404769897460
0.8573690414428711,0.9218404769897460
0.8583017349243164,0.9234981536865234
0.8599908828735351,0.9234981536865234
0.8583944320678710,0.9262475967407227
0.8583944320678710,0.9262475967407227
0.8609687805175781,0.9280431747436523
0.8613962173461914,0.9280431747436523
0.8628467559814453,0.9326087951660156
0.8628467559814453,0.9326087951660156
0.8632667541503906,0.9344427108764648
0.8632667541503906,0.9344427108764648
0.8670461654663085,0.9411712646484375
0.8670461654663085,0.9411712646484375
0.8677219390869141,0.9470455169677734
0.8677219390869141,0.9470455169677734
0.8722206115722656,0.9535314559936523
0.8722206115722656,0.9535314559936523
0.8756149291992187,0.9620527267456054
0.8756149291992187,0.9620527267456054
0.8777572631835937,0.9675275802612304
0.8777572631835937,0.9675275802612304
0.8826696395874023,0.9756523132324219
0.8826696395874023,0.9756523132324219
0.8830965042114257,0.9810550689697265
0.8830965042114257,0.9810550689697265
0.8865051269531250,0.9849941253662109
0.8865051269531250,0.9849941253662109
0.8883499145507813,0.9902893066406250
0.8883499145507813,0.9902893066406250
0.8887378692626953,0.9908506393432617
0.8887378692626953,0.9908506393432617
0.8914890289306641,0.9947330474853515
0.8914890289306641,0.9947330474853515
0.8901220321655273,0.9963420867919921
0.8901220321655273,0.9963420867919921
0.8922723770141602,0.9979173660278320
0.8922723770141602,0.9979173660278320
0.8934482574462891,1.0007972717285156
0.8950944900512695,1.0007972717285156
0.8931152343750000,1.0001506805419922
0.8931152343750000,1.0001506805419922
0.8950601577758789,1.0029321670532225
0.8950601577758789,1.0029321670532225
0.8935878753662109,1.0042665481567383
0.8935878753662109,1.0042665481567383
0.8955459594726562,1.0048868179321289
0.8955459594726562,1.0048868179321289
0.8965845108032227,1.0073787689208984
0.8965845108032227,1.0073787689208984
0.8957628250122071,1.0061342239379882
0.8957628250122071,1.0061342239379882
0.8979103088378906,1.0091365814208983
0.8979103088378906,1.0091365814208983
0.8963315963745117,1.0100395202636718
0.8963315963745117,1.0100395202636718
0.8982942581176757,1.0105104446411133
0.8982942581176757,1.0105104446411133
0.8988510131835937,1.0126613616943358
0.8988510131835937,1.0126613616943358
0.8979686737060547,1.0115129470825195
0.8979686737060547,1.0115129470825195
0.9002054214477538,1.0137800216674804
0.9002054214477538,1.0137800216674804
0.8984802246093749,1.0144512176513671
0.8984802246093749,1.0144512176513671
0.9000658035278319,1.0145427703857421
0.9000658035278319,1.0145427703857421
0.9007627487182617,1.0169214248657226
0.9007627487182617,1.0169214248657226
0.9000211715698242,1.0153112411499023
0.9000211715698242,1.0153112411499023
0.9022258758544921,1.0177007675170897
0.9022258758544921,1.0177007675170897
0.9001167297363281,1.0181110382080079
0.9001167297363281,1.0181110382080079
0.9016908645629882,1.0184022903442382
0.9016908645629882,1.0184022903442382
0.9025268554687500,1.0203117370605468
0.9025268554687500,1.0203117370605468
0.9015260696411133,1.0188817977905273
0.9015260696411133,1.0188817977905273
0.9034950256347656,1.0207323074340819
0.9034950256347656,1.0207323074340819
0.9013956069946288,1.0216026306152344
0.9013956069946288,1.0216026306152344
0.9032072067260741,1.0213720321655273
0.9032072067260741,1.0213720321655273
0.9041015625000000,1.0234394073486328
0.9041015625000000,1.0234394073486328
0.9028472900390625,1.0218177795410155
0.9028472900390625,1.0218177795410155
0.9045347213745116,1.0238239288330078
0.9045347213745116,1.0238239288330078
0.9027219772338867,1.0239446640014649
0.9027219772338867,1.0239446640014649
0.9040506362915038,1.0231189727783203
0.9040506362915038,1.0231189727783203
0.9039613723754882,1.0229742050170898
0.9039613723754882,1.0229742050170898
0.9009939193725586,1.0173831939697264
0.9009939193725586,1.0173831939697264
0.8982822418212890,1.0052341461181640
0.8982822418212890,1.0052341461181640
0.8875625610351562,0.9847915649414062
0.8875625610351562,0.9847915649414062
0.8801479339599609,0.9652215957641601
0.8801479339599609,0.9652215957641601
0.8732488632202148,0.9519275665283202
0.8732488632202148,0.9519275665283202
0.8671234130859374,0.9403598785400390
0.8671234130859374,0.9403598785400390
0.8660413742065429,0.9362136840820312
0.8635391235351563,0.9362136840820312
0.8619770050048828,0.9326339721679687
0.8619770050048828,0.9326339721679687
0.8621824264526367,0.9305906295776367
0.8621824264526367,0.9305906295776367
0.8624851226806640,0.9311376571655273
0.8624851226806640,0.9311376571655273
0.8613327026367187,0.9290874481201171
0.8620130538940429,0.9290874481201171
0.8630876541137695,0.9312704086303710
0.8630876541137695,0.9312704086303710
0.8612760543823242,0.9324789047241211
0.8612760543823242,0.9324789047241211
0.8636112213134766,0.9333892822265625
0.8636112213134766,0.9333892822265625
0.8651052474975586,0.9370256423950195
0.8651052474975586,0.9370256423950195
0.8648900985717773,0.9375818252563476
0.8648900985717773,0.9375818252563476
0.8682254791259766,0.9431533813476562
0.8682254791259766,0.9431533813476562
0.8681035995483398,0.9477602005004883
0.8681035995483398,0.9477602005004883
0.8721862792968750,0.9530977249145507
0.8721862792968750,0.9530977249145507
0.8754770278930664,0.9614444732666015
0.8771656036376952,0.9614444732666015
0.8772382736206055,0.9669479370117187
0.8772382736206055,0.9669479370117187
0.8825923919677734,0.9759092330932617
0.8825923919677734,0.9759092330932617
0.8836549758911133,0.9828191757202148
0.8836549758911133,0.9828191757202148
0.8876037597656250,0.9876983642578124
0.8876037597656250,0.9876983642578124
0.8902376174926757,0.9940183639526367
0.8902376174926757,0.9940183639526367
0.8906930923461914,0.9953172683715820
0.8906930923461914,0.9953172683715820
0.8938482284545898,0.9996231079101562
0.8938482284545898,0.9996231079101562
0.8925624847412109,1.0019107818603514
0.8925624847412109,1.0019107818603514
0.8946344375610351,1.0031805038452148
0.8946344375610351,1.0031805038452148
0.8959653854370117,1.0060976028442383
0.8959653854370117,1.0060976028442383
0.8953330993652343,1.0052255630493163
0.8953330993652343,1.0052255630493163
0.8975154876708984,1.0077564239501953
0.8975154876708984,1.0077564239501953
0.8957468032836914,1.0091514587402344
0.8957468032836914,1.0091514587402344
0.8977254867553711,1.0094810485839842
0.8977254867553711,1.0094810485839842
0.8988063812255859,1.0120697021484375
0.8988063812255859,1.0120697021484375
0.8977729797363281,1.0109596252441406
0.8977729797363281,1.0109596252441406
0.8999319076538086,1.0136884689331054
0.8999319076538086,1.0136884689331054
0.8983669281005859,1.0145954132080077
0.8983669281005859,1.0145954132080077
0.9002300262451172,1.0149284362792967
0.9002300262451172,1.0149284362792967
0.9010803222656250,1.0170598983764647
0.9010803222656250,1.0170598983764647
0.9000755310058594,1.0162250518798828
0.9000755310058594,1.0162250518798828
0.9022047042846679,1.0183004379272460
0.9022047042846679,1.0183004379272460
0.9007106781005859,1.0190437316894532
0.9007106781005859,1.0190437316894532
0.9019775390625000,1.0190946578979492
0.9019775390625000,1.0190946578979492
0.9026704788208008,1.0214366912841797
0.9026704788208008,1.0214366912841797
0.9018922805786133,1.0199335098266602
0.9018922805786133,1.0199335098266602
0.9039894104003906,1.0218029022216797
0.9039894104003906,1.0218029022216797
0.9019706726074218,1.0223081588745118
0.9019706726074218,1.0223081588745118
0.9033926010131835,1.0225456237792969
0.9033926010131835,1.0225456237792969
0.9043716430664062,1.0245346069335937
0.9043716430664062,1.0245346069335937
0.9035139083862305,1.0230171203613281
0.9035139083862305,1.0230171203613281
0.9051595687866211,1.0249465942382812
0.9051595687866211,1.0249465942382812
0.9033571243286133,1.0257888793945311
0.9033571243286133,1.0257888793945311
0.9049724578857421,1.0255084991455077
0.9049724578857421,1.0255084991455077
0.9058736801147460,1.0275489807128906
0.9058736801147460,1.0275489807128906
0.9046480178833007,1.0257608413696289
0.9046480178833007,1.0257608413696289
0.9064132690429687,1.0279678344726562
0.9064132690429687,1.0279678344726562
0.9047447204589844,1.0283643722534179
0.9047447204589844,1.0283643722534179
0.9062713623046874,1.0281606674194335
0.9062713623046874,1.0281606674194335
0.9068195343017578,1.0298812866210938
0.9068195343017578,1.0298812866210938
0.9053878784179688,1.0282590866088868
0.9053878784179688,1.0282590866088868
0.9074140548706054,1.0295557022094726
0.9074140548706054,1.0295557022094726
0.9051961898803711,1.0291099548339844
0.9051961898803711,1.0291099548339844
0.9055326461791992,1.0263542175292968
0.9055326461791992,1.0263542175292968
0.9039527893066406,1.0226526260375977
0.9039527893066406,1.0226526260375977
0.8966972351074218,1.0040914535522460
0.8966972351074218,1.0040914535522460
0.8901597976684570,0.9855709075927734
0.8842929840087891,0.9855709075927734
0.8797634124755859,0.9685581207275390
0.8797634124755859,0.9685581207275390
0.8744945526123047,0.9550168991088867
0.8744945526123047,0.9550168991088867
0.8710779190063477,0.9481693267822265
0.8710779190063477,0.9481693267822265
0.8672887802124023,0.9415981292724609
0.8672887802124023,0.9415981292724609
0.8674146652221679,0.9399175643920898
0.8674146652221679,0.9399175643920898
0.8645353317260742,0.9388298034667968
0.8665809631347656,0.9388298034667968
0.8657083511352539,0.9378307342529296
0.8657083511352539,0.9378307342529296
0.8667051315307617,0.9399971008300780
0.8667051315307617,0.9399971008300780
0.8655670166015624,0.9390352249145507
0.8655670166015624,0.9390352249145507
0.8679199218750000,0.9422492980957031
0.8679199218750000,0.9422492980957031
0.8668865203857422,0.9444334030151367
0.8668865203857422,0.9444334030151367
0.8695152282714843,0.9466993331909179
0.8695152282714843,0.9466993331909179
0.8716535568237305,0.9517696380615234
0.8716535568237305,0.9517696380615234
0.8722045898437499,0.9548944473266601
0.8722045898437499,0.9548944473266601
0.8766288757324219,0.9623130798339843
0.8766288757324219,0.9623130798339843
0.8778528213500977,0.9695011138916015
0.8778528213500977,0.9695011138916015
0.8823177337646484,0.9766822814941406
0.8823177337646484,0.9766822814941406
0.8862562179565430,0.9860086441040039
0.8862562179565430,0.9860086441040039
0.8880197525024414,0.9904947280883789
0.8880197525024414,0.9904947280883789
0.8923616409301758,0.9971551895141602
0.8923616409301758,0.9971551895141602
0.8920578002929688,1.0011159896850585
0.8920578002929688,1.0011159896850585
0.8946138381958008,1.0036411285400391
0.8946138381958008,1.0036411285400391
0.8965032577514648,1.0073987960815429
0.8965032577514648,1.0073987960815429
0.8961536407470703,1.0071693420410155
0.8961536407470703,1.0071693420410155
0.8982639312744141,1.0101676940917967
0.8982639312744141,1.0101676940917967
0.8966983795166016,1.0114906311035157
0.8966983795166016,1.0114906311035157
0.8985929489135742,1.0119850158691406
0.8985929489135742,1.0119850158691406
0.8997510910034180,1.0144861221313477
0.8997510910034180,1.0144861221313477
0.8987886428833007,1.0131711959838867
0.8987886428833007,1.0131711959838867
0.9007432937622070,1.0159515380859374
0.9007432937622070,1.0159515380859374
0.8994541168212891,1.0169494628906250
0.8994541168212891,1.0169494628906250
0.9012067794799804,1.0172183990478516
0.9012067794799804,1.0172183990478516
0.9018333435058593,1.0196548461914061
0.9018333435058593,1.0196548461914061
0.9008840560913085,1.0185499191284180
0.9008840560913085,1.0185499191284180
0.9031145095825195,1.0208238601684569
0.9031145095825195,1.0208238601684569
0.9028924942016601,1.0218784332275390
0.9028924942016601,1.0218784332275390
0.9019392013549804,1.0222515106201171
0.9043888092041015,1.0222515106201171
0.9041284561157226,1.0230577468872071
0.9026773452758788,1.0230577468872071
0.9049221038818359,1.0251583099365233
0.9051372528076171,1.0251583099365233
0.9038303375244140,1.0234399795532225
0.9034658432006836,1.0234399795532225
0.9053815841674804,1.0261739730834960
0.9045816421508789,1.0261739730834960
0.9036455154418945,1.0258346557617186
0.9060167312622069,1.0258346557617186
0.9069002151489257,1.0267438888549805
0.9042772293090819,1.0267438888549805
0.9052757263183593,1.0278282165527344
0.9063331604003906,1.0278282165527344
0.9054016113281249,1.0273029327392578
0.9048116683959960,1.0273029327392578
0.9068950653076171,1.0294658660888671
0.9060676574707031,1.0294658660888671
0.9063285827636718,1.0289617538452147
0.9075485229492187,1.0289617538452147
0.9069768905639648,1.0290315628051758
0.9054857254028320,1.0290315628051758
0.9065391540527343,1.0311670303344727
0.9075645446777343,1.0311670303344727
0.9066158294677734,1.0301101684570313
0.9061014175415039,1.0301101684570313
0.9094762802124023,1.0322256088256836
0.9073511123657226,1.0322256088256836
0.9062330245971679,1.0308609008789062
0.9086116790771483,1.0308609008789062
0.9081195831298827,1.0321781158447265
0.9065677642822265,1.0321781158447265
0.9077430725097656,1.0337625503540038
0.9088428497314452,1.0337625503540038
0.9090208053588866,1.0327308654785157
0.9074941635131836,1.0327308654785157
0.9091861724853515,1.0337980270385743
0.9082729339599609,1.0337980270385743
0.9071165084838867,1.0337259292602539
0.9095249176025391,1.0337259292602539
0.9089698791503906,1.0339628219604491
0.9073127746582030,1.0339628219604491
0.9094991683959961,1.0345979690551756
0.9088354110717773,1.0345979690551756
0.9072973251342773,1.0304574966430664
0.9057163238525390,1.0304574966430664
0.9065402984619140,1.0272954940795898
0.9033342361450195,1.0272954940795898
0.8986719131469726,1.0104778289794922
0.8965415954589844,1.0104778289794922
0.8930768966674805,0.9909090042114257
0.8862533569335938,0.9909090042114257
0.8834072113037109,0.9742950439453124
0.8808094024658203,0.9742950439453124
0.8769149780273438,0.9600294113159179
0.8738239288330077,0.9600294113159179
0.8737449645996094,0.9533958435058594
0.8712135314941406,0.9533958435058594
0.8702871322631835,0.9474975585937500
0.8704553604125976,0.9474975585937500
0.8692485809326171,0.9441307067871093
0.8672018051147461,0.9441307067871093
0.8679708480834961,0.9443613052368164
0.8686826705932617,0.9443613052368164
0.8673923492431640,0.9423517227172851
0.8668561935424804,0.9423517227172851
0.8699798583984375,0.9443126678466797
0.8682100296020507,0.9443126678466797
0.8672464370727538,0.9436025619506836
0.8698041915893554,0.9436025619506836
0.8694883346557617,0.9459285736083984
0.8683336257934570,0.9459285736083984
0.8697813034057617,0.9493709564208984
0.8714269638061524,0.9493709564208984
0.8721525192260742,0.9503694534301758
0.8711517333984374,0.9503694534301758
0.8737174987792968,0.9548309326171874
0.8736974716186523,0.9548309326171874
0.8736791610717773,0.9592197418212890
0.8769842147827148,0.9592197418212890
0.8776983261108399,0.9652141571044921
0.8776216506958008,0.9652141571044921
0.8813976287841797,0.9736152648925781
0.8829917907714844,0.9736152648925781
0.8835073471069336,0.9791387557983398
0.8847238540649414,0.9791387557983398
0.8881044387817383,0.9890338897705078
0.8888471603393554,0.9890338897705078
0.8891824722290039,0.9948572158813476
0.8927936553955078,0.9948572158813476
0.8946619033813477,1.0005100250244141
0.8929304122924805,1.0005100250244141
0.8948387145996094,1.0051666259765624
0.8965730667114258,1.0051666259765624
0.8959596633911132,1.0071207046508788
0.8961381912231445,1.0071207046508788
0.8983577728271485,1.0108428955078124
0.8977100372314453,1.0108428955078124
0.8983629226684570,1.0117252349853516
0.8998947143554688,1.0117252349853516
0.8994626998901367,1.0125961303710938
0.8982158660888672,1.0125961303710938
0.8993408203125000,1.0156774520874023
0.9007255554199218,1.0156774520874023
0.8997596740722656,1.0152488708496092
0.8995737075805664,1.0152488708496092
0.9027986526489258,1.0178449630737305
0.9007181167602538,1.0178449630737305
0.8998146057128906,1.0172779083251953
0.9023345947265624,1.0172779083251953
0.9019369125366210,1.0189956665039062
0.9007192611694336,1.0189956665039062
0.9018636703491211,1.0211008071899415
0.9029554367065429,1.0211008071899415
0.9034578323364257,1.0205526351928711
0.9020055770874023,1.0205526351928711
0.9038280487060546,1.0221679687500000
0.9028982162475585,1.0221679687500000
0.9021612167358398,1.0227247238159178
0.9044597625732421,1.0227247238159178
0.9040208816528320,1.0237998962402344
0.9027448654174804,1.0237998962402344
0.9053352355957031,1.0258861541748046
0.9050336837768554,1.0258861541748046
0.9040397644042968,1.0243480682373047
0.9037553787231445,1.0243480682373047
0.9057374954223633,1.0272634506225586
0.9048734664916992,1.0272634506225586
0.9039133071899413,1.0269681930541992
0.9063320159912109,1.0269681930541992
0.9070747375488281,1.0277257919311522
0.9046880722045898,1.0277257919311522
0.9057809829711914,1.0290287017822266
0.9066106796264648,1.0290287017822266
0.9057643890380859,1.0285686492919921
0.9055440902709960,1.0285686492919921
0.9072549819946288,1.0307138442993165
0.9064338684082031,1.0307138442993165
0.9067050933837890,1.0304409027099608
0.9079593658447265,1.0304409027099608
0.9073545455932617,1.0304534912109375
0.9080675125122070,1.0324436187744139
0.9071920394897460,1.0315149307250977
0.9068498611450195,1.0315149307250977
0.9099552154541015,1.0336452484130858
0.9078935623168944,1.0336452484130858
0.9067794799804687,1.0324871063232421
0.9091220855712890,1.0324871063232421
0.9086494445800781,1.0335777282714844
0.9072263717651367,1.0335777282714844
0.9083770751953124,1.0355020523071288
0.9092845916748047,1.0355020523071288
0.9096839904785156,1.0342592239379882
0.9080852508544921,1.0342592239379882
0.9097646713256835,1.0355215072631836
0.9088239669799805,1.0355215072631836
0.9078838348388671,1.0355197906494140
0.9103317260742188,1.0355197906494140
0.9096336364746094,1.0359958648681640
0.9081624984741210,1.0359958648681640
0.9104764938354492,1.0374183654785156
0.9102275848388671,1.0374183654785156
0.9089292526245116,1.0348709106445313
0.9083164215087890,1.0348709106445313
0.9097206115722656,1.0357875823974609
0.9081344604492188,1.0357875823974609
0.9062650680541992,1.0313100814819336
0.9072601318359375,1.0313100814819336
0.9052608489990234,1.0201738357543946
0.8985900878906250,1.0201738357543946
0.8953588485717773,1.0012350082397461
0.8918048858642578,1.0012350082397461
0.8867786407470702,0.9809223175048828
0.8822422027587891,0.9809223175048828
0.8806257247924805,0.9669330596923827
0.8765613555908203,0.9669330596923827
0.8744384765625000,0.9555850982666015
0.8737255096435547,0.9555850982666015
0.8713994979858398,0.9487129211425781
0.8689064025878906,0.9487129211425781
0.8690500259399414,0.9465665817260742
0.8691358566284180,0.9465665817260742
0.8675050735473633,0.9426120758056640
0.8667984008789062,0.9426120758056640
0.8693653106689453,0.9427803039550781
0.8669837951660156,0.9427803039550781
0.8659029006958008,0.9409578323364257
0.8681745529174805,0.9409578323364257
0.8675628662109375,0.9418287277221680
0.8661420822143554,0.9418287277221680
0.8674724578857421,0.9439538955688476
0.8684949874877930,0.9439538955688476
0.8689516067504882,0.9435556411743163
0.8679445266723632,0.9435556411743163
0.8697755813598632,0.9460287094116211
0.8690637588500977,0.9460287094116211
0.8685647964477539,0.9476863861083984
0.8714641571044922,0.9476863861083984
0.8714790344238281,0.9505262374877930
0.8705692291259766,0.9505262374877930
0.8736883163452148,0.9551982879638672
0.8742851257324219,0.9551982879638672
0.8739509582519531,0.9575494766235351
0.8747531890869140,0.9575494766235351
0.8776771545410156,0.9649927139282226
0.8780645370483399,0.9649927139282226
0.8783666610717773,0.9708332061767577
0.8823480606079102,0.9708332061767577
0.8843032836914062,0.9783279418945312
0.8836544036865234,0.9783279418945312
0.8861984252929688,0.9862981796264648
0.8884941101074219,0.9862981796264648
0.8888374328613281,0.9919309616088867
0.8898885726928710,0.9919309616088867
0.8925836563110351,0.9990823745727538
0.8927742004394531,0.9990823745727538
0.8939197540283202,1.0026340484619141
0.8959419250488281,1.0026340484619141
0.8958286285400391,1.0055843353271483
0.8952289581298828,1.0055843353271483
0.8969341278076172,1.0101053237915039
0.8981603622436524,1.0101053237915039
0.8976110458374024,1.0106328964233398
0.8976287841796875,1.0106328964233398
0.9009063720703124,1.0140409469604492
0.8991439819335937,1.0140409469604492
0.8982622146606445,1.0139705657958984
0.9008852005004883,1.0139705657958984
0.9004022598266601,1.0160161972045898
0.8991846084594727,1.0160161972045898
0.9006797790527343,1.0185934066772460
0.9016656875610352,1.0185934066772460
0.9020891189575195,1.0180503845214843
0.9008245468139648,1.0180503845214843
0.9026241302490234,1.0198734283447266
0.9018178939819336,1.0198734283447266
0.9010723114013671,1.0205995559692382
0.9035493850708007,1.0205995559692382
0.9031150817871093,1.0218132019042969
0.9018693923950195,1.0218132019042969
0.9043933868408203,1.0240356445312500
0.9044420242309570,1.0240356445312500
0.9032690048217773,1.0227779388427733
0.9032129287719726,1.0227779388427733
0.9049844741821289,1.0256538391113281
0.9040014266967773,1.0256538391113281
0.9032827377319336,1.0257207870483398
0.9057861328125000,1.0257207870483398
0.9064727783203125,1.0265996932983399
0.9039253234863280,1.0265996932983399
0.9052711486816406,1.0280473709106446
0.9061632156372070,1.0280473709106446
0.9051910400390625,1.0276857376098631
0.9050102233886719,1.0276857376098631
0.9068916320800781,1.0298069000244141
0.9058324813842773,1.0298069000244141
0.9062747955322266,1.0296998977661131
0.9077156066894531,1.0296998977661131
0.9068155288696289,1.0297662734985351
0.9055778503417968,1.0297662734985351
0.9069385528564453,1.0321981430053710
0.9077293395996093,1.0321981430053710
0.9067920684814452,1.0312294006347655
0.9065540313720702,1.0312294006347655
0.9095901489257812,1.0331428527832032
0.9073665618896484,1.0331428527832032
0.9065340042114257,1.0321941375732422
0.9090133666992187,1.0321941375732422
0.9082952499389648,1.0334146499633790
0.9069299697875977,1.0334146499633790
0.9082969665527343,1.0351558685302733
0.9090917587280273,1.0351558685302733
0.9095026016235351,1.0341161727905273
0.9081991195678710,1.0341161727905273
0.9096937179565430,1.0353590011596678
0.9086357116699219,1.0353590011596678
0.9077756881713867,1.0355100631713867
0.9100502014160156,1.0355100631713867
0.9095798492431640,1.0360851287841797
0.9080846786499023,1.0360851287841797
0.9106338500976562,1.0377920150756836
0.9101457595825195,1.0377920150756836
0.9091335296630859,1.0355667114257812
0.9088090896606444,1.0355667114257812
0.9101537704467773,1.0372535705566406
0.9087959289550781,1.0372535705566406
0.9075817108154296,1.0349441528320311
0.9093183517456054,1.0349441528320311
0.9089681625366210,1.0312934875488280
0.9050165176391601,1.0312934875488280
0.9029943466186523,1.0188623428344725
0.8995862960815429,1.0188623428344725
0.8887063980102539,0.9881692886352539
0.8862138748168945,0.9881692886352539
0.8775278091430664,0.9693546295166016
0.8779918670654296,0.9693546295166016
0.8759050369262695,0.9579843521118163
0.8759050369262695,0.9579843521118163
0.8700954437255859,0.9478626251220703
0.8700954437255859,0.9478626251220703
0.8690254211425781,0.9446199417114257
0.8667663574218750,0.9446199417114257
0.8661083221435547,0.9416032791137695
0.8661083221435547,0.9416032791137695
0.8659755706787109,0.9386604309082031
0.8659755706787109,0.9386604309082031
0.8659761428833007,0.9392492294311523
0.8659761428833007,0.9392492294311523
0.8640747070312500,0.9367549896240234
0.8640747070312500,0.9367549896240234
0.8660511016845703,0.9381958007812500
0.8660511016845703,0.9381958007812500
0.8646600723266601,0.9390031814575195
0.8646600723266601,0.9390031814575195
0.8655990600585938,0.9386907577514648
0.8655990600585938,0.9386907577514648
0.8669277191162109,0.9419042587280273
0.8669277191162109,0.9419042587280273
0.8661752700805664,0.9411804199218750
0.8661752700805664,0.9411804199218750
0.8692050933837890,0.9447956085205078
0.8692050933837890,0.9447956085205078
0.8684206008911133,0.9477264404296875
0.8684206008911133,0.9477264404296875
0.8703197479248047,0.9502412796020507
0.8703197479248047,0.9502412796020507
0.8734714508056640,0.9563203811645508
0.8734714508056640,0.9563203811645508
0.8742055892944336,0.9595590591430664
0.8742055892944336,0.9595590591430664
0.8785314559936523,0.9671974182128906
0.8785314559936523,0.9671974182128906
0.8796735763549804,0.9746726989746093
0.8796735763549804,0.9746726989746093
0.8836395263671875,0.9804222106933593
0.8836395263671875,0.9804222106933593
0.8878721237182617,0.9886968612670898
0.8878721237182617,0.9886968612670898
0.8884935379028320,0.9922159194946288
0.8884935379028320,0.9922159194946288
0.8922065734863281,0.9983676910400390
0.8922065734863281,0.9983676910400390
0.8925292968749999,1.0023645401000976
0.8925292968749999,1.0023645401000976
0.8946298599243164,1.0043283462524413
0.8946298599243164,1.0043283462524413
0.8967493057250976,1.0083074569702148
0.8966794967651367,1.0083074569702148
0.8957656860351563,1.0086633682250976
0.8957656860351563,1.0086633682250976
0.8986633300781249,1.0118265151977539
0.8986633300781249,1.0118265151977539
0.8980344772338867,1.0139225006103516
0.8980344772338867,1.0139225006103516
0.8990879058837891,1.0143201828002930
0.8990879058837891,1.0143201828002930
0.9003742218017577,1.0175497055053710
0.9003742218017577,1.0175497055053710
0.8996057510375977,1.0164905548095702
0.8996057510375977,1.0164905548095702
0.9020050048828124,1.0190322875976563
0.9020050048828124,1.0190322875976563
0.9007558822631836,1.0201675415039062
0.9007558822631836,1.0201675415039062
0.9015953063964843,1.0206052780151367
0.9015953063964843,1.0206052780151367
0.9033153533935546,1.0229942321777343
0.9033153533935546,1.0229942321777343
0.9022968292236327,1.0220163345336915
0.9022968292236327,1.0220163345336915
0.9042778015136719,1.0242027282714843
0.9042778015136719,1.0242027282714843
0.9027585983276367,1.0257413864135743
0.9027585983276367,1.0257413864135743
0.9040060043334961,1.0252670288085937
0.9040060043334961,1.0252670288085937
0.9054994583129883,1.0277898788452149
0.9054994583129883,1.0277898788452149
0.9039825439453124,1.0261533737182618
0.9039825439453124,1.0261533737182618
0.9058902740478515,1.0287025451660157
0.9058902740478515,1.0287025451660157
0.9047910690307617,1.0295248031616211
0.9047910690307617,1.0295248031616211
0.9059732437133788,1.0290893554687499
0.9059732437133788,1.0290893554687499
0.9070083618164062,1.0312705993652342
0.9070083618164062,1.0312705993652342
0.9052534103393555,1.0299991607666015
0.9052534103393555,1.0299991607666015
0.9075136184692383,1.0318210601806641
0.9075136184692383,1.0318210601806641
0.9064367294311523,1.0328166961669922
0.9064367294311523,1.0328166961669922
0.9070798873901367,1.0318851470947266
0.9070798873901367,1.0318851470947266
0.9081481933593749,1.0344457626342773
0.9081481933593749,1.0344457626342773
0.9069505691528320,1.0327571868896483
0.9069505691528320,1.0327571868896483
0.9091140747070312,1.0345504760742188
0.9091140747070312,1.0345504760742188
0.9075336456298828,1.0354368209838867
0.9075336456298828,1.0354368209838867
0.9080200195312500,1.0347078323364258
0.9080200195312500,1.0347078323364258
0.9093315124511718,1.0361492156982421
0.9093315124511718,1.0361492156982421
0.9073848724365234,1.0333717346191407
0.9073848724365234,1.0333717346191407
0.9079072952270507,1.0318965911865234
0.9079072952270507,1.0318965911865234
0.9033966064453125,1.0241025924682616
0.9033966064453125,1.0241025924682616
0.8964385986328125,1.0033075332641601
0.8964385986328125,1.0033075332641601
0.8885301589965821,0.9836517333984375
0.8885301589965821,0.9836517333984375
0.8780279159545898,0.9635684967041015
0.8780279159545898,0.9635684967041015
0.8733564376831054,0.9530118942260741
0.8733564376831054,0.9530118942260741
0.8683719635009766,0.9461774826049805
0.8683719635009766,0.9461774826049805
0.8666810989379883,0.9405172348022460
0.8666810989379883,0.9405172348022460
0.8659749984741211,0.9391096115112304
0.8659749984741211,0.9391096115112304
0.8633348464965820,0.9354469299316406
0.8633348464965820,0.9354469299316406
0.8646903991699219,0.9356002807617188
0.8646903991699219,0.9356002807617188
0.8630401611328125,0.9353485107421875
0.8630401611328125,0.9353485107421875
0.8632661819458007,0.9340021133422851
0.8632661819458007,0.9340021133422851
0.8642492294311523,0.9361965179443359
0.8642492294311523,0.9361965179443359
0.8631952285766601,0.9347854614257812
0.8631952285766601,0.9347854614257812
0.8653879165649414,0.9370336532592773
0.8653879165649414,0.9370336532592773
0.8644346237182617,0.9385894775390624
0.8644346237182617,0.9385894775390624
0.8681802749633789,0.9409486770629882
0.8677814483642577,0.9409486770629882
0.8674415588378906,0.9440889358520508
0.8674415588378906,0.9440122604370117
0.8703306198120117,0.9501440048217773
0.8713674545288086,0.9504552841186523
0.8738330841064453,0.9587202072143555
0.8751857757568359,0.9587202072143555
0.8777097702026367,0.9665290832519531
0.8777097702026367,0.9665290832519531
0.8787282943725586,0.9706151962280273
0.8787282943725586,0.9706151962280273
0.8831502914428710,0.9786958694458008
0.8831502914428710,0.9786958694458008
0.8845676422119141,0.9849403381347656
0.8845676422119141,0.9849403381347656
0.8875951766967773,0.9889549255371093
0.8875951766967773,0.9889549255371093
0.8903800964355468,0.9950855255126952
0.8903800964355468,0.9950855255126952
0.8901420593261719,0.9967288970947266
0.8901420593261719,0.9967288970947266
0.8935546875000000,1.0011274337768554
0.8935546875000000,1.0011274337768554
0.8934019088745117,1.0042963027954102
0.8934019088745117,1.0042963027954102
0.8948827743530273,1.0052564620971680
0.8948827743530273,1.0052564620971680
0.8966955184936524,1.0094392776489258
0.8966955184936524,1.0094392776489258
0.8960632324218750,1.0092287063598633
0.8960632324218750,1.0092287063598633
0.8989265441894531,1.0124341964721679
0.8989265441894531,1.0124341964721679
0.8980007171630859,1.0144180297851562
0.8980007171630859,1.0144180297851562
0.8987874984741211,1.0150028228759764
0.8987874984741211,1.0150028228759764
0.9008308410644531,1.0179851531982422
0.9008308410644531,1.0179851531982422
0.8997871398925781,1.0171085357666014
0.8997871398925781,1.0171085357666014
0.9018207550048828,1.0194849014282226
0.9018207550048828,1.0194849014282226
0.9006111145019531,1.0212816238403319
0.9006111145019531,1.0212816238403319
0.9018630981445312,1.0210247039794922
0.9018630981445312,1.0210247039794922
0.9035974502563476,1.0237398147583008
0.9035974502563476,1.0237398147583008
0.9020387649536132,1.0224815368652342
0.9020387649536132,1.0224815368652342
0.9038480758666991,1.0247932434082030
0.9038480758666991,1.0247932434082030
0.9031677246093750,1.0259216308593750
0.9031677246093750,1.0259216308593750
0.9040065765380859,1.0255834579467773
0.9040065765380859,1.0255834579467773
0.9053112030029297,1.0278556823730469
0.9053112030029297,1.0278556823730469
0.9036403656005859,1.0268280029296875
0.9036403656005859,1.0268280029296875
0.9059972763061523,1.0287677764892578
0.9059972763061523,1.0287677764892578
0.9051658630371093,1.0298801422119139
0.9067995071411132,1.0298801422119139
0.9055246353149413,1.0293468475341796
0.9055246353149413,1.0293468475341796
0.9065528869628906,1.0317335128784180
0.9065528869628906,1.0317335128784180
0.9055240631103515,1.0299402236938475
0.9055240631103515,1.0299402236938475
0.9075319290161132,1.0317735671997070
0.9075319290161132,1.0317735671997070
0.9061660766601562,1.0326250076293946
0.9080131530761718,1.0326250076293946
0.9065214157104492,1.0323143005371094
0.9065214157104492,1.0323143005371094
0.9082191467285156,1.0344457626342773
0.9082191467285156,1.0344457626342773
0.9070049285888672,1.0326570510864257
0.9070049285888672,1.0326570510864257
0.9085807800292969,1.0343725204467773
0.9085807800292969,1.0343725204467773
0.9070501327514648,1.0353687286376954
0.9070501327514648,1.0353687286376954
0.9077104568481444,1.0339851379394531
0.9077104568481444,1.0339851379394531
0.9086769104003906,1.0348983764648436
0.9086769104003906,1.0348983764648436
0.9055852890014648,1.0294069290161132
0.9055852890014648,1.0294069290161132
0.9038143157958984,1.0211826324462889
0.9038143157958984,1.0211826324462889
0.8945051193237304,1.0009901046752929
0.8945051193237304,1.0009901046752929
0.8854934692382812,0.9779720306396484
0.8854934692382812,0.9779720306396484
0.8779003143310546,0.9620630264282226
0.8779003143310546,0.9620630264282226
0.8700668334960937,0.9487724304199219
0.8700668334960937,0.9487724304199219
0.8684972763061524,0.9433044433593749
0.8684972763061524,0.9433044433593749
0.8651241302490235,0.9397212982177734
0.8651241302490235,0.9397212982177734
0.8640443801879882,0.9357725143432617
0.8623346328735352,0.9357725143432617
0.8641353607177734,0.9360483169555663
0.8641353607177734,0.9360483169555663
0.8621149063110352,0.9328290939331054
0.8621149063110352,0.9328290939331054
0.8638538360595703,0.9337051391601562
0.8638538360595703,0.9337051391601562
0.8622562408447265,0.9342155456542969
0.8622562408447265,0.9342155456542969
0.8625394821166992,0.9334545135498047
0.8625394821166992,0.9334545135498047
0.8642086029052735,0.9358806610107422
0.8642086029052735,0.9358806610107422
0.8631357192993164,0.9348140716552734
0.8631357192993164,0.9348140716552734
0.8651853561401367,0.9371137619018555
0.8651853561401367,0.9371137619018555
0.8644483566284179,0.9396818161010742
0.8644483566284179,0.9396818161010742
0.8659423828125000,0.9405057907104492
0.8659423828125000,0.9405057907104492
0.8685276031494140,0.9451887130737304
0.8685276031494140,0.9451887130737304
0.8682518005371094,0.9467548370361327
0.8682518005371094,0.9467548370361327
0.8715906143188477,0.9529226303100585
0.8715906143188477,0.9529226303100585
0.8729982376098633,0.9588569641113280
0.8729982376098633,0.9588569641113280
0.8760984420776367,0.9638053894042968
0.8760984420776367,0.9638053894042968
0.8798675537109375,0.9718122482299805
0.8798675537109375,0.9718122482299805
0.8806915283203125,0.9763578414916991
0.8806915283203125,0.9763578414916991
0.8854104995727539,0.9834938049316406
0.8854104995727539,0.9834938049316406
0.8867334365844727,0.9893274307250977
0.8891246795654296,0.9915441513061523
0.8887212753295898,0.9923921585083008
0.8884677886962891,0.9923921585083008
0.8912773132324219,0.9978017807006836
0.8912773132324219,0.9978017807006836
0.8911857604980469,0.9985216140747070
0.8911857604980469,0.9985216140747070
0.8939197540283202,1.0021917343139648
0.8939197540283202,1.0021917343139648
0.8936021804809570,1.0046934127807616
0.8936021804809570,1.0046934127807616
0.8943603515624999,1.0055963516235351
0.8943603515624999,1.0055963516235351
0.8966817855834961,1.0091915130615234
0.8966817855834961,1.0091915130615234
0.8961639404296875,1.0089809417724609
0.8961639404296875,1.0089809417724609
0.8981632232666016,1.0119855880737305
0.8981632232666016,1.0119855880737305
0.8972620010375977,1.0143865585327148
0.8972620010375977,1.0143865585327148
0.8987022399902344,1.0145404815673829
0.8987022399902344,1.0145404815673829
0.9004583358764648,1.0176509857177733
0.9004583358764648,1.0176509857177733
0.8992040634155273,1.0166141510009765
0.8992040634155273,1.0166141510009765
0.9011117935180664,1.0193452835083008
0.9011117935180664,1.0193452835083008
0.9006649017333984,1.0207254409790039
0.9006649017333984,1.0207254409790039
0.9016582489013671,1.0205245971679686
0.9016582489013671,1.0205245971679686
0.9030200958251953,1.0231035232543946
0.9030200958251953,1.0231035232543946
0.9013761520385741,1.0222177505493164
0.9013761520385741,1.0222177505493164
0.9036844253540038,1.0242176055908203
0.9036844253540038,1.0242176055908203
0.9027734756469726,1.0256103515624999
0.9027734756469726,1.0256103515624999
0.9034532546997069,1.0248647689819335
0.9034532546997069,1.0248647689819335
0.9046331405639648,1.0276067733764649
0.9046331405639648,1.0276067733764649
0.9034818649291991,1.0261550903320311
0.9034818649291991,1.0261550903320311
0.9056831359863281,1.0281566619873046
0.9056831359863281,1.0281566619873046
0.9045209884643555,1.0294406890869141
0.9045209884643555,1.0294406890869141
0.9046800613403320,1.0286659240722655
0.9046800613403320,1.0286659240722655
0.9065139770507812,1.0309747695922851
0.9065139770507812,1.0309747695922851
0.9050033569335937,1.0295070648193358
0.9050033569335937,1.0295070648193358
0.9067966461181640,1.0310726165771484
0.9067966461181640,1.0310726165771484
0.9055801391601562,1.0323772430419922
0.9055801391601562,1.0323772430419922
0.9062530517578125,1.0314285278320312
0.9064990997314453,1.0314285278320312
0.9079702377319335,1.0337465286254883
0.9079702377319335,1.0337465286254883
0.9061511993408202,1.0319503784179687
0.9061511993408202,1.0319503784179687
0.9073940277099609,1.0335508346557616
0.9073940277099609,1.0335508346557616
0.9065025329589843,1.0334913253784179
0.9065025329589843,1.0334913253784179
0.9060796737670898,1.0301765441894530
0.9060796737670898,1.0301765441894530
0.9050703048706055,1.0257247924804687
0.9050703048706055,1.0257247924804687
0.8962669372558594,1.0058612823486328
0.8962669372558594,1.0058612823486328
0.8885873794555664,0.9844511032104492
0.8885873794555664,0.9844511032104492
0.8786487579345703,0.9655574798583983
0.8786487579345703,0.9655574798583983
0.8717599868774414,0.9509679794311523
0.8717599868774414,0.9509679794311523
0.8685270309448242,0.9451498031616210
0.8685270309448242,0.9451498031616210
0.8646697998046875,0.9383319854736327
0.8646697998046875,0.9383319854736327
0.8649021148681640,0.9367012023925780
0.8649021148681640,0.9367012023925780
0.8626407623291016,0.9352249145507812
0.8626407623291016,0.9352249145507812
0.8620262145996094,0.9330081939697266
0.8620262145996094,0.9330081939697266
0.8632987976074219,0.9341938018798828
0.8632987976074219,0.9341938018798828
0.8617132186889648,0.9320343017578124
0.8617132186889648,0.9320343017578124
0.8630413055419922,0.9334465026855469
0.8630413055419922,0.9334465026855469
0.8619947433471680,0.9348014831542968
0.8619947433471680,0.9348014831542968
0.8629589080810547,0.9342264175415038
0.8629589080810547,0.9342264175415038
0.8646772384643554,0.9373157501220702
0.8646772384643554,0.9373157501220702
0.8636329650878906,0.9364974975585937
0.8636329650878906,0.9364974975585937
0.8658342361450195,0.9401933670043945
0.8658342361450195,0.9401933670043945
0.8662113189697266,0.9433553695678710
0.8662113189697266,0.9433553695678710
0.8682037353515625,0.9455783843994140
0.8682037353515625,0.9455783843994140
0.8710315704345702,0.9517959594726562
0.8710315704345702,0.9517959594726562
0.8712415695190430,0.9551593780517578
0.8712415695190430,0.9551593780517578
0.8756612777709961,0.9622838973999023
0.8756612777709961,0.9622838973999023
0.8774688720703124,0.9692373275756836
0.8774688720703124,0.9692373275756836
0.8802846908569336,0.9737091064453125
0.8802846908569336,0.9737091064453125
0.8835891723632813,0.9812650680541992
0.8835891723632813,0.9812650680541992
0.8844789505004883,0.9839029312133789
0.8844789505004883,0.9839029312133789
0.8880214691162109,0.9891826629638671
0.8880214691162109,0.9891826629638671
0.8882057189941406,0.9932779312133788
0.8882057189941406,0.9932779312133788
0.8893621444702148,0.9947439193725586
0.8893621444702148,0.9947439193725586
0.8919124603271484,0.9988111495971679
0.8919124603271484,0.9988111495971679
0.8912315368652344,0.9989210128784179
0.8912315368652344,0.9989210128784179
0.8935409545898437,1.0020132064819336
0.8935409545898437,1.0020132064819336
0.8930059432983398,1.0048530578613282
0.8930059432983398,1.0048530578613282
0.8944049835205078,1.0053016662597656
0.8944049835205078,1.0053016662597656
0.8966852188110351,1.0089483261108398
0.8966852188110351,1.0089483261108398
0.8955219268798827,1.0089941024780273
0.8955219268798827,1.0089941024780273
0.8975835800170898,1.0119838714599609
0.8975835800170898,1.0119838714599609
0.8975229263305664,1.0144243240356445
0.8975229263305664,1.0144243240356445
0.8985683441162109,1.0147104263305664
0.8985683441162109,1.0147104263305664
0.9002580642700195,1.0177385330200195
0.9002580642700195,1.0177385330200195
0.8988607406616210,1.0173728942871094
0.8988607406616210,1.0173728942871094
0.9013790130615233,1.0195753097534179
0.9013790130615233,1.0195753097534179
0.9008525848388671,1.0213811874389649
0.9008525848388671,1.0213811874389649
0.9013149261474609,1.0208095550537108
0.9013149261474609,1.0208095550537108
0.9026653289794921,1.0237941741943359
0.9026653289794921,1.0237941741943359
0.9017263412475586,1.0225891113281249
0.9017263412475586,1.0225891113281249
0.9034727096557617,1.0244562149047851
0.9021966934204101,1.0244562149047851
0.9027603149414062,1.0258003234863280
0.9045633316040038,1.0258003234863280
0.9029325485229491,1.0255067825317383
0.9029325485229491,1.0255067825317383
0.9048934936523437,1.0279666900634765
0.9048934936523437,1.0279666900634765
0.9038028717041016,1.0266666412353516
0.9038028717041016,1.0266666412353516
0.9051715850830078,1.0282945632934570
0.9051715850830078,1.0282945632934570
0.9040672302246093,1.0297050476074219
0.9040672302246093,1.0297050476074219
0.9049324035644530,1.0288467407226562
0.9049324035644530,1.0288467407226562
0.9064064025878906,1.0312168121337890
0.9064064025878906,1.0312168121337890
0.9047430038452148,1.0295047760009766
0.9047430038452148,1.0295047760009766
0.9061334609985351,1.0312208175659179
0.9061334609985351,1.0312208175659179
0.9056339263916016,1.0323383331298828
0.9056339263916016,1.0323383331298828
0.9062994003295898,1.0314268112182616
0.9062994003295898,1.0314268112182616
0.9073425292968750,1.0334163665771483
0.9073425292968750,1.0334163665771483
0.9050777435302734,1.0309581756591797
0.9050777435302734,1.0309581756591797
0.9062021255493163,1.0297107696533203
0.9062021255493163,1.0297107696533203
0.9029348373413085,1.0235858917236327
0.9029348373413085,1.0235858917236327
0.8955402374267578,1.0024543762207030
0.8955402374267578,1.0024543762207030
0.8865680694580078,0.9816473007202148
0.8865680694580078,0.9816473007202148
0.8760395050048828,0.9600786209106444
0.8760395050048828,0.9600786209106444
0.8710390090942383,0.9481121063232422
0.8710390090942383,0.9481121063232422
0.8657381057739257,0.9415391921997069
0.8657381057739257,0.9415391921997069
0.8633726119995117,0.9358314514160155
0.8633726119995117,0.9358314514160155
0.8635808944702148,0.9347139358520508
0.8635808944702148,0.9347139358520508
0.8609064102172851,0.9308761596679687
0.8609064102172851,0.9308761596679687
0.8616073608398437,0.9305820465087891
0.8616073608398437,0.9305820465087891
0.8598981857299804,0.9308063507080078
0.8598981857299804,0.9308063507080078
0.8603988647460937,0.9290410995483398
0.8603988647460937,0.9290410995483398
0.8619169235229492,0.9310581207275390
0.8619169235229492,0.9310581207275390
0.8600446701049804,0.9295183181762695
0.8600446701049804,0.9295183181762695
0.8616474151611327,0.9312137603759765
0.8616474151611327,0.9312137603759765
0.8614648818969727,0.9328159332275390
0.8614648818969727,0.9328159332275390
0.8620491027832031,0.9327289581298828
0.8620491027832031,0.9327289581298828
0.8638818740844726,0.9360168457031249
0.8638818740844726,0.9360168457031249
0.8629343032836914,0.9366474151611328
0.8629343032836914,0.9366474151611328
0.8660327911376953,0.9406820297241211
0.8660327911376953,0.9406820297241211
0.8667835235595703,0.9451778411865234
0.8667835235595703,0.9451778411865234
0.8687370300292968,0.9484869003295898
0.8687370300292968,0.9484869003295898
0.8719894409179687,0.9557235717773437
0.8719894409179687,0.9557235717773437
0.8731641769409180,0.9594898223876953
0.8731641769409180,0.9594898223876953
0.8773973464965820,0.9666904449462890
0.8773973464965820,0.9666904449462890
0.8790075302124023,0.9731454849243164
0.8790075302124023,0.9731454849243164
0.8813020706176757,0.9774971008300781
0.8813020706176757,0.9774971008300781
0.8851490020751953,0.9840997695922851
0.8851490020751953,0.9840997695922851
0.8855644226074219,0.9864875793457031
0.8855644226074219,0.9864875793457031
0.8882755279541016,0.9910200119018554
0.8882755279541016,0.9910200119018554
0.8884546279907226,0.9949270248413086
0.8884546279907226,0.9949270248413086
0.8900196075439453,0.9959747314453125
0.8900196075439453,0.9959747314453125
0.8924411773681641,1.0000293731689454
0.8924411773681641,1.0000293731689454
0.8915342330932617,1.0002113342285155
0.8915342330932617,1.0002113342285155
0.8935438156127929,1.0033887863159179
0.8935438156127929,1.0033887863159179
0.8937618255615234,1.0060667037963866
0.8937618255615234,1.0060667037963866
0.8947751998901367,1.0062469482421874
0.8947751998901367,1.0062469482421874
0.8965833663940429,1.0098672866821288
0.8965833663940429,1.0098672866821288
0.8952449798583985,1.0097476959228515
0.8952449798583985,1.0097476959228515
0.8977798461914063,1.0120971679687500
0.8977798461914063,1.0120971679687500
0.8975641250610351,1.0145599365234375
0.8975641250610351,1.0145599365234375
0.8981889724731446,1.0141628265380860
0.8981889724731446,1.0141628265380860
0.8995782852172851,1.0175662994384764
0.8995782852172851,1.0175662994384764
0.8986948013305663,1.0166347503662110
0.8986948013305663,1.0166347503662110
0.9008594512939453,1.0186449050903319
0.9008594512939453,1.0186449050903319
0.8999547958374023,1.0203866958618164
0.9016862869262695,1.0203866958618164
0.9003038406372070,1.0198648452758790
0.9003038406372070,1.0198648452758790
0.9022550582885742,1.0225416183471678
0.9022550582885742,1.0225416183471678
0.9010774612426757,1.0213909149169922
0.9010774612426757,1.0213909149169922
0.9027603149414062,1.0230154037475585
0.9027603149414062,1.0230154037475585
0.9018379211425781,1.0249362945556639
0.9035997390747070,1.0249237060546874
0.9025960922241211,1.0241249084472657
0.9029222488403320,1.0241249084472657
0.9044569015502929,1.0265762329101562
0.9044569015502929,1.0265762329101562
0.9025995254516601,1.0253900527954101
0.9025995254516601,1.0253900527954101
0.9040197372436523,1.0270271301269531
0.9040197372436523,1.0270271301269531
0.9036741256713867,1.0281938552856444
0.9036741256713867,1.0281938552856444
0.9040386199951171,1.0273000717163085
0.9040386199951171,1.0273000717163085
0.9054800033569336,1.0294898986816405
0.9054800033569336,1.0294898986816405
0.9037256240844727,1.0283500671386718
0.9037256240844727,1.0283500671386718
0.9054800033569336,1.0293800354003906
0.9054800033569336,1.0293800354003906
0.9048030853271484,1.0300449371337890
0.9048030853271484,1.0300449371337890
0.9040752410888672,1.0269990921020506
0.9040752410888672,1.0269990921020506
0.9033468246459960,1.0245203018188476
0.9033468246459960,1.0245203018188476
0.8964746475219726,1.0069313049316406
0.8964746475219726,1.0069313049316406
0.8885227203369140,0.9845781326293945
0.8885227203369140,0.9845781326293945
0.8776147842407226,0.9637355804443359
0.8776147842407226,0.9637355804443359
0.8694791793823242,0.9468790054321289
0.8694791793823242,0.9468790054321289
0.8662525177001953,0.9396846771240234
0.8662525177001953,0.9396846771240234
0.8619712829589844,0.9326007843017577
0.8619712829589844,0.9326007843017577
0.8613349914550781,0.9298158645629883
0.8613349914550781,0.9298158645629883
0.8588779449462890,0.9285255432128906
0.8588779449462890,0.9285255432128906
0.8584613800048828,0.9249538421630858
0.8584613800048828,0.9249538421630858
0.8590244293212891,0.9256725311279297
0.8590244293212891,0.9256725311279297
0.8570692062377929,0.9231428146362304
0.8570692062377929,0.9231428146362304
0.8581472396850586,0.9239147186279296
0.8581472396850586,0.9239147186279296
0.8574617385864257,0.9247764587402343
0.8574617385864257,0.9247764587402343
0.8580259323120117,0.9235147476196288
0.8580259323120117,0.9235147476196288
0.8592395782470703,0.9259660720825195
0.8592395782470703,0.9259660720825195
0.8575504302978515,0.9249744415283203
0.8575504302978515,0.9249744415283203
0.8599222183227538,0.9267454147338867
0.8599222183227538,0.9267454147338867
0.8595439910888671,0.9290313720703125
0.8595439910888671,0.9290313720703125
0.8602111816406249,0.9287601470947265
0.8602111816406249,0.9287601470947265
0.8621852874755859,0.9332096099853515
0.8621852874755859,0.9332096099853515
0.8620244979858398,0.9345319747924804
0.8620244979858398,0.9345319747924804
0.8654308319091797,0.9390335083007812
0.8654308319091797,0.9390335083007812
0.8661472320556640,0.9443950653076172
0.8661472320556640,0.9443950653076172
0.8679794311523438,0.9477493286132812
0.8681402206420898,0.9477493286132812
0.8719894409179687,0.9549167633056640
0.8719894409179687,0.9549167633056640
0.8727069854736328,0.9584163665771483
0.8727069854736328,0.9584163665771483
0.8763427734375000,0.9638866424560546
0.8763427734375000,0.9638866424560546
0.8770133972167968,0.9698312759399413
0.8770133972167968,0.9698312759399413
0.8795070648193359,0.9724760055541992
0.8795070648193359,0.9724760055541992
0.8826959609985351,0.9780870437622070
0.8826959609985351,0.9780870437622070
0.8822816848754883,0.9799409866333008
0.8822816848754883,0.9799409866333008
0.8848154067993164,0.9838256835937500
0.8848154067993164,0.9838256835937500
0.8854654312133788,0.9875112533569336
0.8854654312133788,0.9875112533569336
0.8868204116821289,0.9885423660278320
0.8868204116821289,0.9885423660278320
0.8890628814697266,0.9928041458129883
0.8890628814697266,0.9928041458129883
0.8879379272460938,0.9938289642333984
0.8879379272460938,0.9938289642333984
0.8907955169677734,0.9968770980834960
0.8907955169677734,0.9968770980834960
0.8911176681518554,1.0002319335937500
0.8911176681518554,1.0002319335937500
0.8920389175415039,1.0007698059082031
0.8920389175415039,1.0007698059082031
0.8938344955444336,1.0048467636108398
0.8938344955444336,1.0048467636108398
0.8933200836181641,1.0051357269287109
0.8933200836181641,1.0051357269287109
0.8956901550292968,1.0075618743896484
0.8956901550292968,1.0075618743896484
0.8953834533691406,1.0098575592041015
0.8970863342285156,1.0098575592041015
0.8956558227539062,1.0098421096801757
0.8956558227539062,1.0098421096801757
0.8977638244628906,1.0127386093139648
0.8977638244628906,1.0127386093139648
0.8966766357421875,1.0120462417602538
0.8966766357421875,1.0120462417602538
0.8982627868652343,1.0136003494262695
0.8982627868652343,1.0136003494262695
0.8973232269287109,1.0153661727905272
0.8973232269287109,1.0153661727905272
0.8980344772338867,1.0143281936645507
0.8980344772338867,1.0143281936645507
0.8997550964355469,1.0169603347778320
0.8997550964355469,1.0169603347778320
0.8980825424194335,1.0157535552978516
0.8980825424194335,1.0157535552978516
0.8995920181274414,1.0173030853271483
0.8995920181274414,1.0173030853271483
0.8993665695190429,1.0187044143676758
0.8993665695190429,1.0187044143676758
0.8997247695922851,1.0177717208862305
0.8997247695922851,1.0177717208862305
0.9010179519653320,1.0199747085571289
0.9010179519653320,1.0199747085571289
0.8991096496582031,1.0190460205078125
0.8991096496582031,1.0190460205078125
0.9011478424072266,1.0199523925781249
0.9011478424072266,1.0199523925781249
0.9005744934082031,1.0213926315307618
0.9005744934082031,1.0213926315307618
0.9006477355957031,1.0199283599853515
0.9006477355957031,1.0199283599853515
0.9017366409301757,1.0223539352416993
0.9017366409301757,1.0223539352416993
0.9005887985229492,1.0211780548095704
0.9005887985229492,1.0211780548095704
0.9024593353271484,1.0221960067749023
0.9024593353271484,1.0221960067749023
0.9012102127075194,1.0228603363037110
0.9012102127075194,1.0228603363037110
0.8999948501586914,1.0187627792358398
0.8999948501586914,1.0187627792358398
0.8981752395629883,1.0102895736694335
0.8981752395629883,1.0102895736694335
0.8887590408325196,0.9887243270874023
0.8887590408325196,0.9887243270874023
0.8795139312744140,0.9640754699707030
0.8795139312744140,0.9640754699707030
0.8681528091430664,0.9447835922241210
0.8681528091430664,0.9447835922241210
0.8620794296264648,0.9315010070800781
0.8620794296264648,0.9315010070800781
0.8601276397705078,0.9268753051757812
0.8601276397705078,0.9268753051757812
0.8560632705688477,0.9213689804077148
0.8560632705688477,0.9213689804077148
0.8558773040771485,0.9194824218750000
0.8558773040771485,0.9194824218750000
0.8545824050903320,0.9187568664550780
0.8545824050903320,0.9187568664550780
0.8541091918945313,0.9161624908447266
0.8529218673706055,0.9161624908447266
0.8551328659057617,0.9172576904296874
0.8551328659057617,0.9172576904296874
0.8530488967895508,0.9160348892211914
0.8530488967895508,0.9160348892211914
0.8551448822021485,0.9168720245361328
0.8551448822021485,0.9168720245361328
0.8547294616699218,0.9184301376342773
0.8547294616699218,0.9184301376342773
0.8548690795898437,0.9176731109619141
0.8548690795898437,0.9176731109619141
0.8560815811157226,0.9205261230468750
0.8560815811157226,0.9205261230468750
0.8554241180419921,0.9203956604003906
0.8554241180419921,0.9203956604003906
0.8578336715698242,0.9226472854614257
0.8578336715698242,0.9226472854614257
0.8577575683593750,0.9256444931030273
0.8577575683593750,0.9256444931030273
0.8585655212402343,0.9271282196044921
0.8585655212402343,0.9271282196044921
0.8617630004882812,0.9322322845458983
0.8617630004882812,0.9322322845458983
0.8620468139648437,0.9346298217773437
0.8620468139648437,0.9346298217773437
0.8651126861572266,0.9394615173339843
0.8651126861572266,0.9394615173339843
0.8658863067626953,0.9451847076416016
0.8658863067626953,0.9451847076416016
0.8684577941894531,0.9479112625122070
0.8684577941894531,0.9479112625122070
0.8717737197875977,0.9542484283447266
0.8717737197875977,0.9542484283447266
0.8715991973876953,0.9566745758056641
0.8715991973876953,0.9566745758056641
0.8746370315551758,0.9613517761230468
0.8746370315551758,0.9613517761230468
0.8756006240844726,0.9658041000366211
0.8756006240844726,0.9658041000366211
0.8773727416992188,0.9672901153564453
0.8773727416992188,0.9672901153564453
0.8795774459838867,0.9719673156738281
0.8795774459838867,0.9719673156738281
0.8786647796630859,0.9734584808349609
0.8786647796630859,0.9734584808349609
0.8817935943603515,0.9765838623046874
0.8817935943603515,0.9765838623046874
0.8821941375732422,0.9804044723510742
0.8821941375732422,0.9804044723510742
0.8832870483398437,0.9810710906982422
0.8832870483398437,0.9810710906982422
0.8852874755859375,0.9857580184936523
0.8852874755859375,0.9857580184936523
0.8848846435546874,0.9866930007934570
0.8848846435546874,0.9866930007934570
0.8878944396972656,0.9898218154907226
0.8878944396972656,0.9898218154907226
0.8878131866455078,0.9932367324829101
0.8896133422851562,0.9932367324829101
0.8885026931762695,0.9939937591552734
0.8885026931762695,0.9939937591552734
0.8911537170410156,0.9980346679687500
0.8911537170410156,0.9980346679687500
0.8902868270874024,0.9985565185546874
0.8902868270874024,0.9985565185546874
0.8924171447753906,1.0008579254150389
0.8924171447753906,1.0008579254150389
0.8919450759887695,1.0039020538330077
0.8919450759887695,1.0039020538330077
0.8931575775146484,1.0034694671630859
0.8931575775146484,1.0034694671630859
0.8950773239135742,1.0063859939575195
0.8950773239135742,1.0063859939575195
0.8932949066162109,1.0058326721191406
0.8932949066162109,1.0058326721191406
0.8948392868041992,1.0071556091308593
0.8948392868041992,1.0071556091308593
0.8948461532592773,1.0087852478027344
0.8948461532592773,1.0087852478027344
0.8949548721313476,1.0075424194335938
0.8949548721313476,1.0075424194335938
0.8963064193725586,1.0094238281249999
0.8963064193725586,1.0094238281249999
0.8941629409790038,1.0084739685058592
0.8941629409790038,1.0084739685058592
0.8962703704833984,1.0089220046997069
0.8962703704833984,1.0089220046997069
0.8956432342529297,1.0099668502807617
0.8956432342529297,1.0099668502807617
0.8951854705810547,1.0081729888916016
0.8951854705810547,1.0081729888916016
0.8960632324218750,1.0097173690795898
0.8960632324218750,1.0097173690795898
0.8945394515991211,1.0081134796142577
0.8945394515991211,1.0081134796142577
0.8959184646606445,1.0081804275512696
0.8959184646606445,1.0081804275512696
0.8948684692382812,1.0088069915771485
0.8948684692382812,1.0088069915771485
0.8944267272949219,1.0071550369262694
0.8944267272949219,1.0071550369262694
0.8960832595825196,1.0086318969726562
0.8960832595825196,1.0086318969726562
0.8944490432739257,1.0072717666625977
0.8944490432739257,1.0072717666625977
0.8957691192626953,1.0077146530151366
0.8946046829223633,1.0091869354248046
0.8946046829223633,1.0091869354248046
0.8950870513916015,1.0072196960449218
0.8950870513916015,1.0072196960449218
0.8949840545654296,1.0043901443481444
0.8949840545654296,1.0043901443481444
0.8886251449584961,0.9914028167724609
0.8886251449584961,0.9914028167724609
0.8827159881591796,0.9743568420410156
0.8827159881591796,0.9743568420410156
0.8740236282348632,0.9570127487182617
0.8740236282348632,0.9570127487182617
0.8671136856079101,0.9407043457031250
0.8671136856079101,0.9407043457031250
0.8627592086791992,0.9322608947753905
0.8627592086791992,0.9322608947753905
0.8569868087768554,0.9241395950317383
0.8569868087768554,0.9241395950317383
0.8564661026000976,0.9197851181030273
0.8564661026000976,0.9197851181030273
0.8546424865722656,0.9158168792724609
0.8546424865722656,0.9154512405395507
0.8517156600952148,0.9141826629638672
0.8538082122802734,0.9141826629638672
0.8525384902954102,0.9127441406250000
0.8510547637939453,0.9127441406250000
0.8539672851562500,0.9137981414794921
0.8529613494873046,0.9137981414794921
0.8516710281372070,0.9114229202270507
0.8526786804199219,0.9114229202270507
0.8536634445190430,0.9138736724853516
0.8524394989013672,0.9138736724853516
0.8518409729003906,0.9146575927734375
0.8544897079467774,0.9146575927734375
0.8546985626220703,0.9152486801147460
0.8526666641235351,0.9152486801147460
0.8548582077026367,0.9176164627075195
0.8551609039306640,0.9176164627075195
0.8543466567993164,0.9178144454956054
0.8556547164916992,0.9178144454956054
0.8570034027099609,0.9215686798095702
0.8562726974487305,0.9215686798095702
0.8571453094482422,0.9241842269897460
0.8594175338745117,0.9241842269897460
0.8587675094604492,0.9260175704956054
0.8581237792968750,0.9260175704956054
0.8607152938842774,0.9309442520141601
0.8613161087036133,0.9309442520141601
0.8607324600219727,0.9321109771728515
0.8623580932617188,0.9321109771728515
0.8650772094726562,0.9367715835571289
0.8634292602539062,0.9367715835571289
0.8633520126342773,0.9392629623413086
0.8663000106811524,0.9392629623413086
0.8658811569213867,0.9420135498046874
0.8651836395263671,0.9420135498046874
0.8677064895629882,0.9461391448974609
0.8681035995483398,0.9461391448974609
0.8686660766601563,0.9468257904052734
0.8693252563476562,0.9468257904052734
0.8703809738159179,0.9501789093017577
0.8695507049560547,0.9501789093017577
0.8693487167358398,0.9528453826904296
0.8721302032470702,0.9528453826904296
0.8716186523437500,0.9545459747314453
0.8706768035888671,0.9545459747314453
0.8740642547607421,0.9581411361694335
0.8734651565551758,0.9581411361694335
0.8726600646972656,0.9575672149658203
0.8739486694335937,0.9575672149658203
0.8751577377319336,0.9615062713623046
0.8742822647094727,0.9615062713623046
0.8740425109863281,0.9633796691894531
0.8766855239868164,0.9633796691894531
0.8771043777465820,0.9646041870117187
0.8752384185791016,0.9646041870117187
0.8773366928100585,0.9674348831176758
0.8777332305908203,0.9674348831176758
0.8770036697387695,0.9676797866821288
0.8782464981079101,0.9676797866821288
0.8793611526489258,0.9711462020874023
0.8784736633300781,0.9711462020874023
0.8791980743408203,0.9728765487670898
0.8808265686035156,0.9728765487670898
0.8800970077514648,0.9736198425292968
0.8792255401611327,0.9736198425292968
0.8814622879028320,0.9772705078124999
0.8818548202514648,0.9772705078124999
0.8810222625732421,0.9770656585693359
0.8822925567626952,0.9770656585693359
0.8846597671508789,0.9804107666015625
0.8826736450195313,0.9804107666015625
0.8820653915405273,0.9813989639282226
0.8847318649291992,0.9813989639282226
0.8840080261230469,0.9825531005859375
0.8827743530273438,0.9825531005859375
0.8848445892333984,0.9850009918212890
0.8849464416503906,0.9850009918212890
0.8850528717041015,0.9836551666259765
0.8850500106811523,0.9836551666259765
0.8859323501586914,0.9848161697387695
0.8845287322998047,0.9848161697387695
0.8837940216064453,0.9852882385253906
0.8859432220458984,0.9852882385253906
0.8849166870117188,0.9842130661010742
0.8833539962768554,0.9842130661010742
0.8862573623657226,0.9851589202880859
0.8851953506469726,0.9851589202880859
0.8836824417114257,0.9819156646728515
0.8843845367431641,0.9819156646728515
0.8850196838378906,0.9830640792846679
0.8835828781127929,0.9830640792846679
0.8827394485473633,0.9823299407958984
0.8848045349121093,0.9823299407958984
0.8846632003784179,0.9809509277343750
0.8821088790893554,0.9809509277343750
0.8839056015014648,0.9812776565551757
0.8835880279541015,0.9812776565551757
0.8822925567626952,0.9791879653930664
0.8830839157104492,0.9791879653930664
0.8838695526123047,0.9800834655761719
0.8822959899902344,0.9800834655761719
0.8825677871704102,0.9797641754150390
0.8839977264404296,0.9797641754150390
0.8825946807861328,0.9783182144165039
0.8812133789062500,0.9783182144165039
0.8831783294677734,0.9803306579589843
0.8831342697143555,0.9803306579589843
0.8819406509399413,0.9787073135375977
0.8830289840698242,0.9787073135375977
0.8850671768188476,0.9805435180664062
0.8827543258666992,0.9805435180664062
0.8821266174316406,0.9808084487915039
0.8845006942749023,0.9808084487915039
0.8836400985717773,0.9811941146850586
0.8823898315429687,0.9811941146850586
0.8846368789672852,0.9838027954101562
0.8845659255981445,0.9838027954101562
0.8847644805908202,0.9828969955444335
0.8850408554077148,0.9828969955444335
0.8858625411987304,0.9849586486816406
0.8847003936767578,0.9849586486816406
0.8844629287719726,0.9869287490844726
0.8869674682617187,0.9869287490844726
0.8861932754516602,0.9873699188232421
0.8847518920898437,0.9873699188232421
0.8875711441040038,0.9872194290161133
0.8854391098022460,0.9872194290161133
0.8828573226928711,0.9784034729003905
0.8819217681884766,0.9784034729003905
0.8806417465209960,0.9704790115356445
0.8767816543579101,0.9704790115356445
0.8738119125366210,0.9602210998535156
0.8735956192016602,0.9602210998535156
0.8717393875122070,0.9504392623901367
0.8674861907958984,0.9504392623901367
0.8678804397583008,0.9443658828735351
0.8663394927978515,0.9443658828735351
0.8639230728149414,0.9377386093139648
0.8638664245605469,0.9377386093139648
0.8639579772949219,0.9353765487670898
0.8615535736083985,0.9353765487670898
0.8612812042236327,0.9322368621826171
0.8618837356567383,0.9322368621826171
0.8601282119750976,0.9284729003906249
0.8582376480102539,0.9284729003906249
0.8598913192749024,0.9285575866699218
0.8592979431152343,0.9285575866699218
0.8577089309692383,0.9249830245971680
0.8583978652954102,0.9249830245971680
0.8600927352905273,0.9253566741943359
0.8576196670532227,0.9253566741943359
0.8566417694091797,0.9241733551025391
0.8586982727050781,0.9241733551025391
0.8574926376342773,0.9236343383789062
0.8561010360717773,0.9236343383789062
0.8581998825073242,0.9253709793090820
0.8580780029296875,0.9253709793090820
0.8580871582031250,0.9238328933715820
0.8583251953125000,0.9238328933715820
0.8593105316162110,0.9255346298217773
0.8580797195434570,0.9255346298217773
0.8575733184814452,0.9268249511718749
0.8600446701049804,0.9268249511718749
0.8590965270996094,0.9270675659179687
0.8577993392944335,0.9270675659179687
0.8612485885620117,0.9294210433959961
0.8604640960693359,0.9294210433959961
0.8590793609619141,0.9275756835937500
0.8603010177612305,0.9275756835937500
0.8612211227416992,0.9299245834350586
0.8599399566650391,0.9299245834350586
0.8594942092895508,0.9304893493652343
0.8618196487426758,0.9304893493652343
0.8618001937866211,0.9302009582519530
0.8594879150390625,0.9302009582519530
0.8616548538208008,0.9317590713500976
0.8615226745605469,0.9317590713500976
0.8604595184326171,0.9305814743041991
0.8616113662719727,0.9305814743041991
0.8624507904052734,0.9325006484985351
0.8612325668334960,0.9325006484985351
0.8617641448974609,0.9331672668457031
0.8632959365844727,0.9331672668457031
0.8621829986572266,0.9326591491699219
0.8608131408691406,0.9326591491699219
0.8630270004272461,0.9352661132812500
0.8628850936889648,0.9352661132812500
0.8619873046875000,0.9339065551757812
0.8631797790527344,0.9339065551757812
0.8651847839355469,0.9360952377319336
0.8629686355590820,0.9360952377319336
0.8625635147094727,0.9364425659179687
0.8648277282714844,0.9364425659179687
0.8639184951782226,0.9369712829589844
0.8626968383789062,0.9369712829589844
0.8650331497192383,0.9395536422729491
0.8649627685546875,0.9395536422729491
0.8650056838989257,0.9384841918945312
0.8654085159301758,0.9384841918945312
0.8663166046142577,0.9402505874633789
0.8650085449218750,0.9402505874633789
0.8646554946899414,0.9417715072631836
0.8670009613037110,0.9417715072631836
0.8660928726196289,0.9420055389404296
0.8648214340209961,0.9420055389404296
0.8682111740112305,0.9443229675292968
0.8670278549194336,0.9443229675292968
0.8659601211547852,0.9422710418701171
0.8671142578125000,0.9422710418701171
0.8680955886840820,0.9446599960327148
0.8667257308959960,0.9446599960327148
0.8662044525146484,0.9449398040771484
0.8683210372924804,0.9449398040771484
0.8683410644531250,0.9443515777587890
0.8660900115966796,0.9443515777587890
0.8680480957031250,0.9454301834106444
0.8676973342895508,0.9454301834106444
0.8665740966796874,0.9438760757446288
0.8677259445190429,0.9438760757446288
0.8683702468872070,0.9453077316284180
0.8669563293457031,0.9453077316284180
0.8675210952758788,0.9454896926879882
0.8685871124267578,0.9454896926879882
0.8674747467041015,0.9440900802612304
0.8661289215087891,0.9440900802612304
0.8682506561279296,0.9462329864501953
0.8680063247680664,0.9462329864501953
0.8667915344238281,0.9442743301391601
0.8679519653320312,0.9442743301391601
0.8698339462280273,0.9459154129028320
0.8676469802856445,0.9459154129028320
0.8669517517089843,0.9459148406982422
0.8691055297851562,0.9459148406982422
0.8681047439575195,0.9458433151245117
0.8667280197143554,0.9458433151245117
0.8689619064331054,0.9479255676269531
0.8687524795532227,0.9479255676269531
0.8686706542968750,0.9462650299072265
0.8689115524291992,0.9462650299072265
0.8697326660156249,0.9477270126342773
0.8683090209960938,0.9477270126342773
0.8679359436035156,0.9488565444946289
0.8700857162475586,0.9488565444946289
0.8691804885864257,0.9486293792724609
0.8679073333740234,0.9486293792724609
0.8713285446166992,0.9510921478271483
0.8702779769897461,0.9510921478271483
0.8692274093627930,0.9495483398437500
0.8705966949462890,0.9495483398437500
0.8715230941772460,0.9526462554931641
0.8703145980834961,0.9526462554931641
0.8701137542724610,0.9543691635131836
0.8723241806030273,0.9543691635131836
0.8728282928466796,0.9549642562866211
0.8707826614379882,0.9549642562866211
0.8731601715087890,0.9577486038208007
0.8733112335205078,0.9577486038208007
0.8724328994750976,0.9579448699951172
0.8738605499267578,0.9579448699951172
0.8750181198120117,0.9612144470214843
0.8739635467529296,0.9612144470214843
0.8751525878906250,0.9634746551513671
0.8767095565795898,0.9634746551513671
0.8758283615112304,0.9643632888793945
0.8749958038330078,0.9643632888793945
0.8776737213134765,0.9685878753662109
0.8776422500610351,0.9685878753662109
0.8769550323486328,0.9688510894775391
0.8787099838256835,0.9688510894775391
0.8810228347778321,0.9726785659790038
0.8790647506713867,0.9726785659790038
0.8790298461914062,0.9745794296264648
0.8816762924194336,0.9745794296264648
0.8809810638427734,0.9764808654785155
0.8799831390380859,0.9764808654785155
0.8828115463256836,0.9804719924926757
0.8829969406127930,0.9804719924926757
0.8832138061523437,0.9809234619140624
0.8841104507446289,0.9809234619140624
0.8851627349853516,0.9841203689575195
0.8840950012207031,0.9841203689575195
0.8841779708862304,0.9870208740234374
0.8866842269897460,0.9870208740234374
0.8859855651855468,0.9883941650390624
0.8851501464843750,0.9883941650390624
0.8888608932495117,0.9922359466552734
0.8879482269287109,0.9922359466552734
0.8872713088989258,0.9918045043945312
0.8889501571655273,0.9918045043945312
0.8900579452514649,0.9957515716552734
0.8890268325805664,0.9957515716552734
0.8889261245727539,0.9979059219360351
0.8913064956665039,0.9979059219360351
0.8917505264282226,0.9988615036010742
0.8898513793945312,0.9988615036010742
0.8921745300292968,1.0016990661621092
0.8921659469604492,1.0016990661621092
0.8913700103759765,1.0016126632690430
0.8928886413574219,1.0016126632690430
0.8927930831909180,1.0041120529174805
0.8938562393188476,1.0041120529174805
0.8947488784790039,1.0068872451782227
0.8947488784790039,1.0068872451782227
0.8930734634399414,1.0070674896240235
0.8930734634399414,1.0070674896240235
0.8946722030639648,1.0086090087890625
0.8946722030639648,1.0086090087890625
0.8952964782714844,1.0107696533203125
0.8952964782714844,1.0107696533203125
0.8957324981689453,1.0101791381835936
0.8957324981689453,1.0101791381835936
0.8971384048461913,1.0126607894897461
0.8971384048461913,1.0126607894897461
0.8948610305786132,1.0125732421875000
0.8948610305786132,1.0125732421875000
0.8974433898925781,1.0135322570800780
0.8974433898925781,1.0135322570800780
0.8974559783935546,1.0157060623168945
0.8974559783935546,1.0157060623168945
0.8974754333496093,1.0146062850952149
0.8974754333496093,1.0146062850952149
0.8985820770263672,1.0171142578124999
0.8985820770263672,1.0171142578124999
0.8973587036132812,1.0167537689208983
0.8973587036132812,1.0167537689208983
0.8993402481079101,1.0174495697021484
0.8993402481079101,1.0174495697021484
0.8990661621093750,1.0193201065063475
0.8990661621093750,1.0193201065063475
0.8985397338867187,1.0184171676635743
0.8985397338867187,1.0184171676635743
0.9005350112915038,1.0203088760375976
0.9005350112915038,1.0203088760375976
0.8986450195312500,1.0199832916259766
0.8986450195312500,1.0199832916259766
0.9005167007446289,1.0204650878906250
0.9005167007446289,1.0204650878906250
0.8998317718505859,1.0222721099853516
0.8998317718505859,1.0222721099853516
0.9001670837402344,1.0209880828857421
0.9001670837402344,1.0209880828857421
0.9019655227661132,1.0228488922119141
0.9019655227661132,1.0228488922119141
0.8996669769287109,1.0223333358764648
0.8996669769287109,1.0223333358764648
0.9010437011718749,1.0228792190551756
0.8996229171752930,1.0228792190551756
0.9012359619140624,1.0244842529296874
0.9012359619140624,1.0244842529296874
0.9011833190917968,1.0230943679809570
0.9011833190917968,1.0230943679809570
0.9024948120117187,1.0246994018554687
0.9024948120117187,1.0246994018554687
0.8999353408813476,1.0243474960327148
0.8999353408813476,1.0243474960327148
0.9022991180419921,1.0246158599853514
0.9022991180419921,1.0246158599853514
0.9023145675659179,1.0261739730834960
0.9023145675659179,1.0261739730834960
0.9017578125000000,1.0247205734252929
0.9017578125000000,1.0247205734252929
0.9026996612548828,1.0265018463134765
0.9026996612548828,1.0265018463134765
0.9012617111206054,1.0259508132934569
0.9012617111206054,1.0259508132934569
0.9030567169189453,1.0262454986572265
0.9030567169189453,1.0262454986572265
0.9026292800903319,1.0276582717895508
0.9026292800903319,1.0276582717895508
0.9018917083740234,1.0264537811279297
0.9018917083740234,1.0264537811279297
0.9039951324462890,1.0282052993774413
0.9039951324462890,1.0282052993774413
0.9021617889404296,1.0276124954223633
0.9021617889404296,1.0276124954223633
0.9036008834838867,1.0279735565185546
0.9036008834838867,1.0279735565185546
0.9029027938842773,1.0296638488769532
0.9029027938842773,1.0296638488769532
0.9033542633056640,1.0281040191650390
0.9033542633056640,1.0281040191650390
0.9048288345336913,1.0300003051757811
0.9048288345336913,1.0300003051757811
0.9026412963867188,1.0290933609008788
0.9026412963867188,1.0290933609008788
0.9040008544921875,1.0298515319824217
0.9040008544921875,1.0298515319824217
0.9042737960815429,1.0313764572143553
0.9060968399047851,1.0313764572143553
0.9043378829956055,1.0298824310302734
0.9043378829956055,1.0298824310302734
0.9055103302001952,1.0318084716796874
0.9055103302001952,1.0318084716796874
0.9029806137084960,1.0312225341796875
0.9029806137084960,1.0312225341796875
0.9052127838134765,1.0315767288208006
0.9052127838134765,1.0315767288208006
0.9052082061767578,1.0331520080566405
0.9052082061767578,1.0331520080566405
0.9047853469848632,1.0315298080444335
0.9047853469848632,1.0315298080444335
0.9057271957397460,1.0336721420288086
0.9057271957397460,1.0336721420288086
0.9041782379150390,1.0328327178955077
0.9041782379150390,1.0328327178955077
0.9061952590942383,1.0333471298217773
0.9061952590942383,1.0333471298217773
0.9057266235351562,1.0347736358642579
0.9057266235351562,1.0347736358642579
0.9050176620483398,1.0336046218872070
0.9050176620483398,1.0336046218872070
0.9069677352905273,1.0352325439453125
0.9069677352905273,1.0352325439453125
0.9051052093505859,1.0346717834472656
0.9051052093505859,1.0346717834472656
0.9067056655883788,1.0348159790039062
0.9067056655883788,1.0348159790039062
0.9060047149658202,1.0364330291748047
0.9060047149658202,1.0364330291748047
0.9063400268554687,1.0350082397460938
0.9063400268554687,1.0350082397460938
0.9080629348754883,1.0368942260742187
0.9080629348754883,1.0368942260742187
0.9056676864624023,1.0361818313598632
0.9056676864624023,1.0361818313598632
0.9069614410400391,1.0365240097045898
0.9069614410400391,1.0365240097045898
0.9072984695434569,1.0381227493286131
0.9072984695434569,1.0381227493286131
0.9070163726806640,1.0365280151367187
0.9070163726806640,1.0365280151367187
0.9082963943481445,1.0380546569824218
0.9082963943481445,1.0380546569824218
0.9057712554931641,1.0376340866088867
0.9057712554931641,1.0376340866088867
0.9080663681030273,1.0378978729248047
0.9080663681030273,1.0378978729248047
0.9081670761108398,1.0393558502197264
0.9081670761108398,1.0393558502197264
0.9075799942016601,1.0378028869628906
0.9075799942016601,1.0378028869628906
0.9085206985473633,1.0396751403808593
0.9085206985473633,1.0396751403808593
0.9068555831909180,1.0389095306396483
0.9068555831909180,1.0389095306396483
0.9087100982666015,1.0392425537109375
0.9087100982666015,1.0392425537109375
0.9083930969238281,1.0406358718872071
0.9083930969238281,1.0406358718872071
0.9076749801635742,1.0393941879272461
0.9076749801635742,1.0393941879272461
0.9095632553100585,1.0409082412719726
0.9095632553100585,1.0409082412719726
0.9077545166015625,1.0403474807739257
0.9077545166015625,1.0403474807739257
0.9092588424682617,1.0404911041259766
0.9092588424682617,1.0404911041259766
0.9084142684936523,1.0421293258666993
0.9084142684936523,1.0421293258666993
0.9087186813354492,1.0403394699096680
0.9087186813354492,1.0403394699096680
0.9102218627929687,1.0421756744384765
0.9102218627929687,1.0421756744384765
0.9080366134643554,1.0412830352783202
0.9080366134643554,1.0412830352783202
0.9092039108276366,1.0417184829711914
0.9092039108276366,1.0417184829711914
0.9095186233520507,1.0432302474975585
0.9095186233520507,1.0432302474975585
0.9095363616943359,1.0416852951049804
0.9095363616943359,1.0416852951049804
0.9106166839599609,1.0433801651000976
0.9106166839599609,1.0433801651000976
0.9080245971679687,1.0426992416381835
0.9080245971679687,1.0426992416381835
0.9102396011352538,1.0428457260131836
0.9102396011352538,1.0428457260131836
0.9101068496704101,1.0443626403808592
0.9101068496704101,1.0443626403808592
0.9097394943237305,1.0426654815673828
0.9097394943237305,1.0426654815673828
0.9105119705200195,1.0445709228515625
0.9105119705200195,1.0445709228515625
0.9091627120971679,1.0437435150146483
0.9091627120971679,1.0437435150146483
0.9110738754272460,1.0439678192138671
0.9110738754272460,1.0439678192138671
0.9105903625488281,1.0454538345336915
0.9112071990966797,1.0454538345336915
0.9096364974975586,1.0438556671142578
0.9096364974975586,1.0438556671142578
0.9116672515869140,1.0454652786254883
0.9116672515869140,1.0454652786254883
0.9096181869506835,1.0447774887084960
0.9096181869506835,1.0447774887084960
0.9111425399780273,1.0446990966796874
0.9111425399780273,1.0446990966796874
0.9104713439941405,1.0465221405029297
0.9104713439941405,1.0465221405029297
0.9106395721435546,1.0448055267333984
0.9106395721435546,1.0448055267333984
0.9123350143432617,1.0465496063232422
0.9123350143432617,1.0465496063232422
0.9098991394042968,1.0457542419433594
0.9098991394042968,1.0457542419433594
0.9110658645629882,1.0460031509399415
0.9110658645629882,1.0460031509399415
0.9114395141601562,1.0474948883056641
0.9114395141601562,1.0474948883056641
0.9110664367675780,1.0459075927734374
0.9110664367675780,1.0459075927734374
0.9124351501464844,1.0474113464355468
0.9124351501464844,1.0474113464355468
0.9098682403564453,1.0468883514404297
0.9098682403564453,1.0468883514404297
0.9120666503906250,1.0469432830810546
0.9120666503906250,1.0469432830810546
0.9121387481689452,1.0484727859497069
0.9121387481689452,1.0484727859497069
0.9114704132080078,1.0467115402221678
0.9114704132080078,1.0467115402221678
0.9123321533203125,1.0485202789306640
0.9123321533203125,1.0485202789306640
0.9107751846313477,1.0476831436157226
0.9107751846313477,1.0476831436157226
0.9125043869018554,1.0479692459106444
0.9125043869018554,1.0479692459106444
0.9123996734619140,1.0492303848266602
0.9123996734619140,1.0492303848266602
0.9112432479858398,1.0478879928588867
0.9112432479858398,1.0478879928588867
0.9134153366088866,1.0495021820068360
0.9134153366088866,1.0495021820068360
0.9115882873535156,1.0487628936767577
0.9115882873535156,1.0487628936767577
0.9128499984741211,1.0489694595336914
0.9128499984741211,1.0489694595336914
0.9121410369873046,1.0504451751708983
0.9121410369873046,1.0504451751708983
0.9122194290161132,1.0487726211547852
0.9122194290161132,1.0487726211547852
0.9138708114624023,1.0504961013793945
0.9138708114624023,1.0504961013793945
0.9116455078125000,1.0495330810546875
0.9116455078125000,1.0495330810546875
0.9127704620361328,1.0499891281127929
0.9127704620361328,1.0499891281127929
0.9131938934326171,1.0514133453369141
0.9131938934326171,1.0514133453369141
0.9129884719848632,1.0495988845825195
0.9129884719848632,1.0495988845825195
0.9141654968261719,1.0512783050537109
0.9141654968261719,1.0512783050537109
0.9114910125732422,1.0506620407104492
0.9114910125732422,1.0506620407104492
0.9136316299438476,1.0508892059326171
0.9136316299438476,1.0508892059326171
0.9137472152709960,1.0521989822387694
0.9137472152709960,1.0521989822387694
0.9130519866943358,1.0504817962646484
0.9130519866943358,1.0504817962646484
0.9139778137207031,1.0523923873901366
0.9139778137207031,1.0523923873901366
0.9124191284179687,1.0515747070312500
0.9124191284179687,1.0515747070312500
0.9143875122070312,1.0516267776489256
0.9143875122070312,1.0516267776489256
0.9139142990112304,1.0531076431274413
0.9139142990112304,1.0531076431274413
0.9130096435546875,1.0515626907348632
0.9130096435546875,1.0515626907348632
0.9149614334106445,1.0532541275024414
0.9149614334106445,1.0532541275024414
0.9129695892333984,1.0525337219238280
0.9129695892333984,1.0525337219238280
0.9143280029296874,1.0524478912353514
0.9143280029296874,1.0524478912353514
0.9138141632080078,1.0540815353393553
0.9138141632080078,1.0540815353393553
0.9139125823974609,1.0523803710937500
0.9139125823974609,1.0523803710937500
0.9156034469604492,1.0540328979492186
0.9156034469604492,1.0540328979492186
0.9132345199584960,1.0533302307128907
0.9132345199584960,1.0533302307128907
0.9142135620117187,1.0535327911376953
0.9142135620117187,1.0535327911376953
0.9148303985595703,1.0550251007080078
0.9148303985595703,1.0550251007080078
0.9143211364746093,1.0532100677490235
0.9143211364746093,1.0532100677490235
0.9156755447387694,1.0548116683959960
0.9156755447387694,1.0548116683959960
0.9130571365356445,1.0543058395385743
0.9154603958129882,1.0543058395385743
0.9152481079101562,1.0544815063476562
0.9152481079101562,1.0544815063476562
0.9158678054809570,1.0546583175659179
0.9143348693847656,1.0546583175659179
0.9144069671630859,1.0556447982788086
0.9162254333496094,1.0556447982788086
0.9149230957031249,1.0546119689941407
0.9137151718139648,1.0546119689941407
0.9172554016113281,1.0564264297485351
0.9156045913696289,1.0564264297485351
0.9143674850463867,1.0540237426757812
0.9158689498901367,1.0540237426757812
0.9161785125732421,1.0558399200439452
0.9147743225097655,1.0558399200439452
0.9148212432861328,1.0565219879150389
0.9165790557861327,1.0565219879150389
0.9162752151489257,1.0555349349975585
0.9142284393310547,1.0555349349975585
0.9163501739501952,1.0568098068237304
0.9157974243164062,1.0568098068237304
0.9147228240966796,1.0551933288574218
0.9162483215332031,1.0551933288574218
0.9164932250976562,1.0567640304565429
0.9150386810302734,1.0567640304565429
0.9163038253784179,1.0574535369873046
0.9169967651367187,1.0574535369873046
0.9156166076660156,1.0557443618774414
0.9143663406372070,1.0557443618774414
0.9167747497558594,1.0581098556518553
0.9161825180053711,1.0581098556518553
0.9150753021240234,1.0559823989868165
0.9164766311645507,1.0559823989868165
0.9179540634155273,1.0575473785400391
0.9156097412109374,1.0575473785400391
0.9155616760253906,1.0575565338134765
0.9173154830932617,1.0575565338134765
0.9158357620239257,1.0570158004760741
0.9146095275878906,1.0570158004760741
0.9170837402343750,1.0589040756225585
0.9165109634399413,1.0589040756225585
0.9164777755737304,1.0567159652709961
0.9169252395629882,1.0567159652709961
0.9170310974121093,1.0577905654907227
0.9157739639282226,1.0577905654907227
0.9158386230468749,1.0588022232055663
0.9175844192504883,1.0588022232055663
0.9162569046020508,1.0578002929687500
0.9150844573974609,1.0578002929687500
0.9184993743896483,1.0595626831054688
0.9169521331787109,1.0595626831054688
0.9158180236816406,1.0569780349731446
0.9171220779418945,1.0569780349731446
0.9174888610839843,1.0590637207031250
0.9160228729248047,1.0590637207031250
0.9161539077758789,1.0596725463867187
0.9178625106811523,1.0596725463867187
0.9176679611206054,1.0585201263427735
0.9154563903808594,1.0585201263427735
0.9177309036254883,1.0598476409912110
0.9170213699340820,1.0598476409912110
0.9160417556762694,1.0581722259521484
0.9173589706420898,1.0581722259521484
0.9176364898681640,1.0596874237060547
0.9162540435791016,1.0596874237060547
0.9176450729370117,1.0602424621582032
0.9184879302978515,1.0602424621582032
0.9169034957885742,1.0586574554443360
0.9156749725341796,1.0586574554443360
0.9179924011230468,1.0610046386718750
0.9174819946289062,1.0610046386718750
0.9162471771240234,1.0591375350952148
0.9177280426025390,1.0591375350952148
0.9192918777465819,1.0605794906616210
0.9167724609375000,1.0605794906616210
0.9168405532836914,1.0605222702026367
0.9185468673706054,1.0605222702026367
0.9171072006225586,1.0598831176757812
0.9159925460815429,1.0598831176757812
0.9183729171752929,1.0618835449218749
0.9177640914916991,1.0618835449218749
0.9178384780883788,1.0598596572875976
0.9183231353759765,1.0598596572875976
0.9183992385864257,1.0606836318969726
0.9168640136718750,1.0606836318969726
0.9170379638671875,1.0618108749389648
0.9186584472656250,1.0618108749389648
0.9174213409423828,1.0605789184570311
0.9162317276000976,1.0605789184570311
0.9197942733764648,1.0625381469726562
0.9179677963256836,1.0625381469726562
0.9168685913085937,1.0599243164062500
0.9184055328369141,1.0599243164062500
0.9186584472656250,1.0617256164550781
0.9172468185424805,1.0617256164550781
0.9172056198120117,1.0623287200927733
0.9190423965454101,1.0623287200927733
0.9188919067382812,1.0613908767700195
0.9168617248535156,1.0613908767700195
0.9189565658569335,1.0625862121582030
0.9182189941406249,1.0625862121582030
0.9171289443969726,1.0610452651977538
0.9187099456787109,1.0610452651977538
0.9188913345336913,1.0626302719116210
0.9173852920532226,1.0626302719116210
0.9187053680419921,1.0632207870483399
0.9194332122802734,1.0632207870483399
0.9180187225341796,1.0614480972290039
0.9168354034423828,1.0614480972290039
0.9192443847656250,1.0637758255004883
0.9186286926269531,1.0637758255004883
0.9174419403076172,1.0618515014648438
0.9190206527709961,1.0618515014648438
0.9202840805053710,1.0633598327636717
0.9180038452148437,1.0633598327636717
0.9179740905761719,1.0634296417236329
0.9196769714355468,1.0634296417236329
0.9182807922363281,1.0627126693725586
0.9172416687011719,1.0627126693725586
0.9195018768310547,1.0646781921386719
0.9188529968261718,1.0646781921386719
0.9189491271972656,1.0627172470092774
0.9192804336547851,1.0627172470092774
0.9194503784179687,1.0633506774902344
0.9180364608764648,1.0633506774902344
0.9182435989379882,1.0644962310791015
0.9199401855468750,1.0644962310791015
0.9185382843017578,1.0634799957275389
0.9175008773803710,1.0634799957275389
0.9209764480590820,1.0653041839599608
0.9193908691406250,1.0653041839599608
0.9182367324829102,1.0627916336059571
0.9195407867431640,1.0627916336059571
0.9197771072387695,1.0646570205688477
0.9184175491333008,1.0646570205688477
0.9185714721679688,1.0653345108032226
0.9203006744384765,1.0653345108032226
0.9200906753540039,1.0641466140747069
0.9178813934326171,1.0641466140747069
0.9201387405395507,1.0655187606811523
0.9194778442382812,1.0655187606811523
0.9183969497680664,1.0639005661010741
0.9199041366577148,1.0639005661010741
0.9200546264648437,1.0652400970458984
0.9185577392578125,1.0652400970458984
0.9200283050537109,1.0660034179687499
0.9206897735595703,1.0660034179687499
0.9191202163696288,1.0641883850097655
0.9179357528686523,1.0641883850097655
0.9203258514404297,1.0666528701782225
0.9195688247680663,1.0666528701782225
0.9186075210571288,1.0645837783813477
0.9200008392333984,1.0645837783813477
0.9214319229125976,1.0660440444946289
0.9189874649047851,1.0660440444946289
0.9191946029663085,1.0662105560302735
0.9207979202270508,1.0662105560302735
0.9194795608520507,1.0654237747192383
0.9183900833129882,1.0654237747192383
0.9206033706665039,1.0673315048217773
0.9199842453002929,1.0673315048217773
0.9201879501342773,1.0653007507324219
0.9207035064697265,1.0653007507324219
0.9206851959228515,1.0660537719726562
0.9192129135131836,1.0660537719726562
0.9194314956665038,1.0673292160034180
0.9211063385009766,1.0673292160034180
0.9197170257568359,1.0661979675292967
0.9185680389404296,1.0661979675292967
0.9220373153686523,1.0680484771728516
0.9203802108764648,1.0680484771728516
0.9191911697387695,1.0654666900634766
0.9207670211791992,1.0654666900634766
0.9209106445312499,1.0672863006591797
0.9194709777832031,1.0672863006591797
0.9196695327758788,1.0678831100463866
0.9213140487670898,1.0678831100463866
0.9211246490478515,1.0667627334594727
0.9191396713256835,1.0667627334594727
0.9212711334228515,1.0681686401367188
0.9204889297485351,1.0681686401367188
0.9194183349609375,1.0666208267211914
0.9210302352905273,1.0666208267211914
0.9210725784301758,1.0678693771362304
0.9196741104125976,1.0678693771362304
0.9211320877075195,1.0685771942138671
0.9217014312744141,1.0685771942138671
0.9202474594116210,1.0667306900024414
0.9191373825073241,1.0667306900024414
0.9213758468627929,1.0692129135131836
0.9207664489746094,1.0692129135131836
0.9196151733398437,1.0671936035156249
0.9211057662963866,1.0671936035156249
0.9225322723388671,1.0685640335083006
0.9201782226562499,1.0685640335083006
0.9200906753540039,1.0686618804931640
0.9217380523681640,1.0686618804931640
0.9204477310180663,1.0679300308227540
0.9193456649780273,1.0679300308227540
0.9217105865478515,1.0699150085449218
0.9208654403686523,1.0699150085449218
0.9211069107055664,1.0678951263427734
0.9215263366699218,1.0678951263427734
0.9216156005859375,1.0685926437377928
0.9200820922851562,1.0685926437377928
0.9204769134521484,1.0696718215942382
0.9220499038696288,1.0696718215942382
0.9207532882690429,1.0685543060302733
0.9195425033569335,1.0685543060302733
0.9231336593627929,1.0704202651977539
0.9216310501098632,1.0704202651977539
0.9202966690063477,1.0679815292358399
0.9216911315917968,1.0679815292358399
0.9217655181884765,1.0697084426879881
0.9203870773315429,1.0697084426879881
0.9207120895385742,1.0703321456909178
0.9222204208374023,1.0703321456909178
0.9220733642578125,1.0691837310791015
0.9198045730590820,1.0691837310791015
0.9221569061279297,1.0704574584960938
0.9213964462280273,1.0704574584960938
0.9203435897827148,1.0689153671264648
0.9218891143798827,1.0689153671264648
0.9220281600952148,1.0701787948608399
0.9204975128173828,1.0701787948608399
0.9220481872558594,1.0709838867187500
0.9227554321289062,1.0709838867187500
0.9211744308471679,1.0690990447998046
0.9200197219848633,1.0690990447998046
0.9222839355468749,1.0715635299682618
0.9216293334960937,1.0715635299682618
0.9206617355346679,1.0696889877319335
0.9220756530761718,1.0696889877319335
0.9233556747436523,1.0707990646362304
0.9209003448486328,1.0707990646362304
0.9210943222045898,1.0709083557128907
0.9227193832397460,1.0709083557128907
0.9212408065795898,1.0701816558837891
0.9202354431152343,1.0701816558837891
0.9226409912109375,1.0721385955810547
0.9219160079956055,1.0721385955810547
0.9219766616821289,1.0701187133789063
0.9227708816528319,1.0701187133789063
0.9224922180175781,1.0707595825195313
0.9209209442138672,1.0707595825195313
0.9214336395263671,1.0719514846801756
0.9229454040527343,1.0719514846801756
0.9216230392456054,1.0708694458007812
0.9205146789550781,1.0708694458007812
0.9239273071289062,1.0726644515991210
0.9221998214721679,1.0726644515991210
0.9210319519042969,1.0702554702758789
0.9226987838745117,1.0702554702758789
0.9227920532226562,1.0720304489135741
0.9212488174438476,1.0720304489135741
0.9215972900390624,1.0727016448974609
0.9231130599975585,1.0727016448974609
0.9229488372802734,1.0714633941650391
0.9210044860839843,1.0714633941650391
0.9230936050415038,1.0728498458862303
0.9224132537841796,1.0728498458862303
0.9213317871093749,1.0712854385375976
0.9228630065917969,1.0712854385375976
0.9228681564331054,1.0725317001342773
0.9213712692260742,1.0725317001342773
0.9228933334350585,1.0733413696289062
0.9235101699829101,1.0733413696289062
0.9221031188964843,1.0714147567749024
0.9210199356079101,1.0714147567749024
0.9232847213745117,1.0737974166870117
0.9225803375244140,1.0737974166870117
0.9215703964233398,1.0718084335327147
0.9229602813720703,1.0718084335327147
0.9243564605712891,1.0731422424316406
0.9219577789306640,1.0731422424316406
0.9220098495483398,1.0733076095581053
0.9236995697021484,1.0733076095581053
0.9222696304321288,1.0723531723022461
0.9211023330688476,1.0723531723022461
0.9234477996826171,1.0743759155273438
0.9226369857788086,1.0743759155273438
0.9229459762573242,1.0724138259887694
0.9234317779541015,1.0724138259887694
0.9233493804931641,1.0730855941772461
0.9219257354736328,1.0730855941772461
0.9222209930419921,1.0741813659667969
0.9237739562988281,1.0741813659667969
0.9224750518798828,1.0729110717773438
0.9211812973022461,1.0729110717773438
0.9248273849487304,1.0750797271728516
0.9232784271240234,1.0750797271728516
0.9218244552612305,1.0723623275756835
0.9234918594360351,1.0723623275756835
0.9234849929809570,1.0741315841674803
0.9221563339233398,1.0741315841674803
0.9224590301513671,1.0750270843505858
0.9239135742187500,1.0750270843505858
0.9238580703735351,1.0735084533691406
0.9216745376586913,1.0735084533691406
0.9239301681518555,1.0750562667846679
0.9231445312500000,1.0750562667846679
0.9222021102905273,1.0734128952026367
0.9236532211303711,1.0734128952026367
0.9236045837402344,1.0746305465698243
0.9222610473632812,1.0746305465698243
0.9237762451171875,1.0754865646362304
0.9245052337646484,1.0754865646362304
0.9228000640869141,1.0735616683959961
0.9218376159667968,1.0735616683959961
0.9241333007812500,1.0760713577270506
0.9233808517456055,1.0760713577270506
0.9222993850708008,1.0739776611328125
0.9238277435302734,1.0739776611328125
0.9250362396240234,1.0751924514770508
0.9225030899047851,1.0751924514770508
0.9227640151977539,1.0754762649536131
0.9244897842407226,1.0754762649536131
0.9231176376342773,1.0745990753173829
0.9220195770263672,1.0745990753173829
0.9242980957031249,1.0764993667602538
0.9235010147094727,1.0764993667602538
0.9238225936889648,1.0745859146118164
0.9243656158447265,1.0745859146118164
0.9241321563720702,1.0751409530639648
0.9226919174194336,1.0751409530639648
0.9231067657470703,1.0764198303222656
0.9245561599731444,1.0764198303222656
0.9231903076171875,1.0751043319702147
0.9221700668334960,1.0751043319702147
0.9255540847778320,1.0771608352661133
0.9237808227539062,1.0771608352661133
0.9227668762207031,1.0745338439941405
0.9242380142211913,1.0745338439941405
0.9241561889648438,1.0762424468994141
0.9227519989013672,1.0762424468994141
0.9232286453247069,1.0769199371337890
0.9246717453002929,1.0769199371337890
0.9245681762695312,1.0756553649902343
0.9225809097290039,1.0756553649902343
0.9245521545410156,1.0769348144531250
0.9239381790161132,1.0769348144531250
0.9228967666625976,1.0754711151123046
0.9246082305908203,1.0754711151123046
0.9244216918945312,1.0767007827758788
0.9230878829956054,1.0767007827758788
0.9246786117553710,1.0774990081787108
0.9251724243164062,1.0774990081787108
0.9237590789794922,1.0755821228027342
0.9225843429565429,1.0755821228027342
0.9248794555664062,1.0780494689941407
0.9241910934448242,1.0780494689941407
0.9231296539306640,1.0761125564575196
0.9246786117553710,1.0761125564575196
0.9258024215698242,1.0772260665893554
0.9234609603881836,1.0772260665893554
0.9236520767211913,1.0773742675781250
0.9251895904541015,1.0773742675781250
0.9238872528076172,1.0764925003051757
0.9227634429931640,1.0764925003051757
0.9250196456909179,1.0784734725952148
0.9243255615234375,1.0784734725952148
0.9243661880493164,1.0765680313110351
0.9248388290405273,1.0765680313110351
0.9249126434326171,1.0772895812988281
0.9234386444091797,1.0772895812988281
0.9239130020141602,1.0783412933349610
0.9253995895385742,1.0783412933349610
0.9240577697753906,1.0771551132202148
0.9229373931884766,1.0771551132202148
0.9265703201293944,1.0791584014892577
0.9248622894287108,1.0791584014892577
0.9236709594726562,1.0766584396362304
0.9250139236450194,1.0766584396362304
0.9250808715820312,1.0781181335449219
0.9235788345336914,1.0781181335449219
0.9240423202514648,1.0791223526000977
0.9255970001220702,1.0791223526000977
0.9253646850585937,1.0777553558349608
0.9231834411621094,1.0777553558349608
0.9254899978637695,1.0791309356689454
0.9246774673461914,1.0791309356689454
0.9237951278686523,1.0776683807373046
0.9253114700317382,1.0776683807373046
0.9252925872802734,1.0786886215209961
0.9237110137939453,1.0786886215209961
0.9253063201904297,1.0796390533447264
0.9260547637939452,1.0796390533447264
0.9244262695312500,1.0775699615478516
0.9233562469482421,1.0775699615478516
0.9256267547607422,1.0801139831542967
0.9249252319335937,1.0801139831542967
0.9239725112915038,1.0781833648681640
0.9254997253417968,1.0781833648681640
0.9265474319458007,1.0792716979980468
0.9239484786987304,1.0792716979980468
0.9243570327758789,1.0795240402221680
0.9259471893310547,1.0795240402221680
0.9245721817016601,1.0786125183105468
0.9236354827880859,1.0786125183105468
0.9258144378662109,1.0805940628051758
0.9250991821289062,1.0805940628051758
0.9253108978271484,1.0786794662475585
0.9260559082031250,1.0786794662475585
0.9256473541259765,1.0792968750000000
0.9242414474487304,1.0792968750000000
0.9246179580688476,1.0806335449218749
0.9262247085571289,1.0806335449218749
0.9247821807861327,1.0791875839233398
0.9236040115356445,1.0791875839233398
0.9253944396972655,1.0797752380371093
0.9254516601562499,1.0810501098632812
0.9254516601562499,1.0810501098632812
0.9239072799682617,1.0792070388793944
0.9239072799682617,1.0792070388793944
0.9262258529663085,1.0808572769165039
0.9262258529663085,1.0808572769165039
0.9244422912597656,1.0802724838256836
0.9244422912597656,1.0802724838256836
0.9254854202270507,1.0802124023437500
0.9254854202270507,1.0802124023437500
0.9249790191650390,1.0816698074340820
0.9249790191650390,1.0816698074340820
0.9248886108398438,1.0796339035034179
0.9248886108398438,1.0796339035034179
0.9265817642211913,1.0812349319458008
0.9265817642211913,1.0812349319458008
0.9242425918579101,1.0807382583618164
0.9242425918579101,1.0807382583618164
0.9248931884765624,1.0808429718017578
0.9248931884765624,1.0808429718017578
0.9258636474609374,1.0822139739990233
0.9258636474609374,1.0822139739990233
0.9251752853393554,1.0800121307373047
0.9251752853393554,1.0800121307373047
0.9265691757202148,1.0818803787231446
0.9265691757202148,1.0818803787231446
0.9236812591552734,1.0815319061279296
0.9236812591552734,1.0815319061279296
0.9258104324340820,1.0812583923339842
0.9258104324340820,1.0812583923339842
0.9260816574096680,1.0825429916381835
0.9260816574096680,1.0825429916381835
0.9251804351806641,1.0803228378295897
0.9251804351806641,1.0803228378295897
0.9260604858398437,1.0823633193969726
0.9260604858398437,1.0823633193969726
0.9245819091796874,1.0818517684936524
0.9245819091796874,1.0818517684936524
0.9263179779052734,1.0817693710327148
0.9263179779052734,1.0817693710327148
0.9262607574462890,1.0831043243408203
0.9262607574462890,1.0831043243408203
0.9246248245239257,1.0810689926147461
0.9246248245239257,1.0810689926147461
0.9270538330078124,1.0828634262084960
0.9270538330078124,1.0828634262084960
0.9249744415283203,1.0824262619018554
0.9249744415283203,1.0824262619018554
0.9261806488037109,1.0821115493774414
0.9261806488037109,1.0821115493774414
0.9257503509521484,1.0837429046630860
0.9257503509521484,1.0837429046630860
0.9256135940551757,1.0816217422485350
0.9256135940551757,1.0816217422485350
0.9274652481079101,1.0834110260009766
0.9274652481079101,1.0834110260009766
0.9250150680541992,1.0827798843383789
0.9274423599243163,1.0827798843383789
0.9257480621337890,1.0828239440917968
0.9257480621337890,1.0828239440917968
0.9267282485961914,1.0841131210327148
0.9267282485961914,1.0841131210327148
0.9258533477783203,1.0819507598876952
0.9258533477783203,1.0819507598876952
0.9272970199584960,1.0836685180664063
0.9272970199584960,1.0836685180664063
0.9245607376098632,1.0835186004638671
0.9245607376098632,1.0835186004638671
0.9267116546630859,1.0832118988037109
0.9267116546630859,1.0832118988037109
0.9272129058837890,1.0845634460449218
0.9272129058837890,1.0845634460449218
0.9258934020996094,1.0824405670166015
0.9258934020996094,1.0824405670166015
0.9268323898315429,1.0843368530273436
0.9268323898315429,1.0843368530273436
0.9255191802978515,1.0838401794433594
0.9255191802978515,1.0838401794433594
0.9268140792846680,1.0837102890014647
0.9268140792846680,1.0837102890014647
0.9269439697265625,1.0848255157470703
0.9269439697265625,1.0848255157470703
0.9253555297851562,1.0830356597900390
0.9253555297851562,1.0830356597900390
0.9276311874389648,1.0846767425537109
0.9276311874389648,1.0846767425537109
0.9257961273193359,1.0843345642089843
0.9257961273193359,1.0843345642089843
0.9268804550170898,1.0841691970825196
0.9268804550170898,1.0841691970825196
0.9265188217163085,1.0856111526489258
0.9265188217163085,1.0856111526489258
0.9263099670410155,1.0833801269531249
0.9263099670410155,1.0833801269531249
0.9279928207397461,1.0850927352905273
0.9279928207397461,1.0850927352905273
0.9256999969482421,1.0846155166625977
0.9256999969482421,1.0846155166625977
0.9263780593872070,1.0845657348632811
0.9251089096069336,1.0845657348632811
0.9274143218994140,1.0859756469726562
0.9274143218994140,1.0859756469726562
0.9268295288085937,1.0839494705200194
0.9268295288085937,1.0839494705200194
0.9279848098754883,1.0855911254882813
0.9279848098754883,1.0855911254882813
0.9252061843872070,1.0854091644287109
0.9252061843872070,1.0854091644287109
0.9273353576660156,1.0851991653442383
0.9273353576660156,1.0851991653442383
0.9275093078613281,1.0865861892700195
0.9275093078613281,1.0865861892700195
0.9264816284179687,1.0840553283691405
0.9264816284179687,1.0840553283691405
0.9275115966796874,1.0861324310302733
0.9275115966796874,1.0861324310302733
0.9261503219604492,1.0858303070068358
0.9261503219604492,1.0858303070068358
0.9278560638427734,1.0855298995971678
0.9278560638427734,1.0855298995971678
0.9277519226074218,1.0868648529052733
0.9277519226074218,1.0868648529052733
0.9259620666503906,1.0849296569824218
0.9259620666503906,1.0849296569824218
0.9284551620483398,1.0864786148071288
0.9284551620483398,1.0864786148071288
0.9264781951904296,1.0862457275390625
0.9264781951904296,1.0862457275390625
0.9276025772094726,1.0858325958251953
0.9276025772094726,1.0858325958251953
0.9271081924438476,1.0873317718505859
0.9271081924438476,1.0873317718505859
0.9270114898681641,1.0853548049926758
0.9270114898681641,1.0853548049926758
0.9289581298828125,1.0870107650756835
0.9289581298828125,1.0870107650756835
0.9264593124389648,1.0866668701171875
0.9264593124389648,1.0866668701171875
0.9271345138549805,1.0864454269409178
0.9271345138549805,1.0864454269409178
0.9281272888183594,1.0877941131591797
0.9281272888183594,1.0877941131591797
0.9270790100097656,1.0856712341308594
0.9270790100097656,1.0856712341308594
0.9287870407104492,1.0872459411621094
0.9287870407104492,1.0872459411621094
0.9258132934570312,1.0871309280395507
0.9258132934570312,1.0871309280395507
0.9279699325561523,1.0869083404541016
0.9279699325561523,1.0869083404541016
0.9284631729125976,1.0883222579956053
0.9284631729125976,1.0883222579956053
0.9271831512451172,1.0862096786499023
0.9271831512451172,1.0862096786499023
0.9281919479370117,1.0880516052246094
0.9281919479370117,1.0880516052246094
0.9268203735351562,1.0875022888183594
0.9268203735351562,1.0875022888183594
0.9281879425048828,1.0874696731567381
0.9281879425048828,1.0874696731567381
0.9284168243408203,1.0886301040649413
0.9284168243408203,1.0886301040649413
0.9266515731811523,1.0867275238037108
0.9266515731811523,1.0867275238037108
0.9291709899902343,1.0883983612060546
0.9291709899902343,1.0883983612060546
0.9273050308227538,1.0880567550659179
0.9273050308227538,1.0880567550659179
0.9282222747802734,1.0877843856811522
0.9282222747802734,1.0877843856811522
0.9278503417968750,1.0891902923583985
0.9278503417968750,1.0891902923583985
0.9276580810546875,1.0870971679687500
0.9276580810546875,1.0870971679687500
0.9293844223022460,1.0888383865356446
0.9293844223022460,1.0888383865356446
0.9269805908203125,1.0883754730224608
0.9269805908203125,1.0883754730224608
0.9277788162231445,1.0883846282958984
0.9277788162231445,1.0883846282958984
0.9287864685058593,1.0895599365234374
0.9287864685058593,1.0895599365234374
0.9279762268066406,1.0875921249389648
0.9279762268066406,1.0875921249389648
0.9293437957763672,1.0891920089721678
0.9293437957763672,1.0891920089721678
0.9264856338500976,1.0890026092529297
0.9264856338500976,1.0890026092529297
0.9285982131958007,1.0886003494262695
0.9285982131958007,1.0886003494262695
0.9289798736572266,1.0901109695434570
0.9292139053344726,1.0884744644165039
0.9292139053344726,1.0870708465576171
0.9283098220825194,1.0898975372314452
0.9296762466430664,1.0898975372314452
0.9282211303710937,1.0884189605712891
0.9271413803100585,1.0884189605712891
0.9307754516601562,1.0904577255249024
0.9291315078735352,1.0904577255249024
0.9278606414794921,1.0882015228271484
0.9295022964477538,1.0882015228271484
0.9294153213500976,1.0894763946533204
0.9277725219726562,1.0894763946533204
0.9282096862792968,1.0903816223144531
0.9298576354980468,1.0903816223144531
0.9295291900634766,1.0889362335205077
0.9275894165039062,1.0889362335205077
0.9297998428344726,1.0903175354003907
0.9289924621582031,1.0903175354003907
0.9280448913574219,1.0890014648437500
0.9297494888305664,1.0890014648437500
0.9295257568359374,1.0899684906005860
0.9279235839843749,1.0899684906005860
0.9296894073486328,1.0909120559692382
0.9302433013916015,1.0909120559692382
0.9286834716796875,1.0888481140136719
0.9276443481445312,1.0888481140136719
0.9299097061157227,1.0912273406982422
0.9291475296020507,1.0912273406982422
0.9280803680419921,1.0894706726074219
0.9298564910888671,1.0894706726074219
0.9307405471801757,1.0902751922607421
0.9281633377075195,1.0902751922607421
0.9285959243774413,1.0908193588256836
0.9300807952880858,1.0908193588256836
0.9288665771484375,1.0895742416381835
0.9276552200317383,1.0895742416381835
0.9300315856933593,1.0916198730468749
0.9292407989501953,1.0916198730468749
0.9294359207153320,1.0899547576904296
0.9303537368774414,1.0899547576904296
0.9298971176147460,1.0902740478515625
0.9282577514648437,1.0902740478515625
0.9288820266723632,1.0917377471923828
0.9303995132446289,1.0917377471923828
0.9289724349975585,1.0901681900024414
0.9279767990112304,1.0901681900024414
0.9313756942749023,1.0921600341796875
0.9294382095336914,1.0921600341796875
0.9285781860351562,1.0898918151855468
0.9302066802978515,1.0898918151855468
0.9299989700317383,1.0910264968872070
0.9284563064575195,1.0910264968872070
0.9289976119995117,1.0921199798583985
0.9303325653076171,1.0921199798583985
0.9301786422729492,1.0905115127563476
0.9284053802490234,1.0905115127563476
0.9303222656250000,1.0918865203857422
0.9294816970825195,1.0918865203857422
0.9287235260009765,1.0907386779785155
0.9303211212158202,1.0907386779785155
0.9300933837890625,1.0915878295898438
0.9285324096679687,1.0915878295898438
0.9303731918334961,1.0925325393676757
0.9306089401245117,1.0925325393676757
0.9293025970458983,1.0905075073242188
0.9281879425048828,1.0905075073242188
0.9306009292602538,1.0929244995117187
0.9296527862548828,1.0929244995117187
0.9288642883300781,1.0912296295166015
0.9304561614990234,1.0912296295166015
0.9314037322998047,1.0920227050781250
0.9289598464965820,1.0920227050781250
0.9293724060058594,1.0924804687500000
0.9307851791381836,1.0924804687500000
0.9294033050537109,1.0912788391113282
0.9283132553100586,1.0912788391113282
0.9306661605834960,1.0933925628662109
0.9296825408935546,1.0933925628662109
0.9300401687622070,1.0917114257812499
0.9306438446044921,1.0917114257812499
0.9305007934570312,1.0918447494506835
0.9289455413818359,1.0918447494506835
0.9294754028320312,1.0933450698852538
0.9309219360351562,1.0933450698852538
0.9294897079467773,1.0919122695922852
0.9285570144653320,1.0919122695922852
0.9319931030273437,1.0938131332397460
0.9302238464355468,1.0938131332397460
0.9291944503784180,1.0915975570678711
0.9308223724365234,1.0915975570678711
0.9306381225585937,1.0927179336547852
0.9289804458618164,1.0927179336547852
0.9296396255493163,1.0938674926757812
0.9310249328613280,1.0938674926757812
0.9308155059814452,1.0922996520996093
0.9286657333374023,1.0922996520996093
0.9310277938842773,1.0937404632568359
0.9301643371582031,1.0937404632568359
0.9292602539062500,1.0924209594726562
0.9309591293334960,1.0924209594726562
0.9307085037231445,1.0931127548217774
0.9289741516113281,1.0931127548217774
0.9309659957885742,1.0942554473876953
0.9314483642578124,1.0942554473876953
0.9298158645629883,1.0920616149902342
0.9288516998291015,1.0920616149902342
0.9311971664428711,1.0945123672485351
0.9304252624511719,1.0945123672485351
0.9293020248413085,1.0927963256835938
0.9310632705688476,1.0927963256835938
0.9320188522338867,1.0937364578247071
0.9293626785278319,1.0937364578247071
0.9299400329589843,1.0942394256591796
0.9313516616821289,1.0942394256591796
0.9299291610717773,1.0929965972900391
0.9288488388061523,1.0929965972900391
0.9311330795288085,1.0949712753295897
0.9303050994873047,1.0949712753295897
0.9305780410766601,1.0933673858642579
0.9315113067626952,1.0933673858642579
0.9310535430908202,1.0935247421264649
0.9293134689331054,1.0935247421264649
0.9300378799438476,1.0950588226318358
0.9315021514892577,1.0950588226318358
0.9300779342651366,1.0935430526733398
0.9290130615234374,1.0935430526733398
0.9326122283935546,1.0954547882080077
0.9306175231933593,1.0954547882080077
0.9296974182128905,1.0932151794433593
0.9312549591064453,1.0932151794433593
0.9311822891235351,1.0943807601928710
0.9295824050903320,1.0943807601928710
0.9301975250244140,1.0954679489135741
0.9314592361450195,1.0954679489135741
0.9313270568847656,1.0939968109130860
0.9295291900634766,1.0939968109130860
0.9315216064453125,1.0953454971313477
0.9307703018188476,1.0953454971313477
0.9298645019531250,1.0940282821655274
0.9315507888793945,1.0940282821655274
0.9312080383300780,1.0947103500366211
0.9296613693237304,1.0947103500366211
0.9315027236938476,1.0959686279296874
0.9317161560058593,1.0959686279296874
0.9304538726806640,1.0937135696411133
0.9293901443481445,1.0937135696411133
0.9317802429199218,1.0960876464843750
0.9308984756469726,1.0960876464843750
0.9299892425537108,1.0945781707763671
0.9316778182983398,1.0945781707763671
0.9324314117431640,1.0953386306762696
0.9301305770874023,1.0953386306762696
0.9305231094360351,1.0958084106445312
0.9318580627441406,1.0958084106445312
0.9305139541625976,1.0946050643920897
0.9295612335205078,1.0946050643920897
0.9318283081054687,1.0966129302978516
0.9309762954711913,1.0966129302978516
0.9312458038330078,1.0949855804443358
0.9318763732910156,1.0949855804443358
0.9315782546997070,1.0951246261596679
0.9299388885498047,1.0951246261596679
0.9305957794189452,1.0966094970703124
0.9319993972778320,1.0966094970703124
0.9305860519409179,1.0949895858764649
0.9295749664306641,1.0949895858764649
