REDsignal,IRsignal
0.3274211883544922,0.4013179779052734
0.3212579727172851,0.4013179779052734
0.3218988418579101,0.4048089981079102
0.3278228759765625,0.4048089981079102
0.3244308471679687,0.3981250762939453
0.3212745666503906,0.3981250762939453
0.3266378402709961,0.4043512344360352
0.3240737915039062,0.4043512344360352
0.3227342605590820,0.3967403411865234
0.3280529022216797,0.3967403411865234
0.3283824920654297,0.4063030242919922
0.3224538803100586,0.4063030242919922
0.3230072021484375,0.4034643173217773
0.3287235260009765,0.4034643173217773
0.3255987167358398,0.4001260757446289
0.3224658966064453,0.4001260757446289
0.3283876419067382,0.4063556671142578
0.3259134292602539,0.4063556671142578
0.3241922378540039,0.4028480529785156
0.3298130035400391,0.4028480529785156
0.3300390243530273,0.4059402465820313
0.3239238739013672,0.4059402465820313
0.3241716384887695,0.4062480926513672
0.3300458908081055,0.4062480926513672
0.3234529495239258,0.4039203643798828
0.3320966720581054,0.4039203643798828
0.3299800872802734,0.4063659667968750
0.3299800872802734,0.4063659667968750
0.3274372100830078,0.4097923278808593
0.3274372100830078,0.4097923278808593
0.3266035079956054,0.3990715026855469
0.3280826568603515,0.3990715026855469
0.3320251464843750,0.4108463287353515
0.3320251464843750,0.4108463287353515
0.3249223709106445,0.4065885543823242
0.3249223709106445,0.4065885543823242
0.3302089691162109,0.4076642990112305
0.3302089691162109,0.4076642990112305
0.3295864105224609,0.4065364837646484
0.3295864105224609,0.4065364837646484
0.3276346206665039,0.4065319061279297
0.3287183761596680,0.4065319061279297
0.3324239730834961,0.4116233825683593
0.3324239730834961,0.4116233825683593
0.3218278884887695,0.4017454147338867
0.3218278884887695,0.4017454147338867
0.3264038085937500,0.3928361892700195
0.3264038085937500,0.3928361892700195
0.3225849151611328,0.3989524841308594
0.3225849151611328,0.3989524841308594
0.3190452575683594,0.3910589218139648
0.3190452575683594,0.3910589218139648
0.3222936630249023,0.3948841094970703
0.3222936630249023,0.3948841094970703
0.3151903152465820,0.3837472915649414
0.3151903152465820,0.3837472915649414
0.3211315155029297,0.3897983551025391
0.3211315155029297,0.3897983551025391
0.3194498062133789,0.3948698043823242
0.3194498062133789,0.3948698043823242
0.3162940979003906,0.3882642745971679
0.3162940979003906,0.3882642745971679
0.3225711822509765,0.3885807037353515
0.3225711822509765,0.3885807037353515
0.3153602600097656,0.3895952224731445
0.3153602600097656,0.3895952224731445
0.3218107223510742,0.3912700653076172
0.3218107223510742,0.3912700653076172
0.3193307876586914,0.3956691741943359
0.3193307876586914,0.3956691741943359
0.3186676025390625,0.3854953765869141
0.3186676025390625,0.3854953765869141
0.3243146896362304,0.3974206924438476
0.3243146896362304,0.3974206924438476
0.3175735473632812,0.3944211959838867
0.3175735473632812,0.3944211959838867
0.3231433868408203,0.3950420379638672
0.3231433868408203,0.3950420379638672
0.3225460052490234,0.3942180633544922
0.3225460052490234,0.3942180633544922
0.3211675643920898,0.3949207305908203
0.3211675643920898,0.3949207305908203
0.3266361236572266,0.4010702133178711
0.3266361236572266,0.4010702133178711
0.3183448791503906,0.3962385177612305
0.3183448791503906,0.3962385177612305
0.3255151748657226,0.3918090820312500
0.3255151748657226,0.3918090820312500
0.3238225936889648,0.4016893386840820
0.3238225936889648,0.4016893386840820
0.3221248626708984,0.3976444244384765
0.3221248626708984,0.3976444244384765
0.3263832092285156,0.4019433975219727
0.3263832092285156,0.4019433975219727
0.3200426101684570,0.3918039321899414
0.3200426101684570,0.3918039321899414
0.3263374328613281,0.3986028671264648
0.3263374328613281,0.3986028671264648
0.3246786117553711,0.4031782150268555
0.3246786117553711,0.4031782150268555
0.3221437454223633,0.3979139328002930
0.3221437454223633,0.3979139328002930
0.3283767700195312,0.3982749938964844
0.3283767700195312,0.3982749938964844
0.3213432312011719,0.3994182586669922
0.3213432312011719,0.3994182586669922
0.3279281616210937,0.4018552780151367
0.3279281616210937,0.4018552780151367
0.3251295089721680,0.4051975250244140
0.3251295089721680,0.4051975250244140
0.3244033813476562,0.3945058822631836
0.3256650924682617,0.3945058822631836
0.3297449111938476,0.4058584213256836
0.3245985031127930,0.4058584213256836
0.3226644515991211,0.4016458511352539
0.3226644515991211,0.4016458511352539
0.3278823852539062,0.4026815414428711
0.3278823852539062,0.4026815414428711
0.3270137786865234,0.4015817642211914
0.3270137786865234,0.4015817642211914
0.3255065917968750,0.4024766921997070
0.3267465591430664,0.4024766921997070
0.3312458038330078,0.4094587326049804
0.3312458038330078,0.4094587326049804
0.3231365203857422,0.4042888641357422
0.3231365203857422,0.4042888641357422
0.3305477142333984,0.4000654220581055
0.3305477142333984,0.4000654220581055
0.3287899017333984,0.4102020263671875
0.3287899017333984,0.4102020263671875
0.3268592834472656,0.4040702819824218
0.3268592834472656,0.4040702819824218
0.3294078826904297,0.4059024810791015
0.3294078826904297,0.4059024810791015
0.3206176757812500,0.3913604736328125
0.3206176757812500,0.3913604736328125
0.3243135452270507,0.3938924789428711
0.3243135452270507,0.3938924789428711
0.3204711914062500,0.3958362579345703
0.3204711914062500,0.3958362579345703
0.3162849426269531,0.3872932434082031
0.3169744491577148,0.3872932434082031
0.3216819763183594,0.3859422683715820
0.3216819763183594,0.3859422683715820
0.3139583587646484,0.3859170913696289
0.3139583587646484,0.3859170913696289
0.3199127197265625,0.3865573883056641
0.3147371292114258,0.3865573883056641
0.3165916442871093,0.3899940490722656
0.3165916442871093,0.3899940490722656
0.3157052993774414,0.3791130065917969
0.3157052993774414,0.3791130065917969
0.3209289550781250,0.3899253845214843
0.3209289550781250,0.3899253845214843
0.3137123107910156,0.3864280700683594
0.3137123107910156,0.3864280700683594
0.3188913345336914,0.3864521026611328
0.3188913345336914,0.3864521026611328
0.3177452087402344,0.3851549148559570
0.3177452087402344,0.3851549148559570
0.3165138244628906,0.3860893249511719
0.3165138244628906,0.3860893249511719
0.3221477508544922,0.3922571182250976
0.3221477508544922,0.3922571182250976
0.3141328811645508,0.3879821777343750
0.3141328811645508,0.3879821777343750
0.3214988708496094,0.3840654373168945
0.3214988708496094,0.3840654373168945
0.3196678161621094,0.3943090438842773
0.3196678161621094,0.3943090438842773
0.3185508728027344,0.3906085968017578
0.3185508728027344,0.3906085968017578
0.3229007720947266,0.3952898025512695
0.3229007720947266,0.3952898025512695
0.3166334152221680,0.3851383209228516
0.3166334152221680,0.3851383209228516
0.3230518341064453,0.3920122146606445
0.3230518341064453,0.3920122146606445
0.3209558486938476,0.3963294982910156
0.3209558486938476,0.3963294982910156
0.3183815002441406,0.3909690856933594
0.3183815002441406,0.3909690856933594
0.3244371414184570,0.3908678054809570
0.3244371414184570,0.3908678054809570
0.3172496795654297,0.3919246673583984
0.3172496795654297,0.3919246673583984
0.3236984252929687,0.3941728591918945
0.3236984252929687,0.3941728591918945
0.3205392837524414,0.3973480224609375
0.3205392837524414,0.3973480224609375
0.3200597763061523,0.3868349075317383
0.3200597763061523,0.3868349075317383
0.3255186080932617,0.3981731414794922
0.3255186080932617,0.3981731414794922
0.3185617446899414,0.3940372467041016
0.3185617446899414,0.3940372467041016
0.3238157272338867,0.3950489044189453
0.3238157272338867,0.3950489044189453
0.3226020812988281,0.3938152313232422
0.3226020812988281,0.3938152313232422
0.3212991714477539,0.3945522308349609
0.3212991714477539,0.3945522308349609
0.3266435623168945,0.4012659072875976
0.3266435623168945,0.4012659072875976
0.3186189651489258,0.3957950592041016
0.3186189651489258,0.3957950592041016
0.3259231567382813,0.3915796279907227
0.3259231567382813,0.3915796279907227
0.3238180160522461,0.4018054962158203
0.3238180160522461,0.4018054962158203
0.3227462768554688,0.3973411560058593
0.3227462768554688,0.3973411560058593
0.3270515441894531,0.4029172897338867
0.3270515441894531,0.4029172897338867
0.3210783004760742,0.3929883956909180
0.3210783004760742,0.3929883956909180
0.3274618148803711,0.4002290725708008
0.3274618148803711,0.4002290725708008
0.3253183364868164,0.4052810668945312
0.3253183364868164,0.4052810668945312
0.3224378585815429,0.3978395462036133
0.3224378585815429,0.3978395462036133
0.3269445419311524,0.3945058822631836
0.3269445419311524,0.3945058822631836
0.3176982879638672,0.3915761947631836
0.3176982879638672,0.3915761947631836
0.3217420578002930,0.3890642166137695
0.3217420578002930,0.3890642166137695
0.3164548873901367,0.3899614334106445
0.3164548873901367,0.3899614334106445
0.3148035049438476,0.3774713516235351
0.3148035049438476,0.3774713516235351
0.3193010330200195,0.3870689392089844
0.3193010330200195,0.3870689392089844
0.3118383407592774,0.3827659606933594
0.3118383407592774,0.3827659606933594
0.3167404174804687,0.3822360992431640
0.3167404174804687,0.3822360992431640
0.3148252487182617,0.3803289413452148
0.3148252487182617,0.3803289413452148
0.3133689880371094,0.3805131912231445
0.3133689880371094,0.3805131912231445
0.3187288284301757,0.3860504150390625
0.3136264801025391,0.3860504150390625
0.3104919433593750,0.3811958312988281
0.3104919433593750,0.3811958312988281
0.3177103042602539,0.3770782470703125
0.3128551483154297,0.3770782470703125
0.3153894424438476,0.3870403289794922
0.3153894424438476,0.3870403289794922
0.3145877838134766,0.3836580276489258
0.3145877838134766,0.3836580276489258
0.3190200805664062,0.3886224746704102
0.3190200805664062,0.3886224746704102
0.3133014678955078,0.3792371749877930
0.3133014678955078,0.3792371749877930
0.3200649261474609,0.3868577957153320
0.3200649261474609,0.3868577957153320
0.3181131362915039,0.3918640136718750
0.3181131362915039,0.3918640136718750
0.3162128448486328,0.3872262954711914
0.3162128448486328,0.3872262954711914
0.3224493026733398,0.3874174118041992
0.3224493026733398,0.3874174118041992
0.3157207489013672,0.3888359069824219
0.3157207489013672,0.3888359069824219
0.3221900939941406,0.3912591934204102
0.3221900939941406,0.3912591934204102
0.3185914993286132,0.3942712783813476
0.3185914993286132,0.3942712783813476
0.3183237075805664,0.3836912155151367
0.3190526962280273,0.3836912155151367
0.3236097335815429,0.3946895599365234
0.3236097335815429,0.3946895599365234
0.3167352676391602,0.3903516769409179
0.3167352676391602,0.3903516769409179
0.3219617843627929,0.3915184020996094
0.3219617843627929,0.3915184020996094
0.3202360153198242,0.3899545669555664
0.3202360153198242,0.3899545669555664
0.3192226409912109,0.3907756805419922
0.3192226409912109,0.3907756805419922
0.3246139526367187,0.3973205566406250
0.3246139526367187,0.3973205566406250
0.3166076660156250,0.3917633056640625
0.3166076660156250,0.3917633056640625
0.3238128662109375,0.3873865127563477
0.3238128662109375,0.3873865127563477
0.3212219238281250,0.3972255706787109
0.3212219238281250,0.3972255706787109
0.3203378677368164,0.3925861358642578
0.3207109451293945,0.3925861358642578
0.3245813369750977,0.3977165222167969
0.3245813369750977,0.3977165222167969
0.3185817718505859,0.3878717422485352
0.3185817718505859,0.3878717422485352
0.3251375198364257,0.3952091217041016
0.3251375198364257,0.3952091217041016
0.3228630065917968,0.4008167266845703
0.3228630065917968,0.4008167266845703
0.3211544036865234,0.3952692031860351
0.3211544036865234,0.3952692031860351
0.3274612426757812,0.3953733444213867
0.3274612426757812,0.3953733444213867
0.3207944869995117,0.3970121383666992
0.3207944869995117,0.3970121383666992
0.3274686813354492,0.3989587783813476
0.3274686813354492,0.3989587783813476
0.3238964080810547,0.4033384323120117
0.3264793395996093,0.4033384323120117
0.3240737915039062,0.3929792404174804
0.3240737915039062,0.3929792404174804
0.3293672561645508,0.4039958953857422
0.3293672561645508,0.4039958953857422
0.3222003936767578,0.3993885040283203
0.3222003936767578,0.3993885040283203
0.3255672454833984,0.3955186843872070
0.3255672454833984,0.3955186843872070
0.3208797454833984,0.3894876480102539
0.3208797454833984,0.3894876480102539
0.3177675247192382,0.3862592697143555
0.3177675247192382,0.3862592697143555
0.3181789398193359,0.3830451965332031
0.3138931274414062,0.3830451965332031
0.3167169570922851,0.3880279541015625
0.3192707061767578,0.3880279541015625
0.3144367218017578,0.3802911758422852
0.3188512802124023,0.3802911758422852
0.3201965332031250,0.3891529083251953
0.3143285751342773,0.3891529083251953
0.3139125823974609,0.3859691619873047
0.3206256866455078,0.3859691619873047
0.3179145812988281,0.3826091766357422
0.3139509201049804,0.3826091766357422
0.3193113327026367,0.3882144927978515
0.3175958633422851,0.3882144927978515
0.3149911880493164,0.3848739624023437
0.3197874069213867,0.3848739624023437
0.3209621429443359,0.3879129409790039
0.3150575637817383,0.3879129409790039
0.3145717620849609,0.3881732940673828
0.3214553833007812,0.3881732940673828
0.3193965911865234,0.3853134155273437
0.3155410766601562,0.3853134155273437
0.3211544036865234,0.3955060958862305
0.3197748184204102,0.3955060958862305
0.3170991897583008,0.3861671447753906
0.3217351913452148,0.3861671447753906
0.3232395172119141,0.3925054550170898
0.3172788619995117,0.3925054550170898
0.3172101974487305,0.3924259185791015
0.3241544723510742,0.3924259185791015
0.3215440750122070,0.3929220199584961
0.3178585052490234,0.3929220199584961
0.3230381011962891,0.3961463928222656
0.3214839935302734,0.3961463928222656
0.3183454513549804,0.3893159866333007
0.3229454040527344,0.3893159866333007
0.3247707366943359,0.3948841094970703
0.3185674667358399,0.3948841094970703
0.3183923721313476,0.3980667114257813
0.3255832672119141,0.3980667114257813
0.3227600097656250,0.3920900344848633
0.3187625885009766,0.3920900344848633
0.3240097045898437,0.3980117797851562
0.3224269866943359,0.3980117797851562
0.3196546554565430,0.3908306121826172
0.3242225646972656,0.3908306121826172
0.3257291793823242,0.4001827239990234
0.3198698043823242,0.4001827239990234
0.3193393707275390,0.3969835281372070
0.3264152526855469,0.3969835281372070
0.3233882904052734,0.3940629959106445
0.3193834304809570,0.3940629959106445
0.3251741409301758,0.3999607086181641
0.3235857009887695,0.3999607086181641
0.3209615707397461,0.3966442108154297
0.3257463455200195,0.3966442108154297
0.3271991729736328,0.3997112274169922
0.3211103439331054,0.3997112274169922
0.3206668853759765,0.3996288299560547
0.3278583526611328,0.3996288299560547
0.3253463745117187,0.3964582443237304
0.3213157653808594,0.3964582443237304
0.3268398284912109,0.4064592361450195
0.3257171630859375,0.4064592361450195
0.3226799011230468,0.3965984344482422
0.3270423889160156,0.3965984344482422
0.3283704757690429,0.4029516220092773
0.3224069595336914,0.4029516220092773
0.3225070953369141,0.4027662277221680
0.3296001434326172,0.4027662277221680
0.3271659851074218,0.4033956527709961
0.3233688354492187,0.4033956527709961
0.3285610198974609,0.4067230224609375
0.3272443771362304,0.4067230224609375
0.3288763046264648,0.4000213623046875
0.3288763046264648,0.4000213623046875
0.3305614471435547,0.4058692932128906
0.3245029449462891,0.4058692932128906
0.3240898132324219,0.4090507507324219
0.3314603805541992,0.4090507507324219
0.3284820556640625,0.4021545410156250
0.3240085601806640,0.4021545410156250
0.3281038284301758,0.4055385589599609
0.3253852844238281,0.4055385589599609
0.3216562271118164,0.3935359954833984
0.3245710372924804,0.3935359954833984
0.3250802993774414,0.3984077453613281
0.3179391860961914,0.3984077453613281
0.3163410186767578,0.3913496017456055
0.3225774765014648,0.3913496017456055
0.3193382263183593,0.3856407165527344
0.3146387100219726,0.3856407165527344
0.3195430755615234,0.3898664474487304
0.3177989959716797,0.3898664474487304
0.3146644592285156,0.3854782104492188
0.3190481185913086,0.3854782104492188
0.3205324172973633,0.3879535675048828
0.3143995285034180,0.3879535675048828
0.3134479522705078,0.3874689102172851
0.3206571578979492,0.3874689102172851
0.3184759140014649,0.3841129302978515
0.3143714904785156,0.3841129302978515
0.3197256088256836,0.3937860488891601
0.3187013626098633,0.3937860488891601
0.3156732559204101,0.3841140747070312
0.3200477600097656,0.3841140747070312
0.3218736648559570,0.3905199050903320
0.3159908294677734,0.3905199050903320
0.3156509399414062,0.3905044555664062
0.3230890274047851,0.3905044555664062
0.3207618713378906,0.3915544509887695
0.3171255111694336,0.3915544509887695
0.3223125457763672,0.3953109741210937
0.3212110519409180,0.3953109741210937
0.3179203033447265,0.3890024185180664
0.3224092483520508,0.3890024185180664
0.3247758865356445,0.3952863693237305
0.3188146591186523,0.3952863693237305
0.3185245513916016,0.3988288879394531
0.3260713577270508,0.3988288879394531
0.3233505249023437,0.3931251525878906
0.3194086074829102,0.3931251525878906
0.3244874954223633,0.3992168426513672
0.3231948852539062,0.3992168426513672
0.3202142715454102,0.3917615890502930
0.3244720458984375,0.3917615890502930
0.3262069702148437,0.4011434555053711
0.3202251434326172,0.4011434555053711
0.3194955825805664,0.3975717544555664
0.3266910552978515,0.3975717544555664
0.3237373352050781,0.3943439483642578
0.3196455001831054,0.3943439483642578
0.3251712799072266,0.3999704360961914
0.3236978530883789,0.3999704360961914
0.3208265304565430,0.3962631225585938
0.3252576828002929,0.3962631225585938
0.3268587112426758,0.3992517471313476
0.3207372665405273,0.3992517471313476
0.3201072692871094,0.3988695144653320
0.3275018692016601,0.3988695144653320
0.3250013351440429,0.3954906463623047
0.3208431243896484,0.3954906463623047
0.3259860992431641,0.4050767898559570
0.3249612808227539,0.4050767898559570
0.3218519210815430,0.3950569152832031
0.3261148452758789,0.3950569152832031
0.3275316238403320,0.4011629104614258
0.3214902877807617,0.4011629104614258
0.3213088989257812,0.4006771087646484
0.3286548614501953,0.4006771087646484
0.3262916564941406,0.4012607574462890
0.3223817825317383,0.4012607574462890
0.3273250579833984,0.4044616699218750
0.3261863708496094,0.4044616699218750
0.3231067657470703,0.3974658966064453
0.3274057388305664,0.3974658966064453
0.3293552398681641,0.4034156799316406
0.3232830047607422,0.4034156799316406
0.3227479934692383,0.4068162918090820
0.3303949356079102,0.4068162918090820
0.3277914047241211,0.4009374618530273
0.3237991333007812,0.4009374618530273
0.3285055160522461,0.4072774887084961
0.3273851394653320,0.4072774887084961
0.3248514175415039,0.4002582550048828
0.3289884567260742,0.4002582550048828
0.3310953140258789,0.4099971771240234
0.3252748489379882,0.4099971771240234
0.3244760513305664,0.4066749572753906
0.3318826675415039,0.4066749572753906
0.3292385101318359,0.4029613494873047
0.3245813369750977,0.4029613494873047
0.3288682937622070,0.4056964874267578
0.3263179779052734,0.4056964874267578
0.3217758178710937,0.3969366073608399
0.3245664596557617,0.3969366073608399
0.3250328063964844,0.3949035644531250
0.3176055908203125,0.3949035644531250
0.3153808593750000,0.3903865814208984
0.3217969894409179,0.3903865814208984
0.3190790176391601,0.3842061996459961
0.3141689300537109,0.3842061996459961
0.3188449859619141,0.3917415618896484
0.3175283432006836,0.3917415618896484
0.3139297485351563,0.3804399490356445
0.3177520751953125,0.3804399490356445
0.3195379257202148,0.3856315612792969
0.3132820129394531,0.3856315612792969
0.3124219894409180,0.3842891693115234
0.3197376251220703,0.3842891693115234
0.3172800064086914,0.3842210769653320
0.3133255004882812,0.3842210769653320
0.3180278778076172,0.3870357513427734
0.3169567108154297,0.3870357513427734
0.3133541107177734,0.3799158096313476
0.3174242019653320,0.3799158096313476
0.3199550628662109,0.3857517242431641
0.3138427734375000,0.3857517242431641
0.3132385253906250,0.3889348983764648
0.3211120605468750,0.3889348983764648
0.3185365676879883,0.3834039688110352
0.3146221160888672,0.3834039688110352
0.3196603775024414,0.3898921966552734
0.3187236785888672,0.3898921966552734
0.3157310485839844,0.3830251693725586
0.3199642181396484,0.3830251693725586
0.3222198486328125,0.3927852630615234
0.3164886474609375,0.3927852630615234
0.3156475067138672,0.3899991989135742
0.3232704162597656,0.3899991989135742
0.3204895019531250,0.3872697830200195
0.3165304183959961,0.3872697830200195
0.3218736648559570,0.3931880950927734
0.3208580017089844,0.3931880950927734
0.3178218841552734,0.3896547317504883
0.3220767974853516,0.3896547317504883
0.3239942550659179,0.3926725387573242
0.3180347442626953,0.3926725387573242
0.3170780181884765,0.3922199249267578
0.3245384216308594,0.3922199249267578
0.3221265792846680,0.3887620925903320
0.3180370330810547,0.3887620925903320
0.3228578567504883,0.3981084823608398
0.3220899581909180,0.3981084823608398
0.3187139511108398,0.3881567001342773
0.3227582931518554,0.3881567001342773
0.3244148254394531,0.3940246582031250
0.3183603286743164,0.3940246582031250
0.3179197311401367,0.3934255599975586
0.3253973007202148,0.3934255599975586
0.3232406616210937,0.3939113616943359
0.3193960189819336,0.3939113616943359
0.3240463256835938,0.3971363067626953
0.3231113433837891,0.3971363067626953
0.3198348999023438,0.3903453826904297
0.3239513397216797,0.3903453826904297
0.3262430191040039,0.3961641311645508
0.3202457427978516,0.3961641311645508
0.3194423675537109,0.3994497299194336
0.3273353576660156,0.3994497299194336
0.3248371124267578,0.3938404083251953
0.3207767486572266,0.3938404083251953
0.3252565383911133,0.4000259399414062
0.3243478775024414,0.4000259399414062
0.3215394973754883,0.3928544998168945
0.3252731323242187,0.3928544998168945
0.3277175903320312,0.4024703979492187
0.3218330383300781,0.4024703979492187
0.3206377029418945,0.3991733551025390
0.3284648895263672,0.3991733551025390
0.3261583328247070,0.3966287612915039
0.3220567703247070,0.3966287612915039
0.3270338058471680,0.4026260375976562
0.3262773513793945,0.4026260375976562
0.3230884552001953,0.3993535995483398
0.3273611068725586,0.3993535995483398
0.3294982910156250,0.4029087066650390
0.3235622406005859,0.4029087066650390
0.3222272872924805,0.4027330398559570
0.3300275802612305,0.4027330398559570
0.3279853820800781,0.3991441726684570
0.3233087539672851,0.3991441726684570
0.3275253295898438,0.4059659957885742
0.3258642196655273,0.4059659957885742
0.3213781356811523,0.3921621322631836
0.3239467620849609,0.3921621322631836
0.3251031875610351,0.3937459945678711
0.3177577972412109,0.3937459945678711
0.3158575057983398,0.3894350051879883
0.3227388381958008,0.3894350051879883
0.3197988510131836,0.3869722366333008
0.3152732849121094,0.3869722366333008
0.3194847106933594,0.3887741088867188
0.3183586120605469,0.3887741088867188
0.3144727706909179,0.3807924270629883
0.3180885314941406,0.3807924270629883
0.3207321166992188,0.3859926223754883
0.3144287109375000,0.3859926223754883
0.3134582519531250,0.3876703262329101
0.3211612701416016,0.3876703262329101
0.3187013626098633,0.3821268081665039
0.3142232894897461,0.3821268081665039
0.3189491271972656,0.3877321243286133
0.3181520462036133,0.3877321243286133
0.3144487380981445,0.3795948028564453
0.3179306030273437,0.3795948028564453
0.3208253860473633,0.3881772994995117
0.3147468566894531,0.3881772994995117
0.3134433746337891,0.3853231430053711
0.3216001510620117,0.3853231430053711
0.3190378189086914,0.3825393676757812
0.3145528793334961,0.3825393676757812
0.3196146011352539,0.3885887145996094
0.3193027496337891,0.3885887145996094
0.3155902862548828,0.3836591720581055
0.3197959899902343,0.3836591720581055
0.3222633361816406,0.3883741378784180
0.3162609100341797,0.3883741378784180
0.3148847579956054,0.3878271102905274
0.3231193542480469,0.3878271102905274
0.3206960678100586,0.3852378845214844
0.3168731689453125,0.3852378845214844
0.3213529586791992,0.3942987442016602
0.3210399627685547,0.3942987442016602
0.3174922943115234,0.3848773956298828
0.3212951660156250,0.3848773956298828
0.3232870101928711,0.3910326004028320
0.3174276351928711,0.3910326004028320
0.3164937973022461,0.3903425216674805
0.3240715026855469,0.3903425216674805
0.3218770980834961,0.3911087036132813
0.3181360244750976,0.3911087036132813
0.3224641799926758,0.3942031860351562
0.3217964172363281,0.3942031860351562
0.3185285568237304,0.3875764846801757
0.3221454620361328,0.3875764846801757
0.3244886398315430,0.3930742263793945
0.3186229705810547,0.3930742263793945
0.3174739837646484,0.3959329605102539
0.3251684188842773,0.3959329605102539
0.3226890563964844,0.3907264709472656
0.3186281204223633,0.3907264709472656
0.3226083755493164,0.3962368011474609
0.3218164443969727,0.3962368011474609
0.3190292358398437,0.3893468856811523
0.3222890853881836,0.3893468856811523
0.3245527267456055,0.3980741500854492
0.3191070556640625,0.3980741500854492
0.3176496505737305,0.3948623657226563
0.3250253677368164,0.3948623657226563
0.3227102279663086,0.3922605514526367
0.3189462661743164,0.3922605514526367
0.3230918884277343,0.3973239898681640
0.3225059509277344,0.3973239898681640
0.3206251144409180,0.3938724517822266
0.3252519607543945,0.3970458984375000
0.3197633743286133,0.3970458984375000
0.3181102752685547,0.3966751098632812
0.3254425048828125,0.3966751098632812
0.3236755371093750,0.3939205169677734
0.3197799682617187,0.3939205169677734
0.3242626190185547,0.4021911621093750
0.3237865447998047,0.4021911621093750
0.3204505920410156,0.3931119918823242
0.3239667892456055,0.3931119918823242
0.3263219833374023,0.3987773895263672
0.3208499908447265,0.3987773895263672
0.3195396423339844,0.3979946136474609
0.3267116546630859,0.3979946136474609
0.3245109558105468,0.3978899002075195
0.3207647323608399,0.3978899002075195
0.3244943618774414,0.3991950988769531
0.3230546951293945,0.3991950988769531
0.3187356948852539,0.3896306991577148
0.3210239410400391,0.3896306991577148
0.3219720840454102,0.3899660110473633
0.3156944274902344,0.3899660110473633
0.3138267517089844,0.3893268585205078
0.3192031860351562,0.3893268585205078
0.3160663604736328,0.3805212020874023
0.3122234344482422,0.3805212020874023
0.3154518127441406,0.3831687927246094
0.3137523651123047,0.3831687927246094
0.3109376907348633,0.3755664825439453
0.3140762329101562,0.3755664825439453
0.3158958435058594,0.3826784133911132
0.3107763290405273,0.3826784133911132
0.3097343444824219,0.3797389984130859
0.3162242889404297,0.3797389984130859
0.3135864257812500,0.3766405105590820
0.3102636337280273,0.3766405105590820
0.3147296905517578,0.3819099426269531
0.3139400482177734,0.3819099426269531
0.3109949111938476,0.3782958984375000
0.3145420074462891,0.3782958984375000
0.3170734405517578,0.3820844650268554
0.3115711212158203,0.3820844650268554
0.3102069854736328,0.3818481445312500
0.3180953979492188,0.3818481445312500
0.3161727905273438,0.3798820495605469
0.3123195648193359,0.3798820495605469
0.3170047760009765,0.3894327163696289
0.3171300888061523,0.3894327163696289
0.3137277603149414,0.3805944442749024
0.3172365188598633,0.3805944442749024
0.3196163177490234,0.3874563217163086
0.3141208648681640,0.3874563217163086
0.3132104873657227,0.3872806549072266
0.3210840225219727,0.3872806549072266
0.3190784454345703,0.3884902954101562
0.3152406692504883,0.3884902954101562
0.3194171905517578,0.3917678833007812
0.3192026138305664,0.3917678833007812
0.3156297683715820,0.3848997116088867
0.3190040588378906,0.3848997116088867
0.3216911315917969,0.3906520843505859
0.3159833908081054,0.3906520843505859
0.3145002365112304,0.3929134368896484
0.3224046707153320,0.3929134368896484
0.3201593399047851,0.3878145217895508
0.3159078598022461,0.3878145217895508
0.3199075698852539,0.3932916641235352
0.3195310592651367,0.3932916641235352
0.3164422988891601,0.3860870361328125
0.3196380615234375,0.3860870361328125
0.3226272583007813,0.3954185485839843
0.3172164916992187,0.3954185485839843
0.3157184600830078,0.3925043106079101
0.3237607955932617,0.3925043106079101
0.3216962814331055,0.3905342102050781
0.3177297592163086,0.3905342102050781
0.3221591949462890,0.3960308074951172
0.3218914031982422,0.3960308074951172
0.3183603286743164,0.3920139312744140
0.3218439102172851,0.3920139312744140
0.3244960784912109,0.3956314086914062
0.3188627243041992,0.3956314086914062
0.3169458389282226,0.3948520660400390
0.3247770309448242,0.3948520660400390
0.3229413986206054,0.3920986175537109
0.3187585830688476,0.3920986175537109
0.3231960296630859,0.4009065628051758
0.3232280731201172,0.4009065628051758
0.3196197509765625,0.3912940979003906
0.3228858947753906,0.3912940979003906
0.3257366180419922,0.3975728988647461
0.3200328826904297,0.3975728988647461
0.3185440063476562,0.3966270446777344
0.3264341354370117,0.3966270446777344
0.3244251251220703,0.3976758956909179
0.3206508636474609,0.3976758956909179
0.3249973297119140,0.4010639190673828
0.3249332427978516,0.4010639190673828
0.3210868835449219,0.3941345214843750
0.3244325637817383,0.3941345214843750
0.3277318954467773,0.4004356384277344
0.3220750808715820,0.4004356384277344
0.3207504272460938,0.4029029846191406
0.3289157867431641,0.4029029846191406
0.3267488479614258,0.3983213424682617
0.3226352691650390,0.3983213424682617
0.3269662857055664,0.4040834426879883
0.3267665863037109,0.4040834426879883
0.3230335235595703,0.3959609985351563
0.3258413314819336,0.3959609985351563
0.3282491683959961,0.4028583526611328
0.3214525222778320,0.4028583526611328
0.3181549072265625,0.3941207885742187
0.3245710372924804,0.3941207885742187
0.3209289550781250,0.3872188568115234
0.3154918670654297,0.3872188568115234
0.3190870285034180,0.3890487670898438
0.3180541992187500,0.3890487670898438
0.3139251708984375,0.3823945999145508
0.3168422698974609,0.3823945999145508
0.3193067550659179,0.3846204757690430
0.3132905960083008,0.3846204757690430
0.3113788604736328,0.3828134536743164
0.3192340850830078,0.3828134536743164
0.3170568466186524,0.3799043655395508
0.3127063751220703,0.3799043655395508
0.3170488357543945,0.3882637023925781
0.3171512603759766,0.3882637023925781
0.3133993148803711,0.3785385131835937
0.3166082382202148,0.3785385131835937
0.3192455291748047,0.3850662231445313
0.3136882781982422,0.3850662231445313
0.3123950958251953,0.3842107772827149
0.3202823638916015,0.3842107772827149
0.3184215545654297,0.3853174209594726
0.3146438598632812,0.3853174209594726
0.3189840316772461,0.3890682220458984
0.3190841674804688,0.3890682220458984
0.3156040191650391,0.3826217651367188
0.3189828872680664,0.3826217651367188
0.3221591949462890,0.3891843795776367
0.3166191101074219,0.3891843795776367
0.3150941848754883,0.3917633056640625
0.3233505249023437,0.3917633056640625
0.3213094711303711,0.3876514434814453
0.3173217773437500,0.3876514434814453
0.3213764190673828,0.3936653137207031
0.3213008880615234,0.3936653137207031
0.3181474685668945,0.3864109039306641
0.3212327957153320,0.3864109039306641
0.3243902206420898,0.3956485748291015
0.3188346862792968,0.3956485748291015
0.3168766021728516,0.3919967651367187
0.3248765945434570,0.3919967651367187
0.3227794647216797,0.3898939132690429
0.3185697555541992,0.3898939132690429
0.3227239608764648,0.3950271606445312
0.3226467132568359,0.3950271606445312
0.3190927505493164,0.3906881332397461
0.3223182678222656,0.3906881332397461
0.3251638412475586,0.3945465087890625
0.3195648193359375,0.3945465087890625
0.3173927307128906,0.3934186935424804
0.3253446578979492,0.3934186935424804
0.3236503601074219,0.3911773681640625
0.3193742752075195,0.3911773681640625
0.3237419128417969,0.3998142242431640
0.3238529205322265,0.3998142242431640
0.3202005386352539,0.3902870178222656
0.3234512329101563,0.3902870178222656
0.3264947891235351,0.3968914031982422
0.3208396911621094,0.3968914031982422
0.3191654205322266,0.3957933425903320
0.3273170471191406,0.3957933425903320
0.3253664016723632,0.3972415924072266
0.3215171813964844,0.3972415924072266
0.3257068634033203,0.4008476257324219
0.3257801055908203,0.4008476257324219
0.3219417572021484,0.3940984725952149
0.3252376556396484,0.3940984725952149
0.3287235260009765,0.4009208679199219
0.3231067657470703,0.4009208679199219
0.3215887069702149,0.4032079696655274
0.3299629211425781,0.4032079696655274
0.3278114318847656,0.3992357254028320
0.3238140106201172,0.3992357254028320
0.3280494689941406,0.4052307128906250
0.3280900955200195,0.4052307128906250
0.3246442794799805,0.3981513977050781
0.3278228759765625,0.3981513977050781
0.3311199188232422,0.4079572677612305
0.3256422042846679,0.4079572677612305
0.3237768173217773,0.4045022964477539
0.3319856643676758,0.4045022964477539
0.3295263290405273,0.4027667999267578
0.3254333496093750,0.4027667999267578
0.3299657821655274,0.4083618164062500
0.3298553466796875,0.4083618164062500
0.3264478683471679,0.4039884567260742
0.3296361923217773,0.4039884567260742
0.3323307037353516,0.4072809219360352
0.3262756347656250,0.4072809219360352
0.3239072799682617,0.4044164657592773
0.3311136245727539,0.4044164657592773
0.3275968551635742,0.3970029830932617
0.3216579437255859,0.3970029830932617
0.3244176864624023,0.4003767013549804
0.3230569839477539,0.4003767013549804
0.3182630538940430,0.3863233566284179
0.3203510284423828,0.3863233566284179
0.3222570419311523,0.3898584365844727
0.3159021377563476,0.3898584365844727
0.3139869689941406,0.3867216110229492
0.3217420578002930,0.3867216110229492
0.3195482254028320,0.3867994308471679
0.3154964447021484,0.3867994308471679
0.3194475173950195,0.3897251129150390
0.3193782806396484,0.3897251129150390
0.3157493591308594,0.3823127746582031
0.3189748764038086,0.3823127746582031
0.3221168518066406,0.3887203216552734
0.3163467407226562,0.3887203216552734
0.3147279739379883,0.3906126022338867
0.3232389450073242,0.3906126022338867
0.3210359573364258,0.3867525100708007
0.3171117782592773,0.3867525100708007
0.3209730148315429,0.3931577682495117
0.3212110519409180,0.3931577682495117
0.3180610656738281,0.3863994598388672
0.3213993072509765,0.3863994598388672
0.3248926162719726,0.3966447830200195
0.3195253372192383,0.3966447830200195
0.3178853988647461,0.3938306808471679
0.3263093948364258,0.3938306808471679
0.3243146896362304,0.3927686691284180
0.3203710556030273,0.3927686691284180
0.3245927810668945,0.3987533569335938
0.3246694564819336,0.3987533569335938
0.3213346481323242,0.3948858261108398
0.3247364044189453,0.3948858261108398
0.3279035568237305,0.3993255615234375
0.3222084045410156,0.3993255615234375
0.3199636459350586,0.3982595443725586
0.3283424377441406,0.3982595443725586
0.3265869140625000,0.3962110519409179
0.3223291397094726,0.3962110519409179
0.3263946533203125,0.4045766830444336
0.3264244079589844,0.4045766830444336
0.3227273941040039,0.3944961547851563
0.3258092880249023,0.3944961547851563
0.3288236618041992,0.4007486343383789
0.3227989196777344,0.4007486343383789
0.3209358215332031,0.3987487792968750
0.3291246414184570,0.3987487792968750
0.3269668579101562,0.3996631622314453
0.3229030609130859,0.3996631622314453
0.3266475677490234,0.4025596618652343
0.3266080856323242,0.4025596618652343
0.3227090835571289,0.3951868057250976
0.3258110046386719,0.3951868057250976
0.3293563842773438,0.4015634536743164
0.3233425140380859,0.4015634536743164
0.3217248916625977,0.4030094146728516
0.3301546096801758,0.4030094146728516
0.3279356002807617,0.3989582061767578
0.3238918304443359,0.4002971649169922
0.3278417587280273,0.4047620773315430
0.3278188705444336,0.4047620773315430
0.3243364334106445,0.3970853805541992
0.3275070190429688,0.3970853805541992
0.3307868957519531,0.4067979812622070
0.3250654220581055,0.4067979812622070
0.3231708526611328,0.4030311584472656
0.3315164566040039,0.4030311584472656
0.3289363861083984,0.4012430191040039
0.3248445510864258,0.4012430191040039
0.3291326522827148,0.4068660736083984
0.3290348052978516,0.4068660736083984
0.3256679534912109,0.4024703979492187
0.3290027618408203,0.4024703979492187
0.3320886611938477,0.4068511962890625
0.3263025283813477,0.4068511962890625
0.3245315551757812,0.4054401397705078
0.3327804565429687,0.4054401397705078
0.3306787490844726,0.4036067962646484
0.3265960693359375,0.4036067962646484
0.3306535720825195,0.4123403549194336
0.3307737350463867,0.4123403549194336
0.3271688461303711,0.4026437759399414
0.3303205490112305,0.4026437759399414
0.3331964492797851,0.4092681884765625
0.3272993087768555,0.4092681884765625
0.3256982803344726,0.4070423126220703
0.3337669372558594,0.4070423126220703
0.3312400817871093,0.4063940048217773
0.3264364242553711,0.4063940048217773
0.3288791656494141,0.4049474716186524
0.3273576736450195,0.4049474716186524
0.3224830627441406,0.3927755355834961
0.3244222640991211,0.3927755355834961
0.3265193939208984,0.3953304290771484
0.3196752548217773,0.3953304290771484
0.3172119140625000,0.3938283920288086
0.3250556945800781,0.3938283920288086
0.3223337173461914,0.3882339477539062
0.3179306030273437,0.3882339477539062
0.3212511062622070,0.3930130004882812
0.3211595535278320,0.3930130004882812
0.3179157257080078,0.3851921081542969
0.3208700180053711,0.3851921081542969
0.3241521835327149,0.3944475173950195
0.3184123992919922,0.3944475173950195
0.3165109634399414,0.3907476425170898
0.3250059127807617,0.3907476425170898
0.3228069305419922,0.3895116806030273
0.3188627243041992,0.3895116806030273
0.3228492736816406,0.3953052520751953
0.3229459762573242,0.3953052520751953
0.3197828292846679,0.3912448883056641
0.3233047485351562,0.3912448883056641
0.3264776229858398,0.3964141845703125
0.3209798812866211,0.3964141845703125
0.3188770294189453,0.3955821990966797
0.3274023056030274,0.3955821990966797
0.3257703781127930,0.3943782806396484
0.3218238830566406,0.3943782806396484
0.3259901046752929,0.4033184051513672
0.3262258529663086,0.4033184051513672
0.3228252410888672,0.3942712783813476
0.3260959625244140,0.3942712783813476
0.3293060302734375,0.4013134002685547
0.3236286163330078,0.4013134002685547
0.3218444824218750,0.3997117996215820
0.3302650451660156,0.3997117996215820
0.3281644821166992,0.4011754989624023
0.3243352890014649,0.4011754989624023
0.3280792236328125,0.4046865463256836
0.3281444549560547,0.4046865463256836
0.3243427276611328,0.3973571777343750
0.3274229049682617,0.3973571777343750
0.3308950424194336,0.4038179397583008
0.3249383926391601,0.4038179397583008
0.3232538223266602,0.4047689437866211
0.3316080093383789,0.4047689437866211
0.3292734146118164,0.4007423400878906
0.3252565383911133,0.4007423400878906
0.3290233612060547,0.4061782836914062
0.3290468215942383,0.4061782836914062
0.3254779815673828,0.3983974456787109
0.3284608840942383,0.3983974456787109
0.3317230224609375,0.4077861785888672
0.3260055541992187,0.4077861785888672
0.3240297317504883,0.4037097930908203
0.3323198318481445,0.4037097930908203
0.3297895431518554,0.4020887374877929
0.3256444931030273,0.4020887374877929
0.3298170089721680,0.4075338363647461
0.3297174453735351,0.4075338363647461
0.3264118194580078,0.4027690887451172
0.3295463562011718,0.4027690887451172
0.3326757431030273,0.4071527481079101
0.3268827438354492,0.4071527481079101
0.3249567031860351,0.4055768966674805
0.3333337783813476,0.4055768966674805
0.3312028884887695,0.4036920547485351
0.3271299362182617,0.4036920547485351
0.3310409545898437,0.4124027252197265
0.3312715530395507,0.4124027252197265
0.3277250289916992,0.4028703689575195
0.3308544158935547,0.4028703689575195
0.3336278915405274,0.4096767425537109
0.3278543472290039,0.4096767425537109
0.3263769149780273,0.4078428268432617
0.3346933364868164,0.4078428268432617
0.3325904846191406,0.4091342926025390
0.3286754608154297,0.4091342926025390
0.3323049545288086,0.4124536514282227
0.3324588775634765,0.4124536514282227
0.3288906097412109,0.4050928115844726
0.3319570541381836,0.4050928115844726
0.3351659774780273,0.4113006591796875
0.3292367935180664,0.4113006591796875
0.3272838592529297,0.4118482589721680
0.3354074478149414,0.4118482589721680
0.3324056625366211,0.4053136825561524
0.3269205093383789,0.4053136825561524
0.3287509918212890,0.4052656173706055
0.3272312164306641,0.4052656173706055
0.3226581573486328,0.3926954269409180
0.3242649078369140,0.3926954269409180
0.3265897750854492,0.3979745864868164
0.3198955535888672,0.3979745864868164
0.3172033309936523,0.3911899566650390
0.3249217987060547,0.3911899566650390
0.3222009658813477,0.3878734588623047
0.3177755355834961,0.3878734588623047
0.3213329315185547,0.3920734405517578
0.3210285186767578,0.3920734405517578
0.3174694061279297,0.3867233276367187
0.3205060958862305,0.3867233276367187
0.3235439300537109,0.3908706665039062
0.3176376342773438,0.3908706665039062
0.3154003143310547,0.3886997222900391
0.3236989974975586,0.3886997222900391
0.3216716766357422,0.3869035720825195
0.3175071716308593,0.3869035720825195
0.3214885711669922,0.3951158523559570
0.3216505050659180,0.3951158523559570
0.3181297302246094,0.3857099533081055
0.3212585449218750,0.3857099533081055
0.3245040893554688,0.3926548004150390
0.3187299728393554,0.3926548004150390
0.3170471191406250,0.3909187316894531
0.3254213333129883,0.3909187316894531
0.3234157562255859,0.3926588058471679
0.3196472167968750,0.3926588058471679
0.3234500885009766,0.3963930130004883
0.3236211776733398,0.3963930130004883
0.3199264526367188,0.3895019531250000
0.3230930328369140,0.3895019531250000
0.3267374038696289,0.3963197708129882
0.3209352493286133,0.3963197708129882
0.3192890167236328,0.3974012374877929
0.3278320312500000,0.3974012374877929
0.3255437850952148,0.3937803268432617
0.3214982986450195,0.3937803268432617
0.3251747131347656,0.3994680404663086
0.3252210617065430,0.3994680404663086
0.3217523574829101,0.3916168212890625
0.3248216629028320,0.3916168212890625
0.3280317306518555,0.4010507583618164
0.3222879409790039,0.4010507583618164
0.3203269958496094,0.3968084335327148
0.3286531448364258,0.3968084335327148
0.3259958267211914,0.3951719284057617
0.3218421936035156,0.3951719284057617
0.3258258819580078,0.4004253387451172
0.3258470535278320,0.4004253387451172
0.3224882125854492,0.3957424163818359
0.3256605148315430,0.3957424163818359
0.3288133621215820,0.4001838684082031
0.3230695724487305,0.4001838684082031
0.3210891723632812,0.3983516693115234
0.3295366287231445,0.3983516693115234
0.3273313522338867,0.3966539382934570
0.3232091903686523,0.3966539382934570
0.3271282196044922,0.4052352905273438
0.3273439407348633,0.4052352905273438
0.3237911224365234,0.3956949234008789
0.3269765853881836,0.3956949234008789
0.3299091339111328,0.4025779724121094
0.3241264343261719,0.4025779724121094
0.3226770401000976,0.4006736755371094
0.3309379577636719,0.4006736755371094
0.3289209365844726,0.4021293640136719
0.3250614166259765,0.4021293640136719
0.3286897659301758,0.4056615829467773
0.3288734436035156,0.4056615829467773
0.3255111694335938,0.3984580993652344
0.3285644531250000,0.3984580993652344
0.3317888259887695,0.4050722122192383
0.3260879516601562,0.4050722122192383
0.3243330001831055,0.4061244964599609
0.3329126358032227,0.4061244964599609
0.3305500030517578,0.4026884078979492
0.3266120910644531,0.4026884078979492
0.3300985336303711,0.4084070205688476
0.3301843643188476,0.4084070205688476
0.3270120620727539,0.4010038375854492
0.3300207138061523,0.4010038375854492
0.3333440780639648,0.4104188919067382
0.3275156021118164,0.4104188919067382
0.3254390716552734,0.4053165435791016
0.3332307815551758,0.4053165435791016
0.3298988342285156,0.4003698348999024
0.3243021011352539,0.4003698348999024
0.3267133712768555,0.4006753921508789
0.3252296447753906,0.4006753921508789
0.3206760406494141,0.3914297103881836
0.3225688934326172,0.3914297103881836
0.3247455596923828,0.3922067642211914
0.3180742263793945,0.3922067642211914
0.3151754379272461,0.3875656127929688
0.3229001998901367,0.3875656127929688
0.3204843521118164,0.3842737197875977
0.3158809661865234,0.3842737197875977
0.3194475173950195,0.3910446166992188
0.3193473815917969,0.3910446166992188
0.3155124664306641,0.3807563781738281
0.3183185577392578,0.3807563781738281
0.3213512420654297,0.3867238998413086
0.3153688430786133,0.3867238998413086
0.3134016036987304,0.3837507247924805
0.3216115951538086,0.3837507247924805
0.3193536758422851,0.3849134445190430
0.3152378082275391,0.3849134445190430
0.3189107894897461,0.3880411148071289
0.3189548492431640,0.3880411148071289
0.3152000427246094,0.3808256149291992
0.3181795120239257,0.3808256149291992
0.3218307495117188,0.3875095367431641
0.3161298751831055,0.3875095367431641
0.3144493103027344,0.3883890151977539
0.3230140686035156,0.3883890151977539
0.3208019256591797,0.3852979660034180
0.3169527053833008,0.3852979660034180
0.3206708908081055,0.3911825180053711
0.3208122253417969,0.3911825180053711
0.3175529479980468,0.3839607238769531
0.3205341339111328,0.3839607238769531
0.3238563537597656,0.3936143875122070
0.3183340072631836,0.3936143875122070
0.3164337158203125,0.3895380020141602
0.3248233795166016,0.3895380020141602
0.3222049713134765,0.3882860183715820
0.3180667877197266,0.3882860183715820
0.3221071243286133,0.3935565948486328
0.3219760894775390,0.3935565948486328
0.3187500000000000,0.3888118743896484
0.3217311859130859,0.3888118743896484
0.3247879028320312,0.3930381774902343
0.3190601348876953,0.3930381774902343
0.3170316696166992,0.3907751083374023
0.3252422332763672,0.3907751083374023
0.3230953216552734,0.3890241622924804
0.3189016342163086,0.3890241622924804
0.3226346969604492,0.3971918106079101
0.3227897644042969,0.3971918106079101
0.3193222045898437,0.3877069473266602
0.3223760604858398,0.3877069473266602
0.3251775741577148,0.3944000244140625
0.3195173263549805,0.3944000244140625
0.3180742263793945,0.3922822952270508
0.3262350082397461,0.3922822952270508
0.3241636276245117,0.3938495635986328
0.3203521728515625,0.3938495635986328
0.3239908218383789,0.3973314285278320
0.3242294311523438,0.3973314285278320
0.3209266662597656,0.3904289245605468
0.3238592147827148,0.3904289245605468
0.3271591186523438,0.3969451904296875
0.3215652465820312,0.3969451904296875
0.3199996948242188,0.3979562759399414
0.3284282684326172,0.3979562759399414
0.3262590408325195,0.3949945449829101
0.3224155426025391,0.3949945449829101
0.3257589340209961,0.4008499145507812
0.3259243011474609,0.4008499145507812
0.3229419708251953,0.3937900543212891
0.3259477615356445,0.3937900543212891
0.3293992996215820,0.4034814834594727
0.3240142822265625,0.4034814834594727
0.3220842361450195,0.3994142532348633
0.3305826187133789,0.3994142532348633
0.3284065246582031,0.3987419128417969
0.3244354248046875,0.3987419128417969
0.3281536102294922,0.4041292190551758
0.3282371520996094,0.4041292190551758
0.3250877380371094,0.4001449584960937
0.3281908035278320,0.4001449584960937
0.3313591003417969,0.4046110153198242
0.3257486343383789,0.4046110153198242
0.3234220504760742,0.4021814346313476
0.3315319061279297,0.4021814346313476
0.3290840148925781,0.3991395950317383
0.3242168426513672,0.3977399826049804
0.3264347076416015,0.4027261734008789
0.3252336502075195,0.4027261734008789
0.3204002380371094,0.3884948730468750
0.3218616485595703,0.3884948730468750
0.3238992691040039,0.3908237457275390
0.3170082092285156,0.3908237457275390
0.3143571853637695,0.3849323272705078
0.3217489242553711,0.3849323272705078
0.3191087722778320,0.3845214843750000
0.3145660400390625,0.3845214843750000
0.3178842544555664,0.3863828659057617
0.3177125930786133,0.3863828659057617
0.3136922836303711,0.3783153533935547
0.3162837982177734,0.3783153533935547
0.3197719573974609,0.3841936111450195
0.3139120101928711,0.3841936111450195
0.3120975494384766,0.3840270996093750
0.3203218460083008,0.3840270996093750
0.3179700851440430,0.3804450988769531
0.3139148712158203,0.3804450988769531
0.3173961639404297,0.3858112335205078
0.3174362182617188,0.3858112335205078
0.3140590667724609,0.3781551361083984
0.3167421340942383,0.3781551361083984
0.3201410293579102,0.3874282836914062
0.3147806167602539,0.3874282836914062
0.3128923416137695,0.3832740783691406
0.3212476730346679,0.3832740783691406
0.3187505722045899,0.3826166152954101
0.3148635864257812,0.3826166152954101
0.3189462661743164,0.3882837295532227
0.3190601348876953,0.3882837295532227
0.3160440444946289,0.3841432571411132
0.3191408157348632,0.3841432571411132
0.3224470138549805,0.3890596389770508
0.3171781539916992,0.3890596389770508
0.3154575347900391,0.3872972488403320
0.3237018585205078,0.3872972488403320
0.3217094421386719,0.3863090515136718
0.3178150177001953,0.3863090515136718
0.3216310501098633,0.3949092864990234
0.3220888137817383,0.3949092864990234
0.3186996459960937,0.3858861923217773
0.3216562271118164,0.3858861923217773
0.3245733261108398,0.3926502227783203
0.3191946029663086,0.3926502227783203
0.3176788330078125,0.3904060363769531
0.3256994247436523,0.3904060363769531
0.3236349105834961,0.3920391082763672
0.3197925567626953,0.3920391082763672
0.3233917236328125,0.3952508926391601
0.3235965728759765,0.3952508926391601
0.3201501846313476,0.3883163452148438
0.3229156494140625,0.3883163452148438
0.3263477325439453,0.3945779800415039
0.3209541320800781,0.3945779800415039
0.3192003250122070,0.3953252792358398
0.3273891448974609,0.3953252792358398
0.3252988815307617,0.3924402236938476
0.3215721130371094,0.3924402236938476
0.3248628616333007,0.3982206344604492
0.3250722885131836,0.3982206344604492
0.3220338821411133,0.3913461685180664
0.3247707366943359,0.3913461685180664
0.3282760620117187,0.4007474899291992
0.3231216430664062,0.4007474899291992
0.3213214874267578,0.3966899871826172
0.3293981552124023,0.3966899871826172
0.3272272109985351,0.3959403991699219
0.3232824325561524,0.3959403991699219
0.3270217895507813,0.4011457443237305
0.3271625518798828,0.4011457443237305
0.3239513397216797,0.3972702026367188
0.3268461227416992,0.3972702026367188
0.3301895141601562,0.4018976211547852
0.3250133514404297,0.4018976211547852
0.3227354049682617,0.3999515533447265
0.3308246612548828,0.3999515533447265
0.3290382385253906,0.3990428924560547
0.3250368118286133,0.3990428924560547
0.3289278030395508,0.4074073791503906
0.3293403625488281,0.4074073791503906
0.3259168624877929,0.3984683990478515
0.3288837432861328,0.3984683990478515
0.3322174072265625,0.4054704666137695
0.3267906188964844,0.4054704666137695
0.3249584197998047,0.4029745101928711
0.3330877304077148,0.4029745101928711
0.3311056137084961,0.4051523208618164
0.3272214889526367,0.4051523208618164
0.3307748794555664,0.4081850051879883
0.3307783126831055,0.4081850051879883
0.3266635894775390,0.4000963211059570
0.3288528442382813,0.4000963211059570
0.3318643569946289,0.4038551330566406
0.3247610092163086,0.4038551330566406
0.3212196350097656,0.3982561111450195
0.3279876708984375,0.3982561111450195
0.3243432998657226,0.3903299331665039
0.3189794540405274,0.3903299331665039
0.3215829849243164,0.3919406890869140
0.3206989288330078,0.3919406890869140
0.3165664672851562,0.3818979263305664
0.3187494277954102,0.3818979263305664
0.3219091415405274,0.3901027679443359
0.3160955429077149,0.3901027679443359
0.3140115737915039,0.3847400665283203
0.3221580505371094,0.3847400665283203
0.3193954467773437,0.3835561752319336
0.3151439666748047,0.3835561752319336
0.3191339492797852,0.3885841369628906
0.3192323684692382,0.3885841369628906
0.3159822463989257,0.3841066360473633
0.3189176559448242,0.3841066360473633
0.3220596313476562,0.3885286331176758
0.3165470123291015,0.3885286331176758
0.3149288177490234,0.3867353439331054
0.3232383728027344,0.3867353439331054
0.3208992004394531,0.3855377197265625
0.3170207977294922,0.3855377197265625
0.3209987640380859,0.3943742752075195
0.3212688446044922,0.3943742752075195
0.3179803848266601,0.3856595993041992
0.3211532592773437,0.3856595993041992
0.3239850997924805,0.3927818298339844
0.3184204101562500,0.3927818298339844
0.3171861648559570,0.3907836914062500
0.3255563735961914,0.3907836914062500
0.3233774185180664,0.3928453445434570
0.3195648193359375,0.3928453445434570
0.3233814239501953,0.3965452194213867
0.3234540939331055,0.3965452194213867
0.3201896667480469,0.3897451400756836
0.3231954574584961,0.3897451400756836
0.3263769149780273,0.3960336685180664
0.3206314086914062,0.3960336685180664
0.3193073272705078,0.3967712402343750
0.3276529312133789,0.3967712402343750
0.3252222061157227,0.3936183929443359
0.3213661193847656,0.3936183929443359
0.3246809005737304,0.3991727828979492
0.3246517181396484,0.3991727828979492
0.3216613769531250,0.3919252395629882
0.3245195388793945,0.3919252395629882
0.3277753829956054,0.4010095596313477
0.3222724914550781,0.4010095596313477
0.3205942153930664,0.3965166091918945
0.3289409637451172,0.3965166091918945
0.3264352798461914,0.3955432891845703
0.3223125457763672,0.3955432891845703
0.3260931015014648,0.4005970001220703
0.3259695053100586,0.4005970001220703
0.3228847503662109,0.3965555191040039
0.3260009765625000,0.3965555191040039
0.3290868759155273,0.4009374618530273
0.3235393524169922,0.4009374618530273
0.3215572357177734,0.3987504959106445
0.3298496246337890,0.3987504959106445
0.3277742385864258,0.3977108001708984
0.3237745285034180,0.3977108001708984
0.3276397705078125,0.4060758590698242
0.3277805328369141,0.4060758590698242
0.3243913650512695,0.3969932556152344
0.3275230407714844,0.3969932556152344
0.3305957794189453,0.4037979125976562
0.3249395370483398,0.4037979125976562
0.3234020233154297,0.4010765075683594
0.3317064285278320,0.4010765075683594
0.3294805526733398,0.4033052444458008
0.3256433486938476,0.4033052444458008
0.3293615341186523,0.4067516326904297
0.3295223236083984,0.4067516326904297
0.3258029937744141,0.3999149322509766
0.3287710189819336,0.3999149322509766
0.3322471618652343,0.4064403533935547
0.3264329910278320,0.4064403533935547
0.3250860214233398,0.4067064285278320
0.3335168838500976,0.4067064285278320
0.3310489654541016,0.4037029266357422
0.3271808624267578,0.4037029266357422
0.3306758880615234,0.4090988159179688
0.3306604385375976,0.4090988159179688
0.3272306442260742,0.4012161254882812
0.3298479080200195,0.4012161254882812
0.3329309463500976,0.4093740463256836
0.3265216827392578,0.4093740463256836
0.3235988616943359,0.4004493713378906
0.3303199768066406,0.4004493713378906
0.3260181427001953,0.3943605422973633
0.3204391479492187,0.3943605422973633
0.3233333587646484,0.3952377319335937
0.3220647811889648,0.3952377319335937
0.3180130004882812,0.3874734878540039
0.3202131271362305,0.3874734878540039
0.3227525711059570,0.3898206710815429
0.3167238235473633,0.3898206710815429
0.3146495819091797,0.3862449645996094
0.3226816177368164,0.3862449645996094
0.3201810836791992,0.3843904495239258
0.3159570693969727,0.3843904495239258
0.3197616577148437,0.3923767089843750
0.3199321746826172,0.3923767089843750
0.3165727615356445,0.3831745147705078
0.3195539474487304,0.3831745147705078
0.3223526000976563,0.3899110794067382
0.3167387008666992,0.3899110794067382
0.3154775619506836,0.3874923706054688
0.3237733840942383,0.3874923706054688
0.3215755462646484,0.3895345687866211
0.3177360534667968,0.3895345687866211
0.3214284896850586,0.3933197021484375
0.3216957092285156,0.3933197021484375
0.3183992385864258,0.3868257522583008
0.3214525222778320,0.3868257522583008
0.3248027801513672,0.3934106826782227
0.3191894531250000,0.3934106826782227
0.3177875518798828,0.3941270828247070
0.3263265609741211,0.3941270828247070
0.3238758087158203,0.3915309906005859
0.3201730728149414,0.3915309906005859
0.3235021591186523,0.3973880767822265
0.3235605239868164,0.3973880767822265
0.3207412719726562,0.3904867172241211
0.3234598159790039,0.3904867172241211
0.3268432617187500,0.3997261047363281
0.3214021682739258,0.3997261047363281
0.3196197509765625,0.3952348709106445
0.3281747817993164,0.3952348709106445
0.3256204605102539,0.3943702697753906
0.3214508056640625,0.3943702697753906
0.3251953125000000,0.3992803573608398
0.3251014709472656,0.3992803573608398
0.3219354629516601,0.3949207305908203
0.3248462677001953,0.3949207305908203
0.3279693603515625,0.3992277145385742
0.3224481582641601,0.3992277145385742
0.3203018188476562,0.3964914321899414
0.3285358428955078,0.3964914321899414
0.3263740539550781,0.3954408645629883
0.3221340179443359,0.3954408645629883
0.3259437561035156,0.4032800674438476
0.3261188507080078,0.4032800674438476
0.3227079391479492,0.3940813064575195
0.3256959915161133,0.3940813064575195
0.3287538528442382,0.4006896972656250
0.3230581283569336,0.4006896972656250
0.3214073181152344,0.3976289749145508
0.3297117233276367,0.3976289749145508
0.3274166107177734,0.3997489929199219
0.3235084533691406,0.3997489929199219
0.3271877288818359,0.4032680511474609
0.3273353576660156,0.4032680511474609
0.3237516403198242,0.3964199066162109
0.3266201019287109,0.3964199066162109
0.3301820755004883,0.4029779434204102
0.3243724822998047,0.4029779434204102
0.3230684280395508,0.4031873703002929
0.3315084457397461,0.4031873703002929
0.3290794372558594,0.4005529403686524
0.3252244949340820,0.4005529403686524
0.3288597106933593,0.4061954498291016
0.3288774490356445,0.4061954498291016
0.3256261825561523,0.3989753723144531
0.3285169601440430,0.3989753723144531
0.3319427490234375,0.4086713790893555
0.3264215469360351,0.4086713790893555
0.3247982025146484,0.4039638519287109
0.3332622528076172,0.4039638519287109
0.3304338455200195,0.4033035278320312
0.3263116836547851,0.4033035278320312
0.3303108215332031,0.4086668014526367
0.3301689147949219,0.4086668014526367
0.3269868850708008,0.4039649963378906
0.3297866821289062,0.4039649963378906
0.3325973510742187,0.4068969726562500
0.3261663436889649,0.4068969726562500
0.3228092193603516,0.3994194030761719
0.3293386459350586,0.3994194030761719
0.3254590988159179,0.3927532196044922
0.3198034286499024,0.3927532196044922
0.3223737716674804,0.3964324951171875
0.3212596893310547,0.3964324951171875
0.3169715881347656,0.3838479995727539
0.3191116333007812,0.3838479995727539
0.3213134765625000,0.3880542755126953
0.3150712966918945,0.3880542755126953
0.3133243560791015,0.3837495803833008
0.3210514068603516,0.3837495803833008
0.3185411453247070,0.3843000411987305
0.3142765045166016,0.3843000411987305
0.3176347732543945,0.3867485046386719
0.3175369262695312,0.3867485046386719
0.3140373229980469,0.3792200088500977
0.3166688919067382,0.3792200088500977
0.3197994232177734,0.3849266052246094
0.3139394760131836,0.3849266052246094
0.3124700546264648,0.3848602294921875
0.3207927703857422,0.3848602294921875
0.3141048431396484,0.3824329376220703
0.3141048431396484,0.3824329376220703
0.3141048431396484,0.3806144714355469
0.3199132919311523,0.3806493759155273
0.3142238616943359,0.3806493759155273
0.3154758453369140,0.3871295928955078
0.3154758453369140,0.3871295928955078
0.3172336578369140,0.3839904785156250
0.3172336578369140,0.3839904785156250
0.3209564208984375,0.3899854660034179
0.3209564208984375,0.3899854660034179
0.3164005279541016,0.3797761917114258
0.3164005279541016,0.3797761917114258
0.3219240188598633,0.3885801315307617
0.3219240188598633,0.3885801315307617
0.3175249099731445,0.3906967163085938
0.3175249099731445,0.3906967163085938
0.3186012268066406,0.3862689971923828
0.3186012268066406,0.3862689971923828
0.3227783203125000,0.3880760192871094
0.3227783203125000,0.3880760192871094
0.3175855636596679,0.3862192153930664
0.3175855636596679,0.3862192153930664
0.3230323791503906,0.3909399032592774
0.3230323791503906,0.3909399032592774
0.3178230285644531,0.3917673110961914
0.3178230285644531,0.3917673110961914
0.3194755554199218,0.3828981399536133
0.3194755554199218,0.3828981399536133
0.3233751296997070,0.3933757781982422
0.3233751296997070,0.3933757781982422
0.3182744979858398,0.3873498916625976
0.3182744979858398,0.3873498916625976
0.3231719970703125,0.3912157058715820
0.3231719970703125,0.3912157058715820
0.3188329696655273,0.3885698318481445
0.3188329696655273,0.3885698318481445
0.3202926635742188,0.3888404846191406
0.3202926635742188,0.3888404846191406
0.3243507385253906,0.3959495544433594
0.3243507385253906,0.3959495544433594
0.3188552856445312,0.3890499114990234
0.3188552856445312,0.3890499114990234
0.3245773315429688,0.3888902664184570
0.3188432693481445,0.3888902664184570
0.3201032638549804,0.3952285766601563
0.3201032638549804,0.3952285766601563
0.3217603683471680,0.3913364410400391
0.3217603683471680,0.3913364410400391
0.3252977371215820,0.3976049423217773
0.3252977371215820,0.3976049423217773
0.3206108093261719,0.3871667861938476
0.3270132064819336,0.3871667861938476
0.3261829376220703,0.3959478378295898
0.3261829376220703,0.3959478378295898
0.3216722488403320,0.3987447738647461
0.3216722488403320,0.3987447738647461
0.3228641510009765,0.3939056396484375
0.3228641510009765,0.3939056396484375
0.3271516799926757,0.3957881927490234
0.3271516799926757,0.3957881927490234
0.3221763610839843,0.3942947387695312
0.3221763610839843,0.3942947387695312
0.3277135848999023,0.3986240386962890
0.3277135848999023,0.3986240386962890
0.3222988128662109,0.3994216918945312
0.3222988128662109,0.3994216918945312
0.3226787567138672,0.3879987716674805
0.3226787567138672,0.3879987716674805
0.3243072509765625,0.3945322036743164
0.3243072509765625,0.3945322036743164
0.3168743133544922,0.3849237442016601
0.3168743133544922,0.3849237442016601
0.3195505142211914,0.3844076156616211
0.3195505142211914,0.3844076156616211
0.3133930206298828,0.3790992736816406
0.3133930206298828,0.3790992736816406
0.3135892868041992,0.3773077011108398
0.3135892868041992,0.3773077011108398
0.3168165206909180,0.3823173522949219
0.3168165206909180,0.3823173522949219
0.3108421325683594,0.3752065658569336
0.3108421325683594,0.3752065658569336
0.3160686492919922,0.3743700027465820
0.3160686492919922,0.3743700027465820
0.3112604141235352,0.3801120758056640
0.3112604141235352,0.3801120758056640
0.3125404357910156,0.3763607025146484
0.3125404357910156,0.3763607025146484
0.3159770965576172,0.3815362930297851
0.3159770965576172,0.3815362930297851
0.3112432479858399,0.3712177276611328
0.3112432479858399,0.3712177276611328
0.3167364120483399,0.3799192428588867
0.3167364120483399,0.3799192428588867
0.3123899459838867,0.3821376800537109
0.3123899459838867,0.3821376800537109
0.3136116027832031,0.3782644271850586
0.3136116027832031,0.3782644271850586
0.3181211471557617,0.3806379318237305
0.3181211471557617,0.3806379318237305
0.3133861541748047,0.3795684814453125
0.3133861541748047,0.3795684814453125
0.3193571090698242,0.3850061416625977
0.3193571090698242,0.3850061416625977
0.3145334243774414,0.3865682601928711
0.3145334243774414,0.3865682601928711
0.3165470123291015,0.3784423828125000
0.3165470123291015,0.3784423828125000
0.3206977844238281,0.3893440246582031
0.3206977844238281,0.3893440246582031
0.3158329010009766,0.3836299896240234
0.3158329010009766,0.3836299896240234
0.3208745956420898,0.3877527236938477
0.3208745956420898,0.3877527236938477
0.3164354324340820,0.3850742340087890
0.3164354324340820,0.3850742340087890
0.3179809570312500,0.3852573394775390
0.3160177230834961,0.3852573394775390
0.3220241546630859,0.3921300888061524
0.3220241546630859,0.3921300888061524
0.3164731979370117,0.3852441787719726
0.3164731979370117,0.3852441787719726
0.3221963882446289,0.3851881027221680
0.3221963882446289,0.3851881027221680
0.3175415039062500,0.3913867950439453
0.3175415039062500,0.3913867950439453
0.3192129135131836,0.3875164031982422
0.3192129135131836,0.3875164031982422
0.3228836059570312,0.3937156677246094
0.3228836059570312,0.3937156677246094
0.3181932449340820,0.3833496093750000
0.3181932449340820,0.3833496093750000
0.3237419128417969,0.3922960281372070
0.3237419128417969,0.3922960281372070
0.3193897247314453,0.3951667785644531
0.3193897247314453,0.3951667785644531
0.3205627441406250,0.3904294967651367
0.3205627441406250,0.3904294967651367
0.3250476837158203,0.3925415039062500
0.3218347549438477,0.3925415039062500
0.3201948165893554,0.3911218643188477
0.3201948165893554,0.3911218643188477
0.3258928298950195,0.3959741592407227
0.3258928298950195,0.3959741592407227
0.3210142135620117,0.3978664398193359
0.3210142135620117,0.3978664398193359
0.3228921890258789,0.3894332885742187
0.3228921890258789,0.3894332885742187
0.3269416809082031,0.4004487991333008
0.3269416809082031,0.4004487991333008
0.3221946716308594,0.3953292846679687
0.3221946716308594,0.3953292846679687
0.3273914337158203,0.3990852355957031
0.3273914337158203,0.3990852355957031
0.3230855941772461,0.3964794158935547
0.3278646469116211,0.3964794158935547
0.3246763229370117,0.3969898223876953
0.3246763229370117,0.3969898223876953
0.3287132263183594,0.4032823562622070
0.3251346588134765,0.4032823562622070
0.3228830337524414,0.3959484100341797
0.3228830337524414,0.3959484100341797
0.3271224975585937,0.3921638488769531
0.3271224975585937,0.3921638488769531
0.3189846038818359,0.3927005767822265
0.3189846038818359,0.3927005767822265
0.3177349090576172,0.3846897125244140
0.3177349090576172,0.3846897125244140
0.3190750122070312,0.3864057540893555
0.3190750122070312,0.3864057540893555
0.3126852035522461,0.3736450195312500
0.3126852035522461,0.3736450195312500
0.3172107696533203,0.3808622360229492
0.3172107696533203,0.3808622360229492
0.3120340347290039,0.3818698883056640
0.3120340347290039,0.3818698883056640
0.3128053665161133,0.3768922805786133
0.3128053665161133,0.3768922805786133
0.3167421340942383,0.3785127639770507
0.3167421340942383,0.3785127639770507
0.3115711212158203,0.3764533996582031
0.3115711212158203,0.3764533996582031
0.3171655654907227,0.3815591812133789
0.3171655654907227,0.3815591812133789
0.3120861053466797,0.3825439453125000
0.3120861053466797,0.3825439453125000
0.3140321731567383,0.3743345260620117
0.3140321731567383,0.3743345260620117
0.3181228637695312,0.3852132797241211
0.3181228637695312,0.3852132797241211
0.3134090423583984,0.3797533035278320
0.3134090423583984,0.3797533035278320
0.3188793182373047,0.3845443725585938
0.3188793182373047,0.3845443725585938
0.3146232604980468,0.3823883056640625
0.3146232604980468,0.3823883056640625
0.3165178298950195,0.3830280303955078
0.3165178298950195,0.3830280303955078
0.3207504272460938,0.3905605316162109
0.3207504272460938,0.3905605316162109
0.3156417846679687,0.3838451385498047
0.3156417846679687,0.3838451385498047
0.3213821411132812,0.3839349746704102
0.3155805587768555,0.3839349746704102
0.3166969299316406,0.3901119232177734
0.3166969299316406,0.3901119232177734
0.3183500289916992,0.3861997604370117
0.3183500289916992,0.3861997604370117
0.3218776702880859,0.3920974731445312
0.3218776702880859,0.3920974731445312
0.3170368194580078,0.3814413070678711
0.3170368194580078,0.3814413070678711
0.3225070953369141,0.3901914596557617
0.3225070953369141,0.3901914596557617
0.3177274703979492,0.3926038742065430
0.3177274703979492,0.3926038742065430
0.3190114974975586,0.3876365661621093
0.3190114974975586,0.3876365661621093
0.3232601165771484,0.3895792007446289
0.3232601165771484,0.3895792007446289
0.3182722091674804,0.3878683090209961
0.3182722091674804,0.3878683090209961
0.3239221572875977,0.3925758361816406
0.3239221572875977,0.3925758361816406
0.3188661575317382,0.3942615509033203
0.3188661575317382,0.3942615509033203
0.3207761764526367,0.3858661651611328
0.3207761764526367,0.3858661651611328
0.3248880386352539,0.3968633651733398
0.3248880386352539,0.3968633651733398
0.3201078414916992,0.3917478561401367
0.3201078414916992,0.3917478561401367
0.3254196166992188,0.3956731796264648
0.3254196166992188,0.3956731796264648
0.3211555480957031,0.3932819366455078
0.3211555480957031,0.3932819366455078
0.3229116439819336,0.3939634323120117
0.3229116439819336,0.3939634323120117
0.3271430969238281,0.4007549285888672
0.3271430969238281,0.4007549285888672
0.3219738006591797,0.3946489334106445
0.3219738006591797,0.3946489334106445
0.3278240203857422,0.3949298858642578
0.3278240203857422,0.3949298858642578
0.3232154846191406,0.4013946533203125
0.3232154846191406,0.4013946533203125
0.3250247955322266,0.3981954574584961
0.3250247955322266,0.3981954574584961
0.3286708831787109,0.4038459777832031
0.3286708831787109,0.4038459777832031
0.3238471984863281,0.3929763793945312
0.3301671981811523,0.3929763793945312
0.3290010452270508,0.4011932373046875
0.3290010452270508,0.4011932373046875
0.3231061935424804,0.4001226425170898
0.3231061935424804,0.4001226425170898
0.3212894439697265,0.3902681350708008
0.3212894439697265,0.3902681350708008
0.3225505828857422,0.3875947952270508
0.3179901123046875,0.3875947952270508
0.3152675628662109,0.3820129394531250
0.3152675628662109,0.3820129394531250
0.3192850112915039,0.3847990036010742
0.3192850112915039,0.3847990036010742
0.3131961822509766,0.3841907501220703
0.3131961822509766,0.3841907501220703
0.3144098281860351,0.3749250411987304
0.3144098281860351,0.3749250411987304
0.3181486129760742,0.3850730895996093
0.3181486129760742,0.3850730895996093
0.3129621505737304,0.3788171768188476
0.3129621505737304,0.3788171768188476
0.3181383132934570,0.3830698013305664
0.3181383132934570,0.3830698013305664
0.3136613845825195,0.3805309295654297
0.3136613845825195,0.3805309295654297
0.3153202056884766,0.3809383392333984
0.3153202056884766,0.3809383392333984
0.3195470809936523,0.3882751464843750
0.3195470809936523,0.3882751464843750
0.3145534515380859,0.3817211151123047
0.3145534515380859,0.3817211151123047
0.3204849243164062,0.3823591232299804
0.3204849243164062,0.3823591232299804
0.3159381866455078,0.3888542175292969
0.3159381866455078,0.3888542175292969
0.3179340362548828,0.3854181289672852
0.3179340362548828,0.3854181289672852
0.3218072891235351,0.3918960571289062
0.3218072891235351,0.3918960571289062
0.3170705795288086,0.3816490173339844
0.3170705795288086,0.3816490173339844
0.3227548599243164,0.3906984329223633
0.3168199539184570,0.3906984329223633
0.3182218551635742,0.3931938171386719
0.3182218551635742,0.3931938171386719
0.3193971633911133,0.3881824493408203
0.3193971633911133,0.3881824493408203
0.3233837127685547,0.3900186538696289
0.3233837127685547,0.3900186538696289
0.3217483520507812,0.3971557617187500
0.3217483520507812,0.3969915390014648
0.3217483520507812,0.3969915390014648
0.3185297012329101,0.3879100799560547
0.3214914321899414,0.3879100799560547
0.3241613388061523,0.3944984436035156
0.3184547424316406,0.3944984436035156
0.3170808792114257,0.3912260055541992
0.3252416610717773,0.3912260055541992
0.3229848861694336,0.3931177139282226
0.3189708709716797,0.3931177139282226
0.3225214004516602,0.3963483810424804
0.3228727340698242,0.3963483810424804
0.3193948745727539,0.3894155502319336
0.3221082687377930,0.3894155502319336
0.3253246307373047,0.3956394195556641
0.3197273254394531,0.3956394195556641
0.3182109832763672,0.3956096649169922
0.3266252517700195,0.3956096649169922
0.3242317199707031,0.3931039810180664
0.3204483032226562,0.3931039810180664
0.3235702514648438,0.3985748291015625
0.3237585067749023,0.3985748291015625
0.3206960678100586,0.3916145324707031
0.3233539581298828,0.3916145324707031
0.3268712997436523,0.4008550643920898
0.3214611053466797,0.4008550643920898
0.3197244644165039,0.3961664199829101
0.3283006668090820,0.3961664199829101
0.3257801055908203,0.3958482742309570
0.3216653823852539,0.3958482742309570
0.3254322052001953,0.4008378982543945
0.3255437850952148,0.4008378982543945
0.3224584579467774,0.3970561981201172
0.3253555297851562,0.3970561981201172
0.3285135269165039,0.4017253875732422
0.3232732772827148,0.4017253875732422
0.3212162017822265,0.3991361618041992
0.3293838500976562,0.3991361618041992
0.3274085998535156,0.3984529495239258
0.3232555389404297,0.3984529495239258
0.3269433975219727,0.4059654235839844
0.3269010543823242,0.4059654235839844
0.3229866027832031,0.3949258804321289
0.3248479843139648,0.3949258804321289
0.3262659072875976,0.3965703964233399
0.3191013336181641,0.3965703964233399
0.3160703659057617,0.3881446838378906
0.3227743148803711,0.3881446838378906
0.3193725585937500,0.3859600067138672
0.3142061233520508,0.3859600067138672
0.3169183731079102,0.3860372543334961
0.3165327072143554,0.3860372543334961
0.3120592117309570,0.3768928527832031
0.3142227172851562,0.3768928527832031
0.3173069000244140,0.3818161010742188
0.3112174987792969,0.3818161010742188
0.3095026016235352,0.3801572799682617
0.3174510955810547,0.3801572799682617
0.3148807525634765,0.3768110275268555
0.3108203887939453,0.3768110275268555
0.3140098571777344,0.3815820693969726
0.3139108657836914,0.3815820693969726
0.3105571746826172,0.3737279891967774
0.3131166458129883,0.3737279891967774
0.3164892196655273,0.3827322006225586
0.3109022140502929,0.3827322006225586
0.3092004776000977,0.3778484344482422
0.3176628112792969,0.3778484344482422
0.3148389816284179,0.3773672103881836
0.3107357025146484,0.3773672103881836
0.3146598815917969,0.3827573776245117
0.3147708892822266,0.3827573776245117
0.3117851257324218,0.3785453796386719
0.3146741867065430,0.3785453796386719
0.3179855346679688,0.3836093902587890
0.3128408432006836,0.3836093902587890
0.3110715866088867,0.3811185836791992
0.3192466735839843,0.3811185836791992
0.3170763015747070,0.3802465438842773
0.3130062103271484,0.3802465438842773
0.3167942047119141,0.3885606765747070
0.3171392440795898,0.3885606765747070
0.3136917114257812,0.3797910690307617
0.3167346954345703,0.3797910690307617
0.3194229125976563,0.3863742828369141
0.3138399124145508,0.3863742828369141
0.3123670578002929,0.3832946777343750
0.3204483032226562,0.3832946777343750
0.3182561874389648,0.3849334716796875
0.3141300201416016,0.3849334716796875
0.3177366256713867,0.3880256652832031
0.3180856704711914,0.3880256652832031
0.3144172668457031,0.3809137344360352
0.3169921875000000,0.3809137344360352
0.3202274322509766,0.3868143081665039
0.3145219802856445,0.3868143081665039
0.3129804611206055,0.3865602493286133
0.3212167739868164,0.3865602493286133
0.3188312530517578,0.3838399887084961
0.3150209426879882,0.3838399887084961
0.3179563522338867,0.3891746520996094
0.3181303024291992,0.3891746520996094
0.3150495529174804,0.3820959091186523
0.3176702499389648,0.3820959091186523
0.3210891723632812,0.3910943984985352
0.3156349182128906,0.3910943984985352
0.3138914108276367,0.3862827301025391
0.3223720550537109,0.3862827301025391
0.3197484970092773,0.3857110977172851
0.3155862808227539,0.3857110977172851
0.3192237854003906,0.3904815673828125
0.3193714141845703,0.3904815673828125
0.3162672042846680,0.3864137649536133
0.3190544128417969,0.3864137649536133
0.3223085403442383,0.3910966873168945
0.3170740127563477,0.3910966873168945
0.3148904800415039,0.3885589599609375
0.3230278015136719,0.3885589599609375
0.3210800170898437,0.3879575729370117
0.3169544219970703,0.3879575729370117
0.3208585739135742,0.3958305358886718
0.3211212158203125,0.3958305358886718
0.3177904129028320,0.3871147155761719
0.3209730148315429,0.3871147155761719
0.3239393234252930,0.3940155029296875
0.3183706283569336,0.3940155029296875
0.3167472839355469,0.3909038543701172
0.3249681472778320,0.3909038543701172
0.3228412628173828,0.3931446075439453
0.3188655853271484,0.3931446075439453
0.3223514556884766,0.3961400985717773
0.3225814819335938,0.3961400985717773
0.3182178497314453,0.3875392913818359
0.3199911117553711,0.3875392913818359
0.3224338531494140,0.3902526855468750
0.3154958724975586,0.3902526855468750
0.3128013610839844,0.3853975296020508
0.3197387695312500,0.3853975296020508
0.3161424636840820,0.3786272048950195
0.3112569808959961,0.3786272048950195
0.3136161804199218,0.3805578231811523
0.3128654479980469,0.3805578231811523
0.3088531494140625,0.3706632614135742
0.3109422683715820,0.3706632614135742
0.3138456344604492,0.3781179428100586
0.3079004287719727,0.3781179428100586
0.3058748245239258,0.3720651626586914
0.3139675140380859,0.3720651626586914
0.3108203887939453,0.3704166412353516
0.3064035415649414,0.3704166412353516
0.3100708007812500,0.3746555328369141
0.3099174499511719,0.3746555328369141
0.3065660476684570,0.3693729400634765
0.3091775894165039,0.3693729400634765
0.3123001098632812,0.3736015319824219
0.3069374084472656,0.3736015319824219
0.3047990798950195,0.3705190658569336
0.3128345489501953,0.3705190658569336
0.3104438781738281,0.3691818237304688
0.3063726425170898,0.3691818237304688
0.3101079940795898,0.3771686553955078
0.3104782104492188,0.3771686553955078
0.3070718765258789,0.3684213638305664
0.3101800918579101,0.3684213638305664
0.3129987716674805,0.3754114151000976
0.3074363708496093,0.3754114151000976
0.3060882568359375,0.3728736877441406
0.3143079757690430,0.3728736877441406
0.3123058319091797,0.3749301910400391
0.3084251403808594,0.3749301910400391
0.3120294570922851,0.3787027359008789
0.3126428604125976,0.3787027359008789
0.3091535568237305,0.3720617294311523
0.3119190216064453,0.3720617294311523
0.3151176452636719,0.3782341003417969
0.3095787048339844,0.3782341003417969
0.3080183029174804,0.3783485412597656
0.3163599014282226,0.3783485412597656
0.3139732360839844,0.3756706237792969
0.3102567672729492,0.3756706237792969
0.3132482528686523,0.3809635162353516
0.3133810043334961,0.3809635162353516
0.3102184295654297,0.3738452911376953
0.3128894805908203,0.3738452911376953
0.3162929534912109,0.3827201843261719
0.3108472824096680,0.3827201843261719
0.3090442657470703,0.3779571533203125
0.3175735473632812,0.3779571533203125
0.3149076461791992,0.3773632049560547
0.3107917785644531,0.3773632049560547
0.3144544601440429,0.3821611404418945
0.3146055221557617,0.3821611404418945
0.3114166259765625,0.3781866073608398
0.3142724990844726,0.3781866073608398
0.3175180435180664,0.3829708099365234
0.3124643325805664,0.3829708099365234
0.3101514816284179,0.3805486679077149
0.3182779312133789,0.3805486679077149
0.3163856506347656,0.3799901962280273
0.3123161315917969,0.3799901962280273
0.3162815093994141,0.3880222320556641
0.3166540145874023,0.3880222320556641
0.3132894515991211,0.3794506072998047
0.3165561676025391,0.3794506072998047
0.3195247650146484,0.3865488052368164
0.3140132904052734,0.3865488052368164
0.3124666213989258,0.3837718963623047
0.3207304000854492,0.3837718963623047
0.3187465667724609,0.3863330841064453
0.3148870468139648,0.3863330841064453
0.3186544418334961,0.3900941848754882
0.3193176269531250,0.3900941848754882
0.3155525207519531,0.3838851928710937
0.3183809280395508,0.3838851928710937
0.3219972610473633,0.3907333374023437
0.3165224075317383,0.3907333374023437
0.3151376724243164,0.3909679412841797
0.3234838485717773,0.3909679412841797
0.3212190628051758,0.3886882781982422
0.3176908493041992,0.3886882781982422
0.3210262298583984,0.3943622589111328
0.3212162017822265,0.3943622589111328
0.3179552078247070,0.3870746612548828
0.3206714630126953,0.3870746612548828
0.3240114212036133,0.3964015960693359
0.3184719085693359,0.3964015960693359
0.3163936614990234,0.3907608032226562
0.3244989395141601,0.3907608032226562
0.3206577301025391,0.3866849899291992
0.3147771835327148,0.3866849899291992
0.3171569824218750,0.3861494064331055
0.3155948638916016,0.3861494064331055
0.3110509872436523,0.3766021728515625
0.3125341415405273,0.3766021728515625
0.3146581649780273,0.3774026870727539
0.3084102630615234,0.3774026870727539
0.3056991577148437,0.3719650268554687
0.3132299423217773,0.3719650268554687
0.3104862213134765,0.3689512252807617
0.3059520721435547,0.3689512252807617
0.3094642639160156,0.3758543014526367
0.3094785690307617,0.3758543014526367
0.3059103012084961,0.3663093566894531
0.3089401245117188,0.3663093566894531
0.3113256454467773,0.3725114822387695
0.3055767059326172,0.3725114822387695
0.3040798187255859,0.3692087173461914
0.3121490478515625,0.3692087173461914
0.3099746704101562,0.3707187652587891
0.3059606552124023,0.3707187652587891
0.3095844268798828,0.3741691589355469
0.3100748062133789,0.3741691589355469
0.3065792083740234,0.3674583435058594
0.3093635559082031,0.3674583435058594
0.3126159667968750,0.3738613128662109
0.3071496963500976,0.3738613128662109
0.3057426452636718,0.3743545532226563
0.3143348693847656,0.3743545532226563
0.3121381759643554,0.3723438262939453
0.3086242675781250,0.3723438262939453
0.3117994308471679,0.3783805847167969
0.3121055603027343,0.3783805847167969
0.3092370986938476,0.3718540191650391
0.3121341705322265,0.3718540191650391
0.3156286239624023,0.3814081192016601
0.3101503372192383,0.3814081192016601
0.3086528778076172,0.3772184371948242
0.3174522399902344,0.3772184371948242
0.3147462844848632,0.3767950057983399
0.3106035232543945,0.3767950057983399
0.3143932342529297,0.3818017959594727
0.3144567489624023,0.3818017959594727
0.3113204956054688,0.3775600433349609
0.3142873764038086,0.3775600433349609
0.3174041748046875,0.3822257995605469
0.3120700836181641,0.3822257995605469
0.3098024368286132,0.3795553207397461
0.3179826736450195,0.3795553207397461
0.3159255981445312,0.3787073135375976
0.3117588043212891,0.3787073135375976
0.3155553817749023,0.3863136291503906
0.3157951354980469,0.3863136291503906
0.3124465942382812,0.3774747848510742
0.3157207489013672,0.3774747848510742
0.3185422897338867,0.3842428207397461
0.3128408432006836,0.3842428207397461
0.3112632751464844,0.3809909820556641
0.3195041656494140,0.3809909820556641
0.3173904418945312,0.3832723617553711
0.3134096145629883,0.3832723617553711
0.3170064926147461,0.3868354797363281
0.3175134658813477,0.3868354797363281
0.3137609481811524,0.3801538467407227
0.3165853500366211,0.3801538467407227
0.3200351715087891,0.3868331909179688
0.3143800735473632,0.3868331909179688
0.3129678726196289,0.3868383407592773
0.3214319229125976,0.3868383407592773
0.3153854370117187,0.3851400375366211
0.3153854370117187,0.3831865310668945
0.3211503982543945,0.3834222793579101
0.3152612686157226,0.3834222793579101
0.3164875030517578,0.3898738861083984
0.3164875030517578,0.3898738861083984
0.3183397293090820,0.3861894607543945
0.3183397293090820,0.3861894607543945
0.3222873687744141,0.3926073074340820
0.3222873687744141,0.3926073074340820
0.3174413681030273,0.3824192047119140
0.3174413681030273,0.3824192047119140
0.3230724334716797,0.3913192749023438
0.3230724334716797,0.3913192749023438
0.3185680389404297,0.3941253662109375
0.3185680389404297,0.3941253662109375
0.3200992584228515,0.3894292831420899
0.3200992584228515,0.3894292831420899
0.3241115570068359,0.3913227081298828
0.3241115570068359,0.3913227081298828
0.3187602996826172,0.3888061523437500
0.3187602996826172,0.3888061523437500
0.3231588363647461,0.3902114868164062
0.3231588363647461,0.3902114868164062
0.3154066085815430,0.3869087219238281
0.3154066085815430,0.3869087219238281
0.3142553329467773,0.3740467071533203
0.3142553329467773,0.3740467071533203
0.3160234451293945,0.3808422088623047
0.3160234451293945,0.3808422088623047
0.3094968795776367,0.3729578018188476
0.3094968795776367,0.3729578018188476
0.3138965606689453,0.3748495101928711
0.3138965606689453,0.3748495101928711
0.3084829330444336,0.3715232849121093
0.3084829330444336,0.3715232849121093
0.3096845626831055,0.3709711074829101
0.3096845626831055,0.3709711074829101
0.3135538101196289,0.3770627975463867
0.3135538101196289,0.3770627975463867
0.3083158493041992,0.3706787109375000
0.3083158493041992,0.3706787109375000
0.3138290405273437,0.3707468032836914
0.3138290405273437,0.3707468032836914
0.3091884613037109,0.3770673751831055
0.3091884613037109,0.3770673751831055
0.3109451293945312,0.3738304138183594
0.3109451293945312,0.3738304138183594
0.3150627136230469,0.3798259735107422
0.3150627136230469,0.3798259735107422
0.3102853775024414,0.3700492858886719
0.3102853775024414,0.3700492858886719
0.3161527633666992,0.3790992736816406
0.3161527633666992,0.3790992736816406
0.3118085861206055,0.3817165374755859
0.3118085861206055,0.3817165374755859
0.3134811401367187,0.3778575897216797
0.3134811401367187,0.3778575897216797
0.3176679611206055,0.3802356719970703
0.3176679611206055,0.3802356719970703
0.3127944946289062,0.3786832809448242
0.3127944946289062,0.3786832809448242
0.3185594558715820,0.3837547302246094
0.3124397277832031,0.3837547302246094
0.3137603759765625,0.3848510742187500
0.3137603759765625,0.3848510742187500
0.3151971817016602,0.3763315200805664
0.3133146286010742,0.3763315200805664
0.3191671371459961,0.3867708206176758
0.3191671371459961,0.3867708206176758
0.3140041351318359,0.3807592391967773
0.3201993942260742,0.3807592391967773
0.3194675445556641,0.3845443725585938
0.3194675445556641,0.3845443725585938
0.3144990921020508,0.3820867538452148
0.3144990921020508,0.3820867538452148
0.3160314559936523,0.3821783065795898
0.3160314559936523,0.3821783065795898
0.3200511932373047,0.3891265869140625
0.3200511932373047,0.3891265869140625
0.3149608612060547,0.3822790145874023
0.3149608612060547,0.3822790145874023
0.3204866409301758,0.3821748733520507
0.3204866409301758,0.3821748733520507
0.3158214569091797,0.3886007308959961
0.3158214569091797,0.3886007308959961
0.3174882888793945,0.3847761154174805
0.3174882888793945,0.3847761154174805
0.3215171813964844,0.3910434722900391
0.3215171813964844,0.3910434722900391
0.3164525985717773,0.3808616638183593
0.3164525985717773,0.3808616638183593
0.3221517562866211,0.3896512985229492
0.3163381576538086,0.3896512985229492
0.3177423477172852,0.3926313400268555
0.3177423477172852,0.3926313400268555
0.3193593978881836,0.3880016326904297
0.3193593978881836,0.3880016326904297
0.3235073089599609,0.3903162002563477
0.3235073089599609,0.3903162002563477
0.3186080932617187,0.3888444900512695
0.3186080932617187,0.3888444900512695
0.3243930816650391,0.3933494567871094
0.3243930816650391,0.3933494567871094
0.3196586608886718,0.3953378677368164
0.3196586608886718,0.3953378677368164
0.3212327957153320,0.3870901107788086
0.3212327957153320,0.3870901107788086
0.3253618240356445,0.3977937698364258
0.3253618240356445,0.3977937698364258
0.3203001022338867,0.3924179077148438
0.3203001022338867,0.3924179077148438
0.3253732681274414,0.3947771072387695
0.3253732681274414,0.3947771072387695
0.3191007614135742,0.3887317657470703
0.3191007614135742,0.3887317657470703
0.3173458099365234,0.3833747863769531
0.3173458099365234,0.3833747863769531
0.3186069488525390,0.3848808288574219
0.3186069488525390,0.3848808288574219
0.3110601425170899,0.3747533798217773
0.3110601425170899,0.3747533798217773
0.3147394180297852,0.3718431472778320
0.3147394180297852,0.3718431472778320
0.3088846206665039,0.3762439727783203
0.3088846206665039,0.3762439727783203
0.3097434997558594,0.3715181350708008
0.3097434997558594,0.3715181350708008
0.3132184982299804,0.3761318206787109
0.3132184982299804,0.3761318206787109
0.3076274871826172,0.3653800964355469
0.3076274871826172,0.3653800964355469
0.3130004882812500,0.3731849670410156
0.3069013595581054,0.3731849670410156
0.3082248687744141,0.3751098632812500
0.3082248687744141,0.3751098632812500
0.3096582412719727,0.3706409454345703
0.3096582412719727,0.3706409454345703
0.3135721206665039,0.3728965759277343
0.3135721206665039,0.3728965759277343
0.3086402893066406,0.3712903976440430
0.3086402893066406,0.3712903976440430
0.3145231246948242,0.3764625549316406
0.3145231246948242,0.3764625549316406
0.3100027084350586,0.3781208038330078
0.3100027084350586,0.3781208038330078
0.3115854263305664,0.3701053619384765
0.3115854263305664,0.3701053619384765
0.3158878326416015,0.3808181762695312
0.3158878326416015,0.3808181762695312
0.3109565734863281,0.3752923965454101
0.3109565734863281,0.3752923965454101
0.3165819168090820,0.3791856765747070
0.3165819168090820,0.3791856765747070
0.3118200302124023,0.3770702362060547
0.3118200302124023,0.3770702362060547
0.3132562637329102,0.3769237518310547
0.3132562637329102,0.3769237518310547
0.3172731399536133,0.3836957931518555
0.3172731399536133,0.3836957931518555
0.3120466232299804,0.3768299102783203
0.3120466232299804,0.3768299102783203
0.3173938751220703,0.3762376785278320
0.3173938751220703,0.3762376785278320
0.3125844955444336,0.3823602676391601
0.3125844955444336,0.3823602676391601
0.3140476226806641,0.3782300949096680
0.3140476226806641,0.3782300949096680
0.3180788040161133,0.3841501235961914
0.3180788040161133,0.3841501235961914
0.3127017974853515,0.3739620208740234
0.3127017974853515,0.3739620208740234
0.3182905197143555,0.3822715759277344
0.3182905197143555,0.3822715759277344
0.3138393402099609,0.3851806640625000
0.3184066772460937,0.3851806640625000
0.3153585433959961,0.3803947448730469
0.3153585433959961,0.3803947448730469
0.3192272186279297,0.3823396682739258
0.3192272186279297,0.3823396682739258
0.3142192840576172,0.3808547973632813
0.3142192840576172,0.3808547973632813
0.3200191497802734,0.3850816726684570
0.3200191497802734,0.3850816726684570
0.3154609680175781,0.3872531890869140
0.3154609680175781,0.3872531890869140
0.3168651580810547,0.3789676666259765
0.3168651580810547,0.3789676666259765
0.3210588455200195,0.3897932052612305
0.3210588455200195,0.3897932052612305
0.3161504745483398,0.3849283218383789
0.3161504745483398,0.3849283218383789
0.3219377517700195,0.3882242202758789
0.3219377517700195,0.3882242202758789
0.3172908782958984,0.3863765716552734
0.3172908782958984,0.3863765716552734
0.3188404083251953,0.3867622375488281
0.3188404083251953,0.3867622375488281
0.3231651306152344,0.3933517456054688
0.3231651306152344,0.3933517456054688
0.3180473327636719,0.3873006820678711
0.3180473327636719,0.3873006820678711
0.3231645584106445,0.3858518600463867
0.3231645584106445,0.3858518600463867
0.3170511245727539,0.3890396118164062
0.3170511245727539,0.3890396118164062
0.3159404754638672,0.3809623718261719
0.3159404754638672,0.3809623718261719
0.3172588348388672,0.3817199707031250
0.3172588348388672,0.3817199707031250
0.3096015930175781,0.3676374435424805
0.3096015930175781,0.3676374435424805
0.3133209228515625,0.3725355148315430
0.3133209228515625,0.3725355148315430
0.3074947357177734,0.3726367950439453
0.3113193511962891,0.3726367950439453
0.3078294754028320,0.3667940139770507
0.3078294754028320,0.3667940139770507
0.3109983444213867,0.3675292968750000
0.3109983444213867,0.3675292968750000
0.3053661346435547,0.3650184631347656
0.3053661346435547,0.3650184631347656
0.3106435775756836,0.3686342239379883
0.3106435775756836,0.3686342239379883
0.3056991577148437,0.3696247100830078
0.3056991577148437,0.3696247100830078
0.3066707611083984,0.3608299255371094
0.3066707611083984,0.3608299255371094
0.3106807708740234,0.3709739685058593
0.3106807708740234,0.3709739685058593
0.3055629730224609,0.3652656555175781
0.3055629730224609,0.3652656555175781
0.3111539840698242,0.3689031600952148
0.3111539840698242,0.3689031600952148
0.3065134048461914,0.3671287536621093
0.3065134048461914,0.3671287536621093
0.3080835342407227,0.3674737930297852
0.3080835342407227,0.3674737930297852
0.3124300003051758,0.3746818542480468
0.3124300003051758,0.3746818542480468
0.3074712753295898,0.3685157775878906
0.3074712753295898,0.3685157775878906
0.3130090713500976,0.3680671691894531
0.3130090713500976,0.3680671691894531
0.3085115432739258,0.3746417999267578
0.3085115432739258,0.3746417999267578
0.3099512100219726,0.3706031799316406
0.3099512100219726,0.3706031799316406
0.3140184402465820,0.3765684127807617
0.3140184402465820,0.3765684127807617
0.3085544586181641,0.3664112091064453
0.3085544586181641,0.3664112091064453
0.3140316009521484,0.3740793228149414
0.3140316009521484,0.3740793228149414
0.3094808578491211,0.3768980026245117
0.3094808578491211,0.3768980026245117
0.3107030868530273,0.3717378616333007
0.3107030868530273,0.3717378616333007
0.3145597457885742,0.3736272811889648
0.3145597457885742,0.3736272811889648
0.3093955993652344,0.3719512939453125
0.3093955993652344,0.3719512939453125
0.3150993347167969,0.3756769180297851
0.3150993347167969,0.3756769180297851
0.3104736328125000,0.3778266906738281
0.3104736328125000,0.3778266906738281
0.3115985870361328,0.3693609237670898
0.3115985870361328,0.3693609237670898
0.3157453536987305,0.3798900604248047
0.3157453536987305,0.3798900604248047
0.3106796264648438,0.3750097274780274
0.3106796264648438,0.3750097274780274
0.3164234161376953,0.3778701782226562
0.3164234161376953,0.3778701782226562
0.3116689682006836,0.3760820388793945
0.3162082672119140,0.3760820388793945
0.3130336761474609,0.3761838912963867
0.3130336761474609,0.3761838912963867
0.3174093246459961,0.3826349258422851
0.3174093246459961,0.3826349258422851
0.3122995376586914,0.3768453598022461
0.3122995376586914,0.3768453598022461
0.3177978515625000,0.3762937545776367
0.3177978515625000,0.3762937545776367
0.3132791519165039,0.3830921173095703
0.3132791519165039,0.3830921173095703
0.3147571563720703,0.3798294067382812
0.3147571563720703,0.3798294067382812
0.3190658569335937,0.3854393005371093
0.3190658569335937,0.3854393005371093
0.3137769699096680,0.3755664825439453
0.3202274322509766,0.3755664825439453
0.3194149017333984,0.3831779479980469
0.3194149017333984,0.3831779479980469
0.3145151138305664,0.3847932815551758
0.3182601928710938,0.3847932815551758
0.3145048141479492,0.3775777816772461
0.3145048141479492,0.3775777816772461
0.3162528991699219,0.3755716323852539
0.3162528991699219,0.3755716323852539
0.3102304458618164,0.3763080596923828
0.3122423171997070,0.3763080596923828
0.3087450027465820,0.3641304016113281
0.3060321807861328,0.3641304016113281
0.3107334136962890,0.3683790206909179
0.3059240341186523,0.3683790206909179
0.3022911071777344,0.3641183853149414
0.3100004196166992,0.3641183853149414
0.3076108932495117,0.3644308090209961
0.3034509658813476,0.3644308090209961
0.3069288253784180,0.3671470642089844
0.3072458267211914,0.3671470642089844
0.3030475616455078,0.3594057083129883
0.3058210372924804,0.3594057083129883
0.3090522766113281,0.3654155731201172
0.3032363891601562,0.3654155731201172
0.3016519546508789,0.3654561996459961
0.3098670959472656,0.3654561996459961
0.3075462341308594,0.3623016357421875
0.3040981292724609,0.3623016357421875
0.3074169158935547,0.3679338455200195
0.3075531005859375,0.3679338455200195
0.3042148590087890,0.3605587005615234
0.3072355270385742,0.3605587005615234
0.3106910705566406,0.3702386856079101
0.3053861618041992,0.3702386856079101
0.3037496566772461,0.3671092987060547
0.3125295639038086,0.3671092987060547
0.3096096038818359,0.3663671493530273
0.3058399200439453,0.3663671493530273
0.3099340438842773,0.3723180770874023
0.3101165771484375,0.3723180770874023
0.3069877624511719,0.3678726196289062
0.3101789474487305,0.3678726196289062
0.3133970260620117,0.3730573654174805
0.3085401535034180,0.3730573654174805
0.3062639236450195,0.3716159820556640
0.3144710540771484,0.3716159820556640
0.3122056961059570,0.3698564529418945
0.3083318710327148,0.3698564529418945
0.3123270034790039,0.3781923294067382
0.3124517440795898,0.3781923294067382
0.3090316772460938,0.3694610595703125
0.3126508712768555,0.3694610595703125
0.3148962020874023,0.3760036468505859
0.3093824386596680,0.3760036468505859
0.3078660964965820,0.3740638732910156
0.3158689498901367,0.3740638732910156
0.3137849807739257,0.3750360488891601
0.3099758148193359,0.3750360488891601
0.3136505126953125,0.3787021636962891
0.3143074035644531,0.3787021636962891
0.3103534698486328,0.3717241287231445
0.3131921768188476,0.3717241287231445
0.3164239883422851,0.3775131225585938
0.3107625961303711,0.3775131225585938
0.3091672897338867,0.3786872863769531
0.3173624038696289,0.3786872863769531
0.3150272369384766,0.3754943847656250
0.3117633819580078,0.3754943847656250
0.3147325515747070,0.3810842514038086
0.3147136688232422,0.3810842514038086
0.3116220474243164,0.3741130828857422
0.3145626068115234,0.3741130828857422
0.3179363250732422,0.3829942703247070
0.3124769210815430,0.3829942703247070
0.3108146667480469,0.3795541763305664
0.3195888519287109,0.3795541763305664
0.3167009353637695,0.3783004760742187
0.3127962112426758,0.3783004760742187
0.3165424346923828,0.3834583282470703
0.3166339874267578,0.3834583282470703
0.3135429382324219,0.3793756484985352
0.3166797637939453,0.3793756484985352
0.3198326110839844,0.3843418121337890
0.3148996353149414,0.3843418121337890
0.3124614715576172,0.3830955505371094
0.3207063674926758,0.3830955505371094
0.3186681747436523,0.3818710327148437
0.3147388458251953,0.3818710327148437
0.3188049316406250,0.3898996353149414
0.3189702987670898,0.3898996353149414
0.3156343460083008,0.3813051223754882
0.3194137573242187,0.3813051223754882
0.3219778060913086,0.3881389617919922
0.3163867950439453,0.3881389617919922
0.3147445678710937,0.3859977722167969
0.3229854583740234,0.3859977722167969
0.3208133697509766,0.3872285842895508
0.3168296813964844,0.3872285842895508
0.3202789306640625,0.3898567199707031
0.3204402923583984,0.3898567199707031
0.3154666900634766,0.3795982360839844
0.3169412612915039,0.3795982360839844
0.3188003540039062,0.3808422088623047
0.3116500854492187,0.3808422088623047
0.3089607238769531,0.3770582199096680
0.3161361694335937,0.3770582199096680
0.3129621505737304,0.3703989028930664
0.3088531494140625,0.3703989028930664
0.3115322113037109,0.3736885070800781
0.3109153747558593,0.3736885070800781
0.3071285247802734,0.3644365310668945
0.3098613739013672,0.3644365310668945
0.3128299713134766,0.3727432250976562
0.3069786071777343,0.3727432250976562
0.3051023483276367,0.3687297821044922
0.3137924194335938,0.3687297821044922
0.3106327056884766,0.3669834136962891
0.3065689086914062,0.3669834136962891
0.3105188369750976,0.3722356796264648
0.3104358673095703,0.3722356796264648
0.3072189331054687,0.3672683715820312
0.3105354309082031,0.3672683715820312
0.3134576797485352,0.3723484039306640
0.3084543228149414,0.3723484039306640
0.3063011169433594,0.3710569381713867
0.3146690368652343,0.3710569381713867
0.3124397277832031,0.3695034027099609
0.3086671829223633,0.3695034027099609
0.3128334045410156,0.3784372329711914
0.3130743026733399,0.3784372329711914
0.3097784042358399,0.3701791763305664
0.3138422012329101,0.3701791763305664
0.3161464691162109,0.3774410247802734
0.3105766296386719,0.3774410247802734
0.3092393875122070,0.3762886047363281
0.3175254821777344,0.3762886047363281
0.3155485153198242,0.3774250030517578
0.3118640899658203,0.3774250030517578
0.3155839920043945,0.3815031051635742
0.3162826538085937,0.3815031051635742
0.3123361587524414,0.3744295120239258
0.3153951644897461,0.3744295120239258
0.3183322906494140,0.3802116394042969
0.3125467300415039,0.3802116394042969
0.3109634399414062,0.3813302993774414
0.3192695617675781,0.3813302993774414
0.3168485641479492,0.3777894973754883
0.3135681152343750,0.3777894973754883
0.3164857864379882,0.3832403182983398
0.3163043975830078,0.3832403182983398
0.3131160736083984,0.3757530212402344
0.3162214279174805,0.3757530212402344
0.3193828582763672,0.3845987319946289
0.3137317657470703,0.3845987319946289
0.3120054244995117,0.3812885284423828
0.3209627151489258,0.3812885284423828
0.3179918289184570,0.3798282623291016
0.3140630722045898,0.3798282623291016
0.3178974151611328,0.3849002838134766
0.3178836822509766,0.3849002838134766
0.3146970748901367,0.3806653976440429
0.3180324554443359,0.3806653976440429
0.3211051940917969,0.3856458663940430
0.3160669326782227,0.3856458663940430
0.3135652542114258,0.3844860076904297
0.3218433380126953,0.3844860076904297
0.3198286056518554,0.3831533432006836
0.3159416198730469,0.3831533432006836
0.3200689315795898,0.3912500381469726
0.3201988220214844,0.3912500381469726
0.3167461395263672,0.3825765609741211
0.3207332611083984,0.3825765609741211
0.3232028961181641,0.3894561767578125
0.3175111770629883,0.3894561767578125
0.3158157348632812,0.3875255584716797
0.3240171432495117,0.3875255584716797
0.3220046997070312,0.3888833999633789
0.3182716369628906,0.3888833999633789
0.3220201492309570,0.3929460525512695
0.3227748870849609,0.3929460525512695
0.3184444427490234,0.3860372543334961
0.3216333389282227,0.3860372543334961
0.3248943328857422,0.3925683975219726
0.3191917419433594,0.3925683975219726
0.3176198959350586,0.3935789108276367
0.3260948181152344,0.3935789108276367
0.3238134384155273,0.3902000427246093
0.3205884933471679,0.3902000427246093
0.3237047195434570,0.3958065032958984
0.3235490798950195,0.3958065032958984
0.3199029922485351,0.3872806549072266
0.3227434158325195,0.3872806549072266
0.3254877090454101,0.3948520660400390
0.3187814712524414,0.3948520660400390
0.3156114578247070,0.3863903045654297
0.3228904724121094,0.3863903045654297
0.3182716369628906,0.3796651840209961
0.3129014968872070,0.3796651840209961
0.3158208847045899,0.3808107376098633
0.3146226882934570,0.3808107376098633
0.3106229782104492,0.3727455139160156
0.3131767272949219,0.3727455139160156
0.3156841278076172,0.3756740570068359
0.3101268768310547,0.3756740570068359
0.3074449539184570,0.3730247497558594
0.3154844284057617,0.3730247497558594
0.3129930496215820,0.3701866149902344
0.3088554382324218,0.3701866149902344
0.3129066467285156,0.3782054901123047
0.3128963470458984,0.3782054901123047
0.3093378067016602,0.3690462112426758
0.3133592605590820,0.3690462112426758
0.3153745651245117,0.3757209777832031
0.3096267700195313,0.3757209777832031
0.3081642150878906,0.3744953155517578
0.3164989471435547,0.3744953155517578
0.3144762039184570,0.3752912521362304
0.3107362747192383,0.3752912521362304
0.3146816253662109,0.3795106887817383
0.3154460906982422,0.3795106887817383
0.3114692687988281,0.3728290557861328
0.3149116516113281,0.3728290557861328
0.3179323196411133,0.3793006896972656
0.3121942520141601,0.3793006896972656
0.3107769012451172,0.3810270309448242
0.3193090438842773,0.3810270309448242
0.3170906066894531,0.3779680252075195
0.3140213012695313,0.3779680252075195
0.3169933319091797,0.3839126586914062
0.3168668746948242,0.3839126586914062
0.3137329101562500,0.3766353607177734
0.3169338226318359,0.3766353607177734
0.3200054168701172,0.3854444503784180
0.3143108367919922,0.3854444503784180
0.3125724792480469,0.3822029113769531
0.3215738296508789,0.3822029113769531
0.3184936523437500,0.3803255081176758
0.3144950866699219,0.3803255081176758
0.3182207107543945,0.3851022720336914
0.3180484771728516,0.3851022720336914
0.3147748947143554,0.3803478240966797
0.3180456161499023,0.3803478240966797
0.3209243774414062,0.3848579406738281
0.3157333374023437,0.3848579406738281
0.3130748748779297,0.3834560394287109
0.3213197708129883,0.3834560394287109
0.3191997528076172,0.3813177108764648
0.3151531219482422,0.3813177108764648
0.3192214965820312,0.3891403198242188
0.3191757202148438,0.3891403198242188
0.3157218933105468,0.3801778793334961
0.3197175979614258,0.3801778793334961
0.3220802307128906,0.3867353439331054
0.3161304473876953,0.3867353439331054
0.3144693374633789,0.3847949981689453
0.3227806091308594,0.3847949981689453
0.3206542968750000,0.3859268188476562
0.3168308258056641,0.3859268188476562
0.3207155227661133,0.3898870468139649
0.3230861663818359,0.3866621017456054
0.3192386627197266,0.3856893539428711
0.3192386627197266,0.3856893539428711
0.3188982009887695,0.3866529464721680
0.3188982009887695,0.3866529464721680
0.3199098587036133,0.3929059982299805
0.3199098587036133,0.3929059982299805
0.3181102752685547,0.3946872711181640
0.3181102752685547,0.3917724609375000
0.3272575378417968,0.3950466156005859
0.3260513305664062,0.3950466156005859
0.3260650634765625,0.3955518722534180
0.3260650634765625,0.3902921676635742
0.3204923629760742,0.3900999069213867
0.3235662460327148,0.3900999069213867
0.3259202957153320,0.3927103042602539
0.3197107315063477,0.3927103042602539
0.3158512115478516,0.3862186431884765
0.3224613189697266,0.3862186431884765
0.3187500000000000,0.3785470962524414
0.3132671356201172,0.3785470962524414
0.3161579132080078,0.3822704315185547
0.3149871826171875,0.3822704315185547
0.3105720520019531,0.3698661804199219
0.3137140274047852,0.3698661804199219
0.3151651382446289,0.3737863540649414
0.3085836410522461,0.3737863540649414
0.3066633224487305,0.3706523895263672
0.3144670486450195,0.3706523895263672
0.3120306015014648,0.3696521759033203
0.3078363418579101,0.3696521759033203
0.3114252090454102,0.3726173400878906
0.3118377685546875,0.3726173400878906
0.3076045989990234,0.3646923065185547
0.3134479522705078,0.3700452804565429
0.3058576583862305,0.3710872650146484
0.3140584945678711,0.3710872650146484
0.3080503463745117,0.3667144775390625
0.3080503463745117,0.3667144775390625
0.3076389312744141,0.3656999588012695
0.3081110000610351,0.3656999588012695
0.3089561462402344,0.3728433609008789
0.3089561462402344,0.3728433609008789
0.3103231430053711,0.3694547653198242
0.3103231430053711,0.3694547653198242
0.3151737213134765,0.3749874114990234
0.3151737213134765,0.3749874114990234
0.3094745635986328,0.3659065246582031
0.3094745635986328,0.3659065246582031
0.3155239105224609,0.3729034423828125
0.3155239105224609,0.3729034423828125
0.3109371185302734,0.3760345458984375
0.3109371185302734,0.3760345458984375
0.3123086929321289,0.3714986801147461
0.3123086929321289,0.3714986801147461
0.3162317276000977,0.3733600616455078
0.3162317276000977,0.3733600616455078
0.3105915069580078,0.3717687606811523
0.3105915069580078,0.3717687606811523
0.3164606094360352,0.3748769760131836
0.3164606094360352,0.3748769760131836
0.3119213104248047,0.3768339157104492
0.3119213104248047,0.3768339157104492
0.3124202728271484,0.3682050704956055
0.3124202728271484,0.3682050704956055
0.3166568756103516,0.3778558731079101
0.3166568756103516,0.3778558731079101
0.3111516952514649,0.3725137710571289
0.3111516952514649,0.3725137710571289
0.3173452377319336,0.3750703811645508
0.3173452377319336,0.3750703811645508
0.3122560501098633,0.3740621566772461
0.3122560501098633,0.3740621566772461
0.3134010314941406,0.3737892150878906
0.3134010314941406,0.3737892150878906
0.3178991317749023,0.3804885864257813
0.3178991317749023,0.3804885864257813
0.3127727508544922,0.3744043350219726
0.3127727508544922,0.3744043350219726
0.3183614730834961,0.3732896804809570
0.3183614730834961,0.3732896804809570
0.3136756896972656,0.3803941726684570
0.3136756896972656,0.3803941726684570
0.3148675918579101,0.3762863159179687
0.3148675918579101,0.3762863159179687
0.3196689605712891,0.3822177886962890
0.3196689605712891,0.3822177886962890
0.3137311935424805,0.3729692459106445
0.3206165313720703,0.3729692459106445
0.3198492050170899,0.3799976348876953
0.3198492050170899,0.3799976348876953
0.3153928756713867,0.3839309692382812
0.3153928756713867,0.3839309692382812
0.3169527053833008,0.3791908264160156
0.3148000717163086,0.3791908264160156
0.3211160659790039,0.3813571929931641
0.3211160659790039,0.3813571929931641
0.3157104492187500,0.3804553985595703
0.3157104492187500,0.3804553985595703
0.3218622207641602,0.3834268569946289
0.3218622207641602,0.3834268569946289
0.3175214767456054,0.3860738754272461
0.3175214767456054,0.3860738754272461
0.3172433853149414,0.3761266708374023
0.3172433853149414,0.3761266708374023
0.3199859619140625,0.3826017379760742
0.3199859619140625,0.3826017379760742
0.3122920989990234,0.3737417221069336
0.3122920989990234,0.3737417221069336
0.3160406112670898,0.3714815139770508
0.3160406112670898,0.3714815139770508
0.3088983535766601,0.3670257568359375
0.3088983535766601,0.3670257568359375
0.3081899642944336,0.3638534545898438
0.3081899642944336,0.3638534545898438
0.3116025924682617,0.3680482864379883
0.3116025924682617,0.3680482864379883
0.3054679870605468,0.3611211776733398
0.3054679870605468,0.3611211776733398
0.3102928161621094,0.3587190628051758
0.3102928161621094,0.3587190628051758
0.3051698684692383,0.3648771286010742
0.3051698684692383,0.3648771286010742
0.3057415008544922,0.3604625701904297
0.3057415008544922,0.3604625701904297
0.3102252960205078,0.3651741027832031
0.3102252960205078,0.3651741027832031
0.3040752410888672,0.3555845260620117
0.3040752410888672,0.3555845260620117
0.3098785400390625,0.3619691848754883
0.3098785400390625,0.3619691848754883
0.3053936004638672,0.3652559280395508
0.3053936004638672,0.3652559280395508
0.3067697525024414,0.3610364913940430
0.3047819137573242,0.3610364913940430
0.3109594345092773,0.3633436203002929
0.3109594345092773,0.3633436203002929
0.3056802749633789,0.3625991821289062
0.3056802749633789,0.3625991821289062
0.3120826721191406,0.3661869049072266
0.3120826721191406,0.3661869049072266
0.3081590652465820,0.3690925598144531
0.3081590652465820,0.3690925598144531
0.3087055206298828,0.3610267639160156
0.3087055206298828,0.3610267639160156
0.3133266448974609,0.3711021423339844
0.3133266448974609,0.3711021423339844
0.3080228805541992,0.3661216735839843
0.3080228805541992,0.3661216735839843
0.3143468856811523,0.3686891555786133
0.3143468856811523,0.3686891555786133
0.3092823028564453,0.3678577423095703
0.3092823028564453,0.3678577423095703
0.3103031158447265,0.3675241470336914
0.3103031158447265,0.3675241470336914
0.3148887634277344,0.3742452621459961
0.3148887634277344,0.3742452621459961
0.3097864151000976,0.3684242248535156
0.3097864151000976,0.3684242248535156
0.3154695510864258,0.3672803878784179
0.3154695510864258,0.3672803878784179
0.3110275268554688,0.3746801376342773
0.3110275268554688,0.3746801376342773
0.3123081207275391,0.3708789825439453
0.3123081207275391,0.3708789825439453
0.3172462463378906,0.3769226074218750
0.3172462463378906,0.3769226074218750
0.3114280700683594,0.3680803298950195
0.3114280700683594,0.3680803298950195
0.3177961349487304,0.3752059936523438
0.3177961349487304,0.3752059936523438
0.3135927200317383,0.3795524597167969
0.3135927200317383,0.3795524597167969
0.3152097702026367,0.3751550674438476
0.3152097702026367,0.3751550674438476
0.3195287704467774,0.3777013778686523
0.3161373138427734,0.3777013778686523
0.3142198562622070,0.3769100189208984
0.3142198562622070,0.3769100189208984
0.3206548690795898,0.3802837371826172
0.3206548690795898,0.3802837371826172
0.3165893554687500,0.3836963653564453
0.3165893554687500,0.3836963653564453
0.3172845840454102,0.3756454467773437
0.3172845840454102,0.3756454467773437
0.3220230102539062,0.3861219406127930
0.3220230102539062,0.3861219406127930
0.3165990829467774,0.3818178176879883
0.3165990829467774,0.3818178176879883
0.3232698440551758,0.3840162277221680
0.3232698440551758,0.3840162277221680
0.3180576324462890,0.3833942413330078
0.3180576324462890,0.3833942413330078
0.3192169189453125,0.3832557678222656
0.3192169189453125,0.3832557678222656
0.3239873886108398,0.3894985198974609
0.3239873886108398,0.3894985198974609
0.3185560226440430,0.3838136672973633
0.3185560226440430,0.3838136672973633
0.3235668182373047,0.3810979843139649
0.3235668182373047,0.3810979843139649
0.3173612594604492,0.3843360900878906
0.3196317672729492,0.3843360900878906
0.3149082183837891,0.3749433517456054
0.3149082183837891,0.3749433517456054
0.3171964645385742,0.3753135681152344
0.3171964645385742,0.3753135681152344
0.3087432861328125,0.3623794555664062
0.3087432861328125,0.3623794555664062
0.3132619857788086,0.3661828994750976
0.3132619857788086,0.3661828994750976
0.3077505111694336,0.3679704666137695
0.3077505111694336,0.3679704666137695
0.3082202911376953,0.3623039245605469
0.3082202911376953,0.3623039245605469
0.3119367599487304,0.3636537551879883
0.3119367599487304,0.3636537551879883
0.3059720993041992,0.3618736267089844
0.3059720993041992,0.3618736267089844
0.3119562149047851,0.3647226333618164
0.3119562149047851,0.3647226333618164
0.3076148986816406,0.3671298980712890
0.3076148986816406,0.3671298980712890
0.3079994201660156,0.3587705612182617
0.3079994201660156,0.3587705612182617
0.3127441406250000,0.3689311981201172
0.3127441406250000,0.3689311981201172
0.3073608398437500,0.3642299652099609
0.3073608398437500,0.3642299652099609
0.3141403198242188,0.3671350479125977
0.3141403198242188,0.3671350479125977
0.3093040466308594,0.3671190261840820
0.3093040466308594,0.3671190261840820
0.3105371475219726,0.3673833847045898
0.3105371475219726,0.3673833847045898
0.3156984329223633,0.3747282028198242
0.3156984329223633,0.3747282028198242
0.3108083724975586,0.3695211410522461
0.3108083724975586,0.3695211410522461
0.3167392730712891,0.3686439514160156
0.3106658935546875,0.3686439514160156
0.3123567581176758,0.3762989044189453
0.3123567581176758,0.3762989044189453
0.3135240554809570,0.3722265243530273
0.3135240554809570,0.3722265243530273
0.3186126708984375,0.3781826019287109
0.3186126708984375,0.3781826019287109
0.3124031066894531,0.3689231872558594
0.3124031066894531,0.3689231872558594
0.3184598922729492,0.3753164291381836
0.3184598922729492,0.3753164291381836
0.3138422012329101,0.3792125701904297
0.3138422012329101,0.3792125701904297
0.3151725769042968,0.3740432739257812
0.3151725769042968,0.3740432739257812
0.3191545486450195,0.3758840560913086
0.3191545486450195,0.3758840560913086
0.3134880065917969,0.3747585296630859
0.3134880065917969,0.3747585296630859
0.3197759628295898,0.3776309967041016
0.3197759628295898,0.3776309967041016
0.3156326293945312,0.3809291839599609
0.3156326293945312,0.3809291839599609
0.3161870956420899,0.3727500915527344
0.3161870956420899,0.3727500915527344
0.3208316802978515,0.3829713821411133
0.3208316802978515,0.3829713821411133
0.3154541015625000,0.3788120269775391
0.3154541015625000,0.3788120269775391
0.3221597671508789,0.3809978485107422
0.3221597671508789,0.3809978485107422
0.3171260833740234,0.3805686950683594
0.3171260833740234,0.3805686950683594
0.3183151245117187,0.3806625366210937
0.3183151245117187,0.3806625366210937
0.3230684280395508,0.3871398925781250
0.3192438125610351,0.3871398925781250
0.3181617736816406,0.3821239471435547
0.3181617736816406,0.3821239471435547
0.3238025665283203,0.3809818267822265
0.3238025665283203,0.3809818267822265
0.3192689895629883,0.3887248992919922
0.3192689895629883,0.3887248992919922
0.3205678939819336,0.3852109909057617
0.3205678939819336,0.3852109909057617
0.3257446289062500,0.3908060073852539
0.3257446289062500,0.3908060073852539
0.3195619583129883,0.3817668914794922
0.3195619583129883,0.3817668914794922
0.3258316040039063,0.3884828567504883
0.3258316040039063,0.3884828567504883
0.3212688446044922,0.3918285369873047
0.3212688446044922,0.3918285369873047
0.3222576141357422,0.3862529754638672
0.3222576141357422,0.3862529754638672
0.3249177932739258,0.3847629547119141
0.3249177932739258,0.3847629547119141
0.3160818099975586,0.3780441284179688
0.3160818099975586,0.3780441284179688
0.3197004318237305,0.3763784408569336
0.3197004318237305,0.3763784408569336
0.3132024765014648,0.3752946853637695
0.3132024765014648,0.3752946853637695
0.3118469238281250,0.3643581390380859
0.3118469238281250,0.3643581390380859
0.3156177520751953,0.3727306365966797
0.3156177520751953,0.3727306365966797
0.3094087600708008,0.3668048858642578
0.3094087600708008,0.3668048858642578
0.3158105850219726,0.3687166213989257
0.3158105850219726,0.3687166213989257
0.3104627609252930,0.3680150985717773
0.3104627609252930,0.3680150985717773
0.3112981796264648,0.3675441741943359
0.3112981796264648,0.3675441741943359
0.3161069869995117,0.3742618560791016
0.3161069869995117,0.3742618560791016
0.3110303878784180,0.3687898635864258
0.3110303878784180,0.3687898635864258
0.3168617248535156,0.3678073883056641
0.3168617248535156,0.3678073883056641
0.3125169754028320,0.3757398605346680
0.3125169754028320,0.3757398605346680
0.3138650894165039,0.3720342636108399
0.3138650894165039,0.3720342636108399
0.3193891525268555,0.3786781311035156
0.3193891525268555,0.3786781311035156
0.3133535385131836,0.3701591491699219
0.3133535385131836,0.3701591491699219
0.3199871063232422,0.3772882461547851
0.3199871063232422,0.3772882461547851
0.3156824111938477,0.3817714691162109
0.3156824111938477,0.3817714691162109
0.3173240661621093,0.3770908355712890
0.3173240661621093,0.3770908355712890
0.3214553833007812,0.3791736602783203
0.3177806854248047,0.3791736602783203
0.3157030105590820,0.3781568527221680
0.3228401184082031,0.3781568527221680
0.3220687866210937,0.3807197570800781
0.3157287597656250,0.3807197570800781
0.3178379058837891,0.3838548660278320
0.3178379058837891,0.3838548660278320
0.3180936813354492,0.3752941131591797
0.3180936813354492,0.3752941131591797
0.3225545883178711,0.3851978302001953
0.3225545883178711,0.3851978302001953
0.3169412612915039,0.3805589675903320
0.3169412612915039,0.3805589675903320
0.3235599517822266,0.3823345184326172
0.3235599517822266,0.3823345184326172
0.3183620452880859,0.3817113876342773
0.3183620452880859,0.3817113876342773
0.3191619873046875,0.3813068389892578
0.3191619873046875,0.3813068389892578
0.3239633560180664,0.3873899459838867
0.3239633560180664,0.3873899459838867
0.3186304092407227,0.3822303771972656
0.3186304092407227,0.3822303771972656
0.3242546081542969,0.3807088851928711
0.3242546081542969,0.3807088851928711
0.3196712493896484,0.3881750106811523
0.3196712493896484,0.3881750106811523
0.3207670211791992,0.3846227645874024
0.3207670211791992,0.3846227645874024
0.3258424758911133,0.3899642944335938
0.3258424758911133,0.3899642944335938
0.3195808410644531,0.3809801101684570
0.3195808410644531,0.3809801101684570
0.3258184432983398,0.3875507354736328
0.3258184432983398,0.3875507354736328
0.3213924407958984,0.3912185668945312
0.3213924407958984,0.3912185668945312
0.3228401184082031,0.3868326187133789
0.3228401184082031,0.3868326187133789
0.3268398284912109,0.3887329101562500
0.3268398284912109,0.3887329101562500
0.3212018966674804,0.3879421234130859
0.3212018966674804,0.3879421234130859
0.3275974273681641,0.3911464691162109
0.3275974273681641,0.3911464691162109
0.3234964370727539,0.3938970565795898
0.3234964370727539,0.3938970565795898
0.3236749649047851,0.3851720809936524
0.3236749649047851,0.3851720809936524
0.3278566360473633,0.3940595626831054
0.3278566360473633,0.3940595626831054
0.3207017898559570,0.3854730606079101
0.3207017898559570,0.3854730606079101
0.3241687774658203,0.3818979263305664
0.3241687774658203,0.3818979263305664
0.3160617828369141,0.3763051986694336
0.3160617828369141,0.3763051986694336
0.3144750595092773,0.3717161178588867
0.3144750595092773,0.3717161178588867
0.3174396514892578,0.3753049850463867
0.3129896163940429,0.3753049850463867
0.3109989166259766,0.3676054000854492
0.3109989166259766,0.3676054000854492
0.3157590866088867,0.3647335052490234
0.3157590866088867,0.3647335052490234
0.3105840682983398,0.3710557937622070
0.3105840682983398,0.3710557937622070
0.3111282348632812,0.3661113739013672
0.3111282348632812,0.3661113739013672
0.3161384582519531,0.3713991165161133
0.3161384582519531,0.3713991165161133
0.3093584060668945,0.3621225357055664
0.3093584060668945,0.3621225357055664
0.3155479431152344,0.3683498382568359
0.3155479431152344,0.3683498382568359
0.3112169265747070,0.3725681304931641
0.3112169265747070,0.3725681304931641
0.3126405715942382,0.3677953720092773
0.3126405715942382,0.3677953720092773
0.3167816162109375,0.3699897766113281
0.3132871627807617,0.3699897766113281
0.3112077713012695,0.3693574905395507
0.3112077713012695,0.3693574905395507
0.3178184509277344,0.3723947525024414
0.3178184509277344,0.3723947525024414
0.3140275955200195,0.3761610031127929
0.3140275955200195,0.3761610031127929
0.3144109725952148,0.3681455612182617
0.3144109725952148,0.3681455612182617
0.3192661285400391,0.3783245086669922
0.3192661285400391,0.3783245086669922
0.3136144638061523,0.3742046356201172
0.3136144638061523,0.3742046356201172
0.3205123901367187,0.3759281158447266
0.3205123901367187,0.3759281158447266
0.3153688430786133,0.3754714965820312
0.3153688430786133,0.3754714965820312
0.3160938262939453,0.3748563766479492
0.3160938262939453,0.3748563766479492
0.3207624435424805,0.3808170318603515
0.3207624435424805,0.3808170318603515
0.3154186248779297,0.3755693435668945
0.3154186248779297,0.3755693435668945
0.3209655761718750,0.3738624572753906
0.3209655761718750,0.3738624572753906
0.3163307189941406,0.3812587738037109
0.3163307189941406,0.3812587738037109
0.3171524047851562,0.3774204254150391
0.3157876968383789,0.3774204254150391
0.3224441528320313,0.3826692581176758
0.3224441528320313,0.3826692581176758
0.3159576416015625,0.3738109588623047
0.3159576416015625,0.3738109588623047
0.3222278594970703,0.3801830291748047
0.3222278594970703,0.3801830291748047
0.3178773880004883,0.3839195251464844
0.3178773880004883,0.3839195251464844
0.3192712783813477,0.3795724868774414
0.3192712783813477,0.3795724868774414
0.3233774185180664,0.3815603256225586
0.3233774185180664,0.3815603256225586
0.3177423477172852,0.3807786941528320
0.3177423477172852,0.3807786941528320
0.3240932464599609,0.3840482711791992
0.3240932464599609,0.3840482711791992
0.3202274322509766,0.3869407653808594
0.3202274322509766,0.3869407653808594
0.3204729080200195,0.3787559509277343
0.3204729080200195,0.3787559509277343
0.3252708435058594,0.3888942718505859
0.3252708435058594,0.3888942718505859
0.3196346282958984,0.3842468261718750
0.3196346282958984,0.3842468261718750
0.3265663146972656,0.3866821289062500
0.3265663146972656,0.3866821289062500
0.3214359283447266,0.3863576889038086
0.3214359283447266,0.3863576889038086
0.3223062515258789,0.3860298156738281
0.3223062515258789,0.3860298156738281
0.3269989013671875,0.3923755645751953
0.3269989013671875,0.3923755645751953
0.3213008880615234,0.3852521896362305
0.3213008880615234,0.3852521896362305
0.3247220993041992,0.3790523529052734
0.3247220993041992,0.3790523529052734
0.3172519683837891,0.3813114166259766
0.3172519683837891,0.3813114166259766
0.3154249191284180,0.3721864700317383
0.3154249191284180,0.3721864700317383
