REDsignal,IRsignal
0.5667589187622070,0.7560476303100586
0.5499652862548828,0.7402719497680664
0.5499652862548828,0.7402719497680664
0.5679925918579102,0.7477455139160156
0.5679925918579102,0.7477455139160156
0.5557640075683593,0.7538137435913086
0.5557640075683593,0.7538137435913086
0.5569181442260742,0.7391103744506836
0.5569181442260742,0.7391103744506836
0.5672058105468750,0.7570987701416015
0.5672058105468750,0.7570987701416015
0.5502021789550781,0.7411777496337890
0.5502021789550781,0.7411777496337890
0.5681316375732421,0.7485643386840820
0.5681316375732421,0.7485643386840820
0.5558458328247070,0.7545724868774414
0.5558458328247070,0.7545724868774414
0.5570629119873046,0.7397363662719726
0.5570629119873046,0.7397363662719726
0.5672527313232422,0.7580303192138672
0.5628192901611327,0.7580303192138672
0.5503961563110351,0.7419485092163086
0.5503961563110351,0.7419485092163086
0.5682483673095703,0.7495468139648437
0.5682483673095703,0.7495468139648437
0.5562297821044921,0.7556110382080078
0.5562297821044921,0.7556110382080078
0.5574291229248046,0.7410123825073242
0.5574291229248046,0.7410123825073242
0.5679388046264648,0.7593818664550781
0.5679388046264648,0.7593818664550781
0.5508934020996094,0.7434659957885742
0.5508934020996094,0.7434659957885742
0.5688875198364257,0.7507078170776367
0.5688875198364257,0.7507078170776367
0.5568105697631835,0.7567714691162110
0.5568105697631835,0.7567714691162110
0.5575590133666992,0.7416452407836914
0.5575590133666992,0.7416452407836914
0.5677654266357421,0.7591489791870117
0.5677654266357421,0.7591489791870117
0.5500356674194335,0.7416778564453125
0.5500356674194335,0.7416778564453125
0.5672401428222656,0.7479320526123047
0.5672401428222656,0.7479320526123047
0.5541252136230469,0.7525045394897460
0.5541252136230469,0.7525045394897460
0.5542877197265624,0.7361280441284179
0.5542877197265624,0.7361280441284179
0.5639196395874023,0.7530458450317382
0.5639196395874023,0.7530458450317382
0.5462448120117187,0.7359403610229492
0.5462448120117187,0.7359403610229492
0.5636117935180663,0.7425333023071289
0.5636117935180663,0.7425333023071289
0.5511062622070312,0.7480201721191406
0.5511062622070312,0.7480201721191406
0.5522695541381836,0.7326072692871094
0.5522695541381836,0.7326072692871094
0.5623981475830078,0.7508543014526367
0.5623981475830078,0.7508543014526367
0.5455696105957031,0.7345602035522460
0.5455696105957031,0.7345602035522460
0.5636215209960938,0.7422775268554688
0.5636215209960938,0.7422775268554688
0.5518621444702149,0.7486576080322266
0.5518621444702149,0.7486576080322266
0.5532091140747070,0.7341087341308593
0.5532091140747070,0.7341087341308593
0.5640483856201172,0.7528072357177734
0.5640483856201172,0.7528072357177734
0.5474418640136719,0.7369480133056641
0.5474418640136719,0.7369480133056641
0.5655921936035156,0.7450189590454102
0.5655921936035156,0.7450189590454102
0.5540651321411133,0.7516050338745117
0.5540651321411133,0.7516050338745117
0.5555694580078124,0.7374990463256835
0.5555694580078124,0.7374990463256835
0.5662977218627929,0.7563623428344727
0.5662977218627929,0.7563623428344727
0.5501117706298828,0.7409563064575195
0.5501117706298828,0.7409563064575195
0.5685968399047852,0.7493322372436523
0.5685968399047852,0.7493322372436523
0.5570056915283202,0.7562828063964844
0.5570056915283202,0.7562828063964844
0.5588630676269531,0.7420423507690429
0.5588630676269531,0.7420423507690429
0.5696222305297851,0.7610475540161132
0.5696222305297851,0.7610475540161132
0.5532039642333985,0.7455213546752929
0.5532039642333985,0.7455213546752929
0.5714252471923827,0.7537170410156250
0.5714252471923827,0.7537170410156250
0.5597190856933594,0.7603511810302734
0.5597190856933594,0.7603511810302734
0.5615787506103516,0.7461141586303711
0.5615787506103516,0.7461141586303711
0.5721553802490235,0.7650787353515625
0.5721553802490235,0.7650787353515625
0.5556844711303711,0.7490901947021484
0.5556844711303711,0.7490901947021484
0.5736951828002930,0.7572572708129882
0.5736951828002930,0.7572572708129882
0.5619787216186524,0.7636705398559570
0.5619787216186524,0.7636705398559570
0.5635448455810547,0.7493185043334961
0.5635448455810547,0.7493185043334961
0.5741334915161133,0.7679872512817383
0.5741334915161133,0.7679872512817383
0.5576694488525390,0.7519924163818359
0.5576694488525390,0.7519924163818359
0.5755462646484375,0.7600925445556640
0.5755462646484375,0.7600925445556640
0.5635929107666016,0.7662231445312500
0.5635929107666016,0.7662231445312500
0.5650903701782226,0.7517789840698242
0.5650903701782226,0.7517789840698242
0.5756732940673828,0.7706022262573242
0.5756732940673828,0.7706022262573242
0.5590415954589844,0.7542778015136719
0.5590415954589844,0.7542778015136719
0.5772365570068360,0.7624637603759765
0.5772365570068360,0.7624637603759765
0.5784404754638671,0.7688873291015624
0.5665981292724609,0.7542732238769531
0.5665981292724609,0.7542732238769531
0.5729003906250000,0.7586660385131836
0.5583589553833007,0.7586660385131836
0.5722297668457031,0.7724441528320313
0.5785686492919921,0.7724441528320313
0.5621320724487304,0.7519191741943360
0.5621320724487304,0.7519191741943360
0.5777898788452148,0.7678596496582031
0.5777898788452148,0.7678596496582031
0.5567636489868164,0.7602561950683594
0.5567636489868164,0.7602561950683594
0.5699232101440429,0.7536855697631836
0.5699232101440429,0.7536855697631836
0.5681682586669922,0.7654993057250976
0.5681682586669922,0.7654993057250976
0.5570291519165039,0.7438270568847656
0.5570291519165039,0.7438270568847656
0.5720987319946289,0.7589859008789063
0.5720987319946289,0.7589859008789063
0.5509901046752930,0.7512159347534180
0.5509901046752930,0.7512159347534180
0.5639997482299804,0.7448930740356445
0.5639997482299804,0.7448930740356445
0.5628015518188476,0.7575897216796875
0.5628015518188476,0.7575897216796875
0.5524240493774414,0.7368066787719726
0.5524240493774414,0.7368066787719726
0.5679565429687500,0.7532993316650390
0.5679565429687500,0.7532993316650390
0.5475345611572265,0.7462663650512695
0.5475345611572265,0.7462663650512695
0.5615758895874023,0.7410947799682617
0.5615758895874023,0.7410947799682617
0.5606597900390625,0.7545347213745117
0.5606597900390625,0.7545347213745117
0.5509088516235351,0.7348176956176757
0.5509088516235351,0.7348176956176757
0.5671331405639648,0.7518339157104492
0.5671331405639648,0.7518339157104492
0.5470888137817382,0.7456701278686523
0.5470888137817382,0.7456701278686523
0.5614105224609375,0.7407714843750000
0.5614105224609375,0.7407714843750000
0.5607450485229492,0.7548156738281250
0.5607450485229492,0.7548156738281250
0.5512281417846679,0.7352914810180664
0.5512281417846679,0.7352914810180664
0.5674306869506835,0.7524450302124023
0.5674306869506835,0.7524450302124023
0.5474664688110351,0.7463928222656250
0.5474664688110351,0.7463928222656250
0.5618928909301758,0.7418392181396484
0.5618928909301758,0.7418392181396484
0.5612943649291992,0.7558937072753906
0.5612943649291992,0.7558937072753906
0.5518466949462890,0.7364742279052734
0.5518466949462890,0.7364742279052734
0.5681093215942382,0.7539384841918945
0.5681093215942382,0.7539384841918945
0.5483482360839843,0.7478015899658202
0.5483482360839843,0.7478015899658202
0.5626911163330078,0.7433635711669921
0.5626911163330078,0.7433635711669921
0.5621664047241210,0.7575216293334961
0.5621664047241210,0.7575216293334961
0.5529390335083008,0.7382532119750976
0.5529390335083008,0.7382532119750976
0.5693143844604492,0.7557832717895507
0.5693143844604492,0.7557832717895507
0.5495012283325195,0.7496915817260742
0.5495012283325195,0.7496915817260742
0.5638938903808594,0.7451694488525390
0.5638938903808594,0.7451694488525390
0.5634321212768555,0.7592782974243164
0.5634321212768555,0.7592782974243164
0.5540227890014648,0.7400671005249023
0.5540227890014648,0.7400671005249023
0.5702665328979492,0.7575450897216797
0.5702665328979492,0.7575450897216797
0.5506753921508789,0.7515655517578125
0.5506753921508789,0.7515655517578125
0.5652099609375000,0.7472139358520508
0.5652099609375000,0.7472139358520508
0.5647029876708984,0.7613462448120117
0.5647029876708984,0.7613462448120117
0.5552364349365234,0.7421401977539063
0.5552364349365234,0.7421401977539063
0.5715780258178711,0.7595958709716797
0.5715780258178711,0.7595958709716797
0.5518890380859375,0.7534080505371094
0.5518890380859375,0.7534080505371094
0.5664178848266601,0.7493522644042968
0.5664178848266601,0.7493522644042968
0.5658227920532226,0.7634113311767577
0.5658227920532226,0.7634113311767577
0.5566268920898437,0.7440593719482421
0.5566268920898437,0.7440593719482421
0.5727447509765625,0.7612043380737304
0.5604011535644531,0.7612043380737304
0.5527982711791992,0.7544420242309570
0.5527982711791992,0.7544420242309570
0.5666856765747070,0.7491680145263672
0.5666856765747070,0.7491680145263672
0.5653484344482421,0.7617153167724610
0.5653484344482421,0.7617153167724610
0.5554138183593750,0.7411657333374023
0.5554138183593750,0.7411657333374023
0.5705274581909180,0.7571622848510742
0.5705274581909180,0.7571622848510742
0.5501506805419921,0.7493162155151367
0.5501506805419921,0.7493162155151367
0.5636404037475585,0.7436914443969727
0.5636404037475585,0.7436914443969727
0.5618951797485351,0.7561546325683594
0.5618951797485351,0.7561546325683594
0.5523233413696289,0.7358688354492188
0.5523233413696289,0.7358688354492188
0.5674615859985351,0.7518133163452149
0.5674615859985351,0.7518133163452149
0.5472501754760742,0.7441720962524414
0.5472501754760742,0.7441720962524414
0.5607318878173828,0.7392208099365234
0.5607318878173828,0.7392208099365234
0.5592687606811523,0.7519105911254883
0.5592687606811523,0.7519105911254883
0.5497301101684570,0.7322193145751953
0.5497301101684570,0.7322193145751953
0.5652202606201172,0.7488750457763672
0.5652202606201172,0.7488750457763672
0.5453407287597656,0.7417854309082031
0.5453407287597656,0.7417854309082031
0.5592521667480469,0.7374326705932617
0.5592521667480469,0.7374326705932617
0.5579881668090820,0.7505584716796875
0.5579881668090820,0.7505584716796875
0.5488477706909179,0.7311824798583985
0.5488477706909179,0.7311824798583985
0.5645931243896484,0.7482456207275391
0.5645931243896484,0.7482456207275391
0.5446998596191406,0.7415439605712890
0.5446998596191406,0.7415439605712890
0.5589626312255859,0.7374526977539062
0.5589626312255859,0.7374526977539062
0.5580287933349609,0.7509967803955078
0.5580287933349609,0.7509967803955078
0.5489027023315429,0.7316350936889648
0.5489027023315429,0.7316350936889648
0.5648477554321288,0.7490249633789062
0.5648477554321288,0.7490249633789062
0.5450757980346680,0.7422746658325196
0.5450757980346680,0.7422746658325196
0.5593488693237304,0.7383207321166992
0.5593488693237304,0.7383207321166992
0.5583286285400391,0.7517915725708008
0.5583286285400391,0.7517915725708008
0.5493032455444335,0.7326799392700195
0.5493032455444335,0.7326799392700195
0.5652460098266602,0.7500497817993164
0.5652460098266602,0.7500497817993164
0.5456680297851563,0.7433195114135742
0.5456680297851563,0.7433195114135742
0.5599988937377930,0.7393684387207031
0.5599988937377930,0.7393684387207031
0.5592876434326172,0.7532398223876953
0.5592876434326172,0.7532398223876953
0.5501546859741211,0.7340978622436524
0.5501546859741211,0.7340978622436524
0.5662788391113281,0.7514797210693359
0.5662788391113281,0.7514797210693359
0.5466550827026367,0.7449726104736328
0.5466550827026367,0.7449726104736328
0.5610002517700196,0.7411571502685547
0.5610002517700196,0.7411571502685547
0.5601562500000000,0.7549724578857422
0.5601562500000000,0.7549724578857422
0.5512269973754883,0.7359518051147461
0.5512269973754883,0.7359518051147461
0.5673568725585937,0.7536283493041992
0.5673568725585937,0.7536283493041992
0.5478057861328125,0.7471773147583007
0.5478057861328125,0.7471773147583007
0.5624914169311523,0.7435626983642578
0.5624914169311523,0.7435626983642578
0.5616989135742188,0.7574604034423827
0.5616989135742188,0.7574604034423827
0.5528984069824219,0.7385833740234374
0.5528984069824219,0.7385833740234374
0.5690408706665039,0.7563777923583984
0.5690408706665039,0.7563777923583984
0.5494817733764649,0.7497064590454101
0.5494817733764649,0.7497064590454101
0.5637313842773437,0.7455568313598633
0.5637313842773437,0.7455568313598633
0.5626401901245117,0.7587833404541016
0.5626401901245117,0.7587833404541016
0.5532714843750000,0.7389135360717773
0.5532714843750000,0.7389135360717773
0.5686168670654297,0.7552745819091796
0.5686168670654297,0.7552745819091796
0.5482074737548828,0.7472774505615234
0.5482074737548828,0.7472774505615234
0.5617223739624023,0.7419387817382812
0.5617223739624023,0.7419387817382812
0.5598770141601562,0.7541828155517578
0.5598770141601562,0.7541828155517578
0.5500465393066406,0.7337013244628906
0.5500465393066406,0.7337013244628906
0.5654359817504883,0.7504446029663085
0.5654359817504883,0.7504446029663085
0.5452892303466796,0.7426626205444335
0.5452892303466796,0.7426626205444335
0.5592412948608398,0.7382589340209961
0.5592412948608398,0.7382589340209961
0.5580013275146484,0.7513435363769531
0.5580013275146484,0.7513435363769531
0.5487848281860351,0.7315807342529297
0.5487848281860351,0.7315807342529297
0.5646474838256835,0.7489734649658203
0.5646474838256835,0.7489734649658203
0.5448732376098633,0.7419828414916992
0.5448732376098633,0.7419828414916992
0.5593076705932617,0.7381513595581054
0.5593076705932617,0.7381513595581054
0.5582857131958008,0.7517475128173828
0.5582857131958008,0.7517475128173828
0.5495607376098632,0.7327589035034180
0.5495607376098632,0.7327589035034180
0.5656557083129883,0.7505481719970702
0.5656557083129883,0.7505481719970702
0.5462596893310546,0.7439134597778320
0.5462596893310546,0.7439134597778320
0.5609086990356446,0.7403669357299805
0.5609086990356446,0.7403669357299805
0.5603067398071289,0.7545919418334961
0.5603067398071289,0.7545919418334961
0.5515760421752930,0.7358259201049805
0.5515760421752930,0.7358259201049805
0.5679903030395508,0.7540363311767578
0.5679903030395508,0.7540363311767578
0.5487985610961914,0.7476133346557617
0.5487985610961914,0.7476133346557617
0.5636095046997071,0.7442888259887696
0.5636095046997071,0.7442888259887696
0.5628398895263672,0.7585332870483398
0.5628398895263672,0.7585332870483398
0.5542716979980469,0.7396682739257813
0.5542716979980469,0.7396682739257813
0.5705652236938477,0.7575559616088867
0.5705652236938477,0.7575559616088867
0.5510330200195312,0.7508817672729492
0.5510330200195312,0.7508817672729492
0.5656225204467773,0.7474016189575196
0.5656225204467773,0.7474016189575196
0.5647001266479492,0.7611385345458984
0.5647001266479492,0.7611385345458984
0.5559144973754883,0.7421579360961914
0.5559144973754883,0.7421579360961914
0.5720203399658202,0.7599569320678711
0.5720203399658202,0.7599569320678711
0.5524772644042969,0.7531259536743163
0.5524772644042969,0.7531259536743163
0.5669963836669921,0.7497413635253906
0.5669963836669921,0.7497413635253906
0.5661352157592773,0.7636447906494140
0.5661352157592773,0.7636447906494140
0.5573827743530273,0.7445159912109375
0.5573827743530273,0.7445159912109375
0.5735807418823242,0.7624511718750000
0.5735807418823242,0.7624511718750000
0.5541744232177734,0.7558610916137695
0.5541744232177734,0.7558610916137695
0.5689699172973632,0.7526727676391601
0.5689699172973632,0.7526727676391601
0.5680320739746093,0.7664703369140625
0.5680320739746093,0.7664703369140625
0.5595119476318359,0.7478096008300781
0.5595119476318359,0.7478096008300781
0.5756435394287109,0.7658718109130859
0.5756435394287109,0.7658718109130859
0.5564117431640625,0.7592548370361328
0.5564117431640625,0.7592548370361328
0.5711688995361328,0.7559881210327148
0.5711688995361328,0.7559881210327148
0.5700502395629883,0.7696609497070312
0.5700502395629883,0.7696609497070312
0.5611679077148437,0.7500246047973632
0.5611679077148437,0.7500246047973632
0.5765310287475586,0.7671472549438476
0.5765310287475586,0.7671472549438476
0.5565336227416992,0.7591232299804688
0.5565336227416992,0.7591232299804688
0.5700971603393554,0.7541501998901367
0.5700971603393554,0.7541501998901367
0.5678535461425781,0.7659227371215820
0.5678535461425781,0.7659227371215820
0.5578863143920898,0.7447208404541016
0.5578863143920898,0.7447208404541016
0.5724168777465820,0.7604547500610351
0.5724168777465820,0.7604547500610351
0.5514736175537109,0.7512479782104492
0.5514736175537109,0.7512479782104492
0.5635900497436523,0.7411554336547851
0.5623220443725586,0.7411554336547851
0.5678781509399414,0.7491571426391601
0.5678781509399414,0.7491571426391601
0.5545703887939453,0.7525560379028320
0.5545703887939453,0.7525560379028320
0.5562320709228515,0.7376403808593750
0.5562320709228515,0.7376403808593750
0.5650588989257812,0.7552522659301758
0.5650588989257812,0.7552522659301758
0.5488895416259766,0.7372621536254883
0.5488895416259766,0.7372621536254883
0.5660144805908203,0.7462566375732421
0.5660144805908203,0.7462566375732421
0.5533184051513672,0.7508617401123047
0.5533184051513672,0.7508617401123047
0.5557176589965820,0.7365600585937500
0.5557176589965820,0.7365600585937500
0.5650022506713867,0.7551269531250000
0.5650022506713867,0.7551269531250000
0.5492065429687499,0.7376501083374023
0.5492065429687499,0.7376501083374023
0.5668802261352539,0.7474073410034180
0.5668802261352539,0.7474073410034180
0.5544794082641601,0.7525720596313477
0.5544794082641601,0.7525720596313477
0.5571790695190429,0.7386297225952149
0.5571790695190429,0.7386297225952149
0.5668132781982421,0.7578191757202148
0.5668132781982421,0.7578191757202148
0.5513826370239258,0.7405626296997070
0.5513826370239258,0.7405626296997070
0.5689355850219726,0.7505487442016602
0.5689355850219726,0.7505487442016602
0.5566532135009765,0.7555160522460938
0.5566532135009765,0.7555160522460938
0.5594341278076171,0.7420646667480468
0.5594341278076171,0.7420646667480468
0.5688829421997070,0.7610029220581055
0.5688829421997070,0.7610029220581055
0.5533927917480469,0.7435306549072266
0.5533927917480469,0.7435306549072266
0.5708959579467773,0.7535190582275391
0.5708959579467773,0.7535190582275391
0.5585266113281250,0.7585287094116211
0.5585266113281250,0.7585287094116211
0.5614339828491210,0.7447248458862304
0.5614339828491210,0.7447248458862304
0.5707723617553710,0.7637117385864257
0.5707723617553710,0.7637117385864257
0.5550642013549805,0.7461158752441406
0.5550642013549805,0.7461158752441406
0.5723539352416992,0.7560161590576172
0.5723539352416992,0.7560161590576172
0.5601877212524414,0.7608684539794922
0.5601877212524414,0.7608684539794922
0.5627614974975585,0.7472408294677734
0.5627614974975585,0.7472408294677734
0.5722635269165038,0.7660634994506835
0.5722635269165038,0.7660634994506835
0.5566274642944335,0.7487932205200195
0.5566274642944335,0.7487932205200195
0.5742856979370117,0.7588731765747070
0.5742856979370117,0.7588731765747070
0.5619935989379883,0.7636985778808594
0.5619935989379883,0.7636985778808594
0.5649072647094726,0.7503742218017578
0.5649072647094726,0.7503742218017578
0.5745271682739258,0.7696907043457031
0.5745271682739258,0.7696907043457031
0.5594627380371093,0.7525903701782226
0.5594627380371093,0.7525903701782226
0.5770483016967773,0.7629461288452148
0.5770483016967773,0.7629461288452148
0.5650079727172851,0.7682699203491211
0.5650079727172851,0.7682699203491211
0.5681516647338867,0.7548482894897460
0.5681516647338867,0.7548482894897460
0.5774385452270507,0.7736446380615234
0.5774385452270507,0.7736446380615234
0.5619689941406250,0.7558816909790039
0.5619689941406250,0.7558816909790039
0.5788089752197265,0.7650655746459961
0.5788089752197265,0.7650655746459961
0.5657810211181641,0.7686779022216796
0.5657810211181641,0.7686779022216796
0.5674718856811524,0.7533330917358398
0.5674718856811524,0.7533330917358398
0.5754787445068359,0.7702039718627930
0.5754787445068359,0.7702039718627930
0.5585987091064453,0.7507255554199218
0.5585987091064453,0.7507255554199218
0.5744939804077148,0.7587301254272460
0.5744939804077148,0.7587301254272460
0.5607971191406250,0.7614303588867187
0.5607971191406250,0.7614303588867187
0.5622224807739258,0.7459339141845703
0.5622224807739258,0.7459339141845703
0.5704805374145507,0.7632047653198242
0.5704805374145507,0.7632047653198242
0.5540857315063477,0.7442693710327148
0.5540857315063477,0.7442693710327148
0.5705509185791016,0.7533090591430663
0.5705509185791016,0.7533090591430663
0.5576808929443359,0.7571811676025391
0.5576808929443359,0.7571811676025391
0.5600423812866211,0.7427415847778320
0.5495641708374023,0.7427415847778320
0.5689321517944336,0.7609531402587890
0.5689321517944336,0.7609531402587890
0.5531398773193359,0.7431924819946288
0.5531398773193359,0.7431924819946288
0.5703952789306640,0.7530647277832031
0.5703952789306640,0.7530647277832031
0.5580270767211913,0.7577138900756836
0.5580270767211913,0.7577138900756836
0.5605756759643554,0.7436616897583007
0.5605756759643554,0.7436616897583007
0.5699764251708984,0.7626056671142578
0.5699764251708984,0.7626056671142578
0.5544851303100585,0.7450487136840820
0.5544851303100585,0.7450487136840820
0.5719041824340820,0.7549890518188477
0.5719041824340820,0.7549890518188477
0.5595783233642578,0.7595884323120117
0.5595783233642578,0.7595884323120117
0.5622785568237304,0.7458806991577148
0.5622785568237304,0.7458806991577148
0.5714412689208984,0.7645265579223632
0.5714412689208984,0.7645265579223632
0.5557291030883789,0.7467578887939453
0.5557291030883789,0.7467578887939453
0.5730108261108399,0.7567634582519531
0.5730108261108399,0.7567634582519531
0.5604503631591796,0.7613697052001953
0.5604503631591796,0.7613697052001953
0.5631380081176758,0.7473180770874023
0.5631380081176758,0.7473180770874023
0.5720884323120117,0.7659124374389649
0.5720884323120117,0.7659124374389649
0.5563316345214844,0.7481134414672851
0.5563316345214844,0.7481134414672851
0.5737083435058593,0.7581401824951172
0.5737083435058593,0.7581401824951172
0.5610128402709961,0.7626634597778320
0.5610128402709961,0.7626634597778320
0.5638401031494140,0.7488864898681641
0.5638401031494140,0.7488864898681641
0.5728660583496094,0.7674837112426758
0.5728660583496094,0.7674837112426758
0.5574766159057617,0.7497974395751953
0.5574766159057617,0.7497974395751953
0.5746404647827148,0.7599403381347656
0.5746404647827148,0.7599403381347656
0.5621028900146484,0.7643428802490234
0.5621028900146484,0.7643428802490234
0.5647584915161132,0.7506711959838867
0.5647584915161132,0.7506711959838867
0.5739778518676758,0.7695047378540039
0.5739778518676758,0.7695047378540039
0.5583829879760742,0.7517950057983398
0.5583829879760742,0.7517950057983398
0.5758546829223633,0.7620992660522461
0.5758546829223633,0.7620992660522461
0.5634017944335937,0.7669040679931640
0.5634017944335937,0.7669040679931640
0.5662977218627929,0.7532226562500000
0.5662977218627929,0.7532226562500000
0.5756406784057617,0.7723131179809570
0.5756406784057617,0.7723131179809570
0.5603668212890625,0.7547126770019531
0.5603668212890625,0.7547126770019531
0.5775020599365234,0.7648378372192383
0.5775020599365234,0.7648378372192383
0.5650051116943359,0.7690607070922851
0.5650051116943359,0.7690607070922851
0.5674083709716796,0.7546319961547852
0.5674083709716796,0.7546319961547852
0.5759897232055664,0.7725196838378906
0.5759897232055664,0.7725196838378906
0.5596492767333984,0.7534830093383789
0.5596492767333984,0.7534830093383789
0.5760332107543945,0.7622056961059570
0.5760332107543945,0.7622056961059570
0.5625772476196289,0.7647657394409180
0.5625772476196289,0.7647657394409180
0.5642000198364258,0.7493608474731445
0.5642000198364258,0.7493608474731445
0.5722257614135742,0.7666992187500000
0.5722257614135742,0.7666992187500000
0.5558515548706054,0.7474365234375000
0.5558515548706054,0.7474365234375000
0.5723550796508788,0.7563251495361328
0.5723550796508788,0.7563251495361328
0.5590890884399414,0.7598173141479492
0.5590890884399414,0.7598173141479492
0.5614826202392578,0.7452352523803710
0.5614826202392578,0.7452352523803710
0.5701292037963867,0.7631984710693359
0.5701292037963867,0.7631984710693359
0.5542591094970702,0.7445737838745117
0.5542591094970702,0.7445737838745117
0.5713176727294922,0.7545913696289063
0.5713176727294922,0.7545913696289063
0.5588539123535156,0.7586854934692383
0.5588539123535156,0.7586854934692383
0.5616703033447266,0.7448793411254883
0.5513500213623047,0.7448793411254883
0.5706476211547852,0.7636390686035156
0.5706476211547852,0.7636390686035156
0.5554853439331054,0.7457233428955078
0.5554853439331054,0.7457233428955078
0.5729078292846680,0.7564189910888671
0.5729078292846680,0.7564189910888671
0.5606300354003906,0.7608650207519531
0.5606300354003906,0.7608650207519531
0.5637508392333984,0.7476367950439453
0.5637508392333984,0.7476367950439453
0.5729776382446289,0.7665178298950195
0.5729776382446289,0.7665178298950195
0.5578222274780273,0.7487852096557617
0.5578222274780273,0.7487852096557617
0.5751605987548828,0.7594493865966797
0.5751605987548828,0.7594493865966797
0.5628107070922851,0.7637775421142577
0.5628107070922851,0.7637775421142577
0.5659727096557617,0.7506208419799805
0.5659727096557617,0.7506208419799805
0.5750936508178711,0.7694206237792969
0.5750936508178711,0.7694206237792969
0.5596120834350585,0.7516462326049804
0.5596120834350585,0.7516462326049804
0.5769544601440429,0.7622577667236328
0.5769544601440429,0.7622577667236328
0.5645496368408203,0.7666013717651367
0.5645496368408203,0.7666013717651367
0.5677385330200195,0.7530956268310547
0.5677385330200195,0.7530956268310547
0.5768531799316406,0.7721254348754882
0.5768531799316406,0.7721254348754882
0.5613412857055664,0.7542961120605468
0.5613412857055664,0.7542961120605468
0.5787740707397461,0.7649780273437500
0.5787740707397461,0.7649780273437500
0.5663858413696289,0.7694137573242187
0.5663858413696289,0.7694137573242187
0.5695146560668946,0.7558650970458984
0.5695146560668946,0.7558650970458984
0.5786487579345703,0.7748708724975586
0.5786487579345703,0.7748708724975586
0.5633697509765625,0.7570100784301758
0.5633697509765625,0.7570100784301758
0.5806474685668945,0.7678802490234374
0.5806474685668945,0.7678802490234374
0.5682477951049805,0.7723680496215820
0.5682477951049805,0.7723680496215820
0.5715545654296875,0.7589921951293945
0.5715545654296875,0.7589921951293945
0.5807327270507813,0.7781370162963867
0.5807327270507813,0.7781370162963867
0.5654428482055663,0.7602745056152344
0.5654428482055663,0.7602745056152344
0.5829706192016602,0.7710765838623047
0.5829706192016602,0.7710765838623047
0.5704936981201172,0.7754064559936523
0.5704936981201172,0.7754064559936523
0.5735115051269531,0.7617004394531249
0.5735115051269531,0.7617004394531249
0.5822856903076171,0.7799125671386719
0.5822856903076171,0.7799125671386719
0.5662988662719727,0.7611207962036133
0.5662988662719727,0.7611207962036133
0.5829580307006835,0.7705472946166992
0.5829580307006835,0.7705472946166992
0.5692583084106445,0.7732406616210937
0.5692583084106445,0.7732406616210937
0.5710321426391601,0.7578037261962890
0.5710321426391601,0.7578037261962890
0.5783981323242188,0.7741407394409180
0.5783981323242188,0.7741407394409180
0.5612548828125000,0.7533227920532226
0.5612548828125000,0.7533227920532226
0.5767175674438476,0.7616071701049805
0.5767175674438476,0.7616071701049805
0.5623529434204101,0.7633964538574218
0.5623529434204101,0.7633964538574218
0.5639665603637695,0.7477849960327149
0.5639665603637695,0.7477849960327149
0.5716329574584961,0.7647256851196289
0.5716329574584961,0.7647256851196289
0.5551723480224610,0.7450572967529296
0.5551723480224610,0.7450572967529296
0.5715951919555664,0.7545598983764649
0.5715951919555664,0.7545598983764649
0.5583692550659179,0.7577722549438476
0.5583692550659179,0.7577722549438476
0.5610225677490234,0.7434322357177734
0.5610225677490234,0.7434322357177734
0.5695295333862305,0.7477174758911133
0.5665088653564453,0.7477174758911133
0.5721599578857421,0.7606830596923828
0.5710201263427734,0.7606830596923828
0.5564134597778320,0.7414867401123046
0.5564134597778320,0.7414867401123046
0.5721456527709960,0.7595815658569336
0.5721456527709960,0.7595815658569336
0.5526283264160156,0.7514614105224610
0.5526283264160156,0.7514614105224610
0.5674009323120117,0.7488956451416016
0.5674009323120117,0.7488956451416016
0.5656883239746093,0.7622949600219726
0.5656883239746093,0.7622949600219726
0.5574909210205078,0.7431570053100586
0.5574909210205078,0.7431570053100586
0.5732940673828125,0.7614704132080078
0.5732940673828125,0.7614704132080078
0.5536931991577149,0.7533943176269531
0.5536931991577149,0.7533943176269531
0.5681837081909179,0.7506019592285156
0.5681837081909179,0.7506019592285156
0.5664161682128906,0.7639554977416992
0.5664161682128906,0.7639554977416992
0.5581169128417969,0.7448936462402344
0.5581169128417969,0.7448936462402344
0.5737443923950195,0.7629055023193360
0.5737443923950195,0.7629055023193360
0.5541429519653320,0.7547080993652343
0.5541429519653320,0.7547080993652343
0.5686883926391602,0.7519947052001953
0.5686883926391602,0.7519947052001953
0.5668167114257813,0.7650220870971679
0.5668167114257813,0.7650220870971679
0.5585781097412109,0.7457759857177734
0.5585781097412109,0.7457759857177734
0.5741123199462891,0.7639720916748046
0.5741123199462891,0.7639720916748046
0.5545337677001952,0.7558233261108398
0.5545337677001952,0.7558233261108398
0.5693292617797852,0.7531808853149414
0.5693292617797852,0.7531808853149414
0.5676012039184570,0.7664892196655273
0.5676012039184570,0.7664892196655273
0.5597419738769531,0.7477186203002929
0.5597419738769531,0.7477186203002929
0.5756137847900390,0.7661006927490234
0.5756137847900390,0.7661006927490234
0.5564764022827148,0.7582151412963867
0.5564764022827148,0.7582151412963867
0.5712518692016602,0.7560602188110351
0.5712518692016602,0.7560602188110351
0.5696926116943359,0.7693737030029296
0.5696926116943359,0.7693737030029296
0.5617515563964843,0.7507553100585938
0.5617515563964843,0.7507553100585938
0.5775987625122070,0.7690412521362304
0.5775987625122070,0.7690412521362304
0.5583600997924805,0.7610326766967773
0.5583600997924805,0.7610326766967773
0.5732419967651367,0.7587541580200196
0.5732419967651367,0.7587541580200196
0.5712272644042968,0.7716939926147460
0.5712272644042968,0.7716939926147460
0.5630109786987304,0.7522001266479492
0.5630109786987304,0.7522001266479492
0.5780221939086914,0.7695196151733398
0.5780221939086914,0.7695196151733398
0.5578445434570313,0.7599426269531250
0.5578445434570313,0.7599426269531250
0.5714773178100586,0.7558427810668945
0.5714773178100586,0.7558427810668945
0.5682317733764648,0.7670436859130859
0.5682317733764648,0.7670436859130859
0.5590530395507812,0.7460803985595703
0.5590530395507812,0.7460803985595703
0.5733266830444336,0.7623378753662109
0.5733266830444336,0.7623378753662109
0.5526838302612305,0.7524055480957031
0.5526838302612305,0.7524055480957031
0.5663452148437500,0.7483039855957031
0.5663452148437500,0.7483039855957031
0.5635082244873046,0.7602172851562500
0.5635082244873046,0.7602172851562500
0.5547803878784180,0.7399812698364258
0.5547803878784180,0.7399812698364258
0.5698316574096679,0.7572160720825195
0.5698316574096679,0.7572160720825195
0.5499155044555664,0.7480504989624023
0.5499155044555664,0.7480504989624023
0.5640535354614258,0.7451562881469727
0.5640535354614258,0.7451562881469727
0.5618333816528320,0.7574518203735351
0.5618333816528320,0.7574518203735351
0.5536399841308594,0.7381450653076171
0.5536399841308594,0.7381450653076171
0.5690099716186523,0.7558696746826171
0.5690099716186523,0.7558696746826171
0.5495212554931640,0.7475984573364257
0.5495212554931640,0.7475984573364257
0.5640775680541992,0.7449480056762695
0.5640775680541992,0.7449480056762695
0.5619764328002930,0.7578271865844727
0.5619764328002930,0.7578271865844727
0.5539163589477539,0.7387350082397460
0.5539163589477539,0.7387350082397460
0.5694763183593750,0.7568504333496093
0.5694763183593750,0.7568504333496093
0.5499641418457031,0.7484395980834960
0.5499641418457031,0.7484395980834960
0.5646749496459961,0.7459791183471679
0.5646749496459961,0.7459791183471679
0.5626579284667969,0.7590219497680664
0.5626579284667969,0.7590219497680664
0.5546339035034179,0.7402027130126952
0.5546339035034179,0.7402027130126952
0.5701887130737304,0.7581470489501952
0.5701887130737304,0.7581470489501952
0.5506696701049805,0.7498111724853516
0.5506696701049805,0.7498111724853516
0.5653175354003906,0.7475772857666015
0.5653175354003906,0.7475772857666015
0.5632169723510742,0.7605783462524414
0.5632169723510742,0.7605783462524414
0.5553794860839844,0.7414947509765625
0.5553794860839844,0.7414947509765625
0.5709394454956055,0.7597326278686524
0.5709394454956055,0.7597326278686524
0.5515193939208984,0.7517480850219727
0.5515193939208984,0.7517480850219727
0.5661621093750000,0.7494031906127929
0.5661621093750000,0.7494031906127929
0.5643041610717773,0.7626462936401367
0.5643041610717773,0.7626462936401367
0.5565027236938477,0.7437366485595703
0.5565027236938477,0.7437366485595703
0.5722309112548828,0.7621290206909179
0.5722309112548828,0.7621290206909179
0.5529813766479492,0.7540592193603516
0.5730314254760742,0.7540592193603516
0.5678146362304687,0.7519786834716796
0.5536657333374023,0.7519786834716796
0.5660940170288086,0.7652412414550781
0.5660940170288086,0.7652412414550781
0.5582530975341796,0.7465341567993163
0.5582530975341796,0.7465341567993163
0.5740642547607422,0.7651794433593749
0.5627855300903321,0.7651794433593749
0.5548095703125000,0.7571863174438477
0.5548095703125000,0.7571863174438477
0.5700313568115234,0.7553695678710938
0.5700313568115234,0.7553695678710938
0.5682626724243164,0.7689296722412109
0.5682626724243164,0.7689296722412109
0.5606037139892578,0.7502597808837891
0.5606037139892578,0.7502597808837891
0.5766626358032226,0.7689960479736327
0.5766626358032226,0.7689960479736327
0.5574417114257812,0.7609519958496094
0.5574417114257812,0.7609519958496094
0.5723436355590820,0.7584526062011718
0.5723436355590820,0.7584526062011718
0.5700410842895508,0.7712202072143555
0.5700410842895508,0.7712202072143555
0.5616228103637695,0.7513904571533203
0.5616228103637695,0.7513904571533203
0.5766551971435546,0.7684501647949219
0.5766551971435546,0.7684501647949219
0.5564226150512696,0.7590019226074218
0.5564226150512696,0.7590019226074218
0.5702608108520507,0.7550674438476562
0.5702608108520507,0.7550674438476562
0.5674804687500000,0.7668949127197265
0.5674804687500000,0.7668949127197265
0.5587486267089844,0.7465003967285156
0.5587486267089844,0.7465003967285156
0.5739429473876952,0.7638765335083008
0.5739429473876952,0.7638765335083008
0.5537675857543946,0.7546422958374023
0.5537675857543946,0.7546422958374023
0.5683284759521484,0.7516891479492187
0.5683284759521484,0.7516891479492187
0.5660448074340820,0.7642976760864257
0.5660448074340820,0.7642976760864257
0.5577529907226563,0.7446619033813476
0.5577529907226563,0.7446619033813476
0.5732786178588867,0.7626989364624023
0.5732786178588867,0.7626989364624023
0.5535329818725586,0.7540134429931641
0.5535329818725586,0.7540134429931641
0.5683691024780273,0.7513103485107422
0.5683691024780273,0.7513103485107422
0.5663137435913086,0.7641798019409179
0.5663137435913086,0.7641798019409179
0.5578582763671874,0.7448919296264648
0.5578582763671874,0.7448919296264648
0.5736986160278320,0.7632499694824219
0.5736986160278320,0.7632499694824219
0.5538751602172851,0.7547853469848632
0.5538751602172851,0.7547853469848632
0.5688097000122070,0.7523437500000000
0.5688097000122070,0.7523437500000000
0.5668767929077149,0.7656309127807617
0.5668767929077149,0.7656309127807617
0.5587297439575195,0.7462966918945312
0.5587297439575195,0.7462966918945312
0.5747165679931641,0.7649362564086913
0.5747165679931641,0.7649362564086913
0.5549016952514648,0.7565740585327149
0.5549016952514648,0.7565740585327149
0.5699930191040039,0.7542692184448242
0.5699930191040039,0.7542692184448242
0.5678604125976562,0.7675952911376953
0.5678604125976562,0.7675952911376953
0.5599136352539062,0.7482158660888671
0.5599136352539062,0.7482158660888671
0.5758380889892578,0.7668943405151367
0.5758380889892578,0.7668943405151367
0.5558589935302735,0.7584663391113281
0.5763250350952148,0.7584663391113281
0.5710063934326172,0.7560493469238281
0.5710063934326172,0.7560493469238281
0.5690025329589844,0.7696203231811524
0.5690025329589844,0.7696203231811524
0.5610706329345703,0.7503387451171875
0.5610706329345703,0.7503387451171875
0.5771244049072265,0.7690732955932617
0.5771244049072265,0.7690732955932617
0.5573324203491211,0.7607151031494140
0.5573324203491211,0.7607151031494140
0.5727373123168945,0.7586620330810546
0.5727373123168945,0.7586620330810546
0.5708524703979492,0.7722387313842773
0.5708524703979492,0.7722387313842773
0.5629096984863281,0.7529119491577149
0.5629096984863281,0.7529119491577149
0.5790796279907227,0.7719543457031249
0.5790796279907227,0.7719543457031249
0.5594038009643555,0.7637454986572265
0.5594038009643555,0.7637454986572265
0.5746868133544921,0.7615779876708985
0.5746868133544921,0.7615779876708985
0.5728059768676758,0.7753921508789062
0.5728059768676758,0.7753921508789062
0.5650182723999023,0.7562444686889648
0.5650182723999023,0.7562444686889648
0.5811304092407227,0.7750310897827148
0.5811304092407227,0.7750310897827148
0.5614471435546875,0.7668519973754883
0.5614471435546875,0.7668519973754883
0.5767358779907227,0.7646278381347656
0.5767358779907227,0.7646278381347656
0.5747400283813476,0.7782960891723633
0.5747400283813476,0.7782960891723633
0.5664710998535156,0.7583026885986328
0.5664710998535156,0.7583026885986328
0.5821987152099609,0.7766189575195312
0.5821987152099609,0.7766189575195312
0.5616273880004883,0.7670562744140624
0.5616273880004883,0.7670562744140624
0.5760028839111327,0.7631172180175781
0.5760028839111327,0.7631172180175781
0.5728466033935546,0.7749212265014648
0.5728466033935546,0.7749212265014648
0.5633394241333007,0.7533782958984375
0.5633394241333007,0.7533782958984375
0.5781457901000976,0.7701810836791992
0.5781457901000976,0.7701810836791992
0.5568557739257812,0.7598659515380859
0.5568557739257812,0.7598659515380859
0.5709062576293945,0.7556837081909179
0.5709062576293945,0.7556837081909179
0.5679450988769531,0.7677835464477539
0.5679450988769531,0.7677835464477539
0.5588172912597656,0.7469736099243164
0.5588172912597656,0.7469736099243164
0.5741294860839844,0.7645442962646484
0.5741294860839844,0.7645442962646484
0.5535221099853516,0.7551601409912109
0.5535221099853516,0.7551601409912109
0.5681602478027343,0.7518768310546875
0.5681602478027343,0.7518768310546875
0.5657478332519531,0.7646112442016602
0.5657478332519531,0.7646112442016602
0.5571870803833008,0.7444953918457031
0.5571870803833008,0.7444953918457031
0.5729988098144531,0.7626892089843750
0.5729988098144531,0.7626892089843750
0.5526100158691406,0.7538394927978516
0.5526100158691406,0.7538394927978516
0.5677791595458984,0.7511850357055664
0.5677791595458984,0.7511850357055664
0.5656356811523438,0.7644584655761718
0.5656356811523438,0.7644584655761718
0.5572528839111328,0.7447397232055664
0.5572528839111328,0.7447397232055664
0.5732454299926758,0.7632339477539062
0.5732454299926758,0.7632339477539062
0.5531793594360351,0.7548385620117187
0.5531793594360351,0.7548385620117187
0.5683450698852539,0.7523443222045898
0.5554830551147460,0.7523443222045898
0.5743206024169921,0.7659748077392577
0.5730995178222656,0.7659748077392577
0.5581781387329101,0.7461948394775391
0.5581781387329101,0.7461948394775391
0.5740911483764648,0.7648086547851562
0.5740911483764648,0.7648086547851562
0.5539089202880859,0.7560888290405273
0.5539089202880859,0.7560888290405273
0.5689882278442383,0.7535665512084960
0.5689882278442383,0.7535665512084960
0.5670593261718749,0.7669641494750976
0.5670593261718749,0.7669641494750976
0.5587406158447266,0.7475492477416992
0.5587406158447266,0.7475492477416992
0.5749391555786133,0.7664411544799804
0.5749391555786133,0.7664411544799804
0.5552404403686523,0.7580406188964843
0.5760097503662109,0.7580406188964843
0.5708061218261719,0.7561042785644531
0.5708061218261719,0.7561042785644531
0.5691719055175781,0.7699510574340820
0.5691719055175781,0.7699510574340820
0.5614442825317383,0.7510128021240234
0.5614442825317383,0.7510128021240234
0.5779552459716797,0.7701318740844726
0.5779552459716797,0.7701318740844726
0.5582868576049804,0.7623327255249023
0.5582868576049804,0.7623327255249023
0.5740081787109375,0.7603780746459960
0.5740081787109375,0.7603780746459960
0.5724512100219726,0.7742637634277344
0.5724512100219726,0.7742637634277344
0.5645341873168945,0.7551298141479492
0.5645341873168945,0.7551298141479492
0.5807704925537109,0.7740989685058594
0.5807704925537109,0.7740989685058594
0.5609905242919921,0.7660423278808594
0.5609905242919921,0.7660423278808594
0.5763879776000976,0.7637323379516602
0.5763879776000976,0.7637323379516602
0.5745494842529296,0.7773542404174805
0.5745494842529296,0.7773542404174805
0.5664962768554688,0.7579542160034179
0.5664962768554688,0.7579542160034179
0.5823904037475586,0.7765457153320312
0.5823904037475586,0.7765457153320312
0.5621726989746093,0.7677022933959960
0.5621726989746093,0.7677022933959960
0.5769544601440429,0.7643646240234375
0.5769544601440429,0.7643646240234375
0.5740917205810546,0.7765153884887696
0.5740917205810546,0.7765153884887696
0.5649724960327148,0.7556047439575195
0.5649724960327148,0.7556047439575195
0.5797742843627930,0.7723857879638671
0.5797742843627930,0.7723857879638671
0.5586164474487304,0.7618349075317382
0.5586164474487304,0.7618349075317382
0.5723768234252929,0.7573968887329101
0.5723768234252929,0.7573968887329101
0.5689716339111328,0.7687883377075195
0.5689716339111328,0.7687883377075195
0.5596166610717773,0.7477815628051757
0.5596166610717773,0.7477815628051757
0.5746873855590821,0.7647714614868164
0.5746873855590821,0.7647714614868164
0.5538042068481445,0.7550113677978515
0.5538042068481445,0.7550113677978515
0.5683639526367187,0.7514945983886718
0.5683639526367187,0.7514945983886718
0.5657215118408203,0.7639297485351563
0.5657215118408203,0.7639297485351563
0.5570560455322265,0.7436748504638672
0.5570560455322265,0.7436748504638672
0.5727676391601563,0.7616037368774414
0.5727676391601563,0.7616037368774414
0.5522214889526367,0.7526659011840821
0.5522214889526367,0.7526659011840821
0.5673259735107422,0.7495347976684570
0.5673259735107422,0.7495347976684570
0.5649129867553710,0.7626245498657226
0.5649129867553710,0.7626245498657226
0.5565879821777343,0.7428291320800781
0.5565879821777343,0.7428291320800781
0.5724718093872070,0.7612197875976562
0.5724718093872070,0.7612197875976562
0.5523616790771484,0.7527305603027343
0.5523616790771484,0.7527305603027343
0.5675067901611328,0.7500308990478516
0.5675067901611328,0.7500308990478516
0.5653015136718750,0.7633975982666016
0.5653015136718750,0.7633975982666016
0.5570886611938476,0.7439981460571289
0.5570886611938476,0.7439981460571289
0.5730789184570312,0.7625650405883789
0.5730789184570312,0.7625650405883789
0.5531341552734375,0.7540151596069335
0.5531341552734375,0.7540151596069335
0.5682071685791016,0.7515272140502930
0.5682071685791016,0.7515272140502930
0.5662256240844726,0.7651062011718750
0.5662256240844726,0.7651062011718750
0.5580957412719726,0.7456266403198242
0.5580957412719726,0.7456266403198242
0.5741495132446289,0.7643972396850586
0.5741495132446289,0.7643972396850586
0.5543764114379882,0.7560831069946289
0.5543764114379882,0.7560831069946289
0.5694728851318359,0.7537725448608398
0.5694728851318359,0.7537725448608398
0.5674936294555664,0.7670671463012695
0.5674936294555664,0.7670671463012695
0.5592035293579102,0.7475275039672852
0.5592035293579102,0.7475275039672852
0.5752372741699219,0.7661413192749024
0.5752372741699219,0.7661413192749024
0.5552381515502930,0.7578517913818359
0.5552381515502930,0.7578517913818359
0.5703151702880859,0.7552883148193359
0.5703151702880859,0.7552883148193359
0.5683914184570312,0.7687820434570313
0.5683914184570312,0.7687820434570313
0.5602849960327149,0.7494781494140624
0.5764600753784179,0.7683134078979492
0.5764600753784179,0.7683134078979492
0.5565147399902344,0.7599901199340821
0.5565147399902344,0.7599901199340821
0.5719041824340820,0.7577098846435547
0.5719041824340820,0.7577098846435547
0.5699792861938476,0.7714651107788085
0.5699792861938476,0.7714651107788085
0.5620010375976562,0.7521669387817382
0.5620010375976562,0.7521669387817382
0.5782052993774414,0.7712659835815430
0.5782052993774414,0.7712659835815430
0.5584819793701171,0.7632133483886718
0.5584819793701171,0.7632133483886718
0.5739847183227539,0.7608415603637695
0.5739847183227539,0.7608415603637695
0.5721261978149413,0.7744165420532226
0.5721261978149413,0.7744165420532226
0.5637542724609375,0.7545392990112304
0.5637542724609375,0.7545392990112304
0.5794132232666015,0.7727090835571289
0.5794132232666015,0.7727090835571289
0.5588808059692383,0.7633569717407226
0.5588808059692383,0.7633569717407226
0.5731945037841797,0.7593297958374023
0.5731945037841797,0.7593297958374023
0.5703832626342773,0.7712385177612304
0.5703832626342773,0.7712385177612304
0.5610528945922851,0.7500406265258789
0.5610528945922851,0.7500406265258789
0.5760824203491210,0.7670625686645508
0.5760824203491210,0.7670625686645508
0.5550367355346679,0.7573322296142578
0.5550367355346679,0.7573322296142578
0.5693973541259766,0.7533107757568359
0.5693973541259766,0.7533107757568359
0.5667137145996094,0.7655765533447265
0.5667137145996094,0.7655765533447265
0.5576723098754882,0.7449743270874023
0.5576723098754882,0.7449743270874023
0.5732757568359375,0.7625724792480468
0.5732757568359375,0.7625724792480468
0.5526992797851562,0.7533130645751953
0.5526992797851562,0.7533130645751953
0.5675737380981445,0.7500062942504883
0.5675737380981445,0.7500062942504883
0.5651973724365235,0.7629215240478515
0.5651973724365235,0.7629215240478515
0.5566280364990234,0.7428731918334961
0.5566280364990234,0.7428731918334961
0.5725965499877930,0.7612277984619140
0.5725965499877930,0.7612277984619140
0.5524909973144531,0.7526624679565429
0.5524909973144531,0.7526624679565429
0.5677082061767578,0.7498466491699218
0.5677082061767578,0.7498466491699218
0.5658061981201171,0.7634199142456054
0.5658061981201171,0.7634199142456054
0.5575567245483398,0.7438007354736328
0.5575567245483398,0.7438007354736328
0.5736923217773438,0.7623510360717773
0.5736923217773438,0.7623510360717773
0.5537023544311523,0.7542823791503906
0.5537023544311523,0.7542823791503906
0.5690122604370117,0.7517595291137695
0.5690122604370117,0.7517595291137695
0.5671863555908203,0.7655227661132812
0.5671863555908203,0.7655227661132812
0.5589855194091796,0.7460460662841797
0.5589855194091796,0.7460460662841797
0.5752046585083007,0.7647583007812500
0.5752046585083007,0.7647583007812500
0.5553285598754882,0.7567691802978516
0.5553285598754882,0.7567691802978516
0.5707094192504882,0.7543230056762695
0.5707094192504882,0.7543230056762695
0.5689842224121093,0.7680072784423828
0.5689842224121093,0.7680072784423828
0.5608846664428710,0.7487651824951171
0.5608846664428710,0.7487651824951171
0.5770597457885742,0.7676055908203124
0.5770597457885742,0.7676055908203124
0.5572196960449218,0.7593400955200195
0.5572196960449218,0.7593400955200195
0.5724752426147460,0.7569425582885742
0.5724752426147460,0.7569425582885742
0.5706624984741211,0.7704030990600585
0.5706624984741211,0.7704030990600585
0.5623769760131836,0.7511701583862305
0.5623769760131836,0.7511701583862305
0.5783620834350586,0.7696901321411133
0.5783620834350586,0.7696901321411133
0.5583229064941406,0.7615671157836914
0.5583229064941406,0.7615671157836914
0.5736047744750976,0.7588291168212891
0.5736047744750976,0.7588291168212891
0.5715877532958984,0.7724784851074219
0.5715877532958984,0.7724784851074219
0.5632049560546875,0.7528638839721680
0.5645914077758789,0.7528638839721680
0.5792495727539062,0.7713953018188476
0.5792495727539062,0.7713953018188476
0.5591165542602539,0.7631538391113281
0.5591165542602539,0.7631538391113281
0.5742496490478516,0.7605554580688476
0.5742496490478516,0.7605554580688476
0.5722349166870117,0.7741327285766602
0.5722349166870117,0.7741327285766602
0.5639619827270508,0.7546194076538085
0.5639619827270508,0.7546194076538085
0.5798686981201172,0.7729843139648437
0.5798686981201172,0.7729843139648437
0.5595897674560547,0.7643211364746093
0.5595897674560547,0.7643211364746093
0.5742988586425781,0.7606201171875000
0.5742988586425781,0.7606201171875000
0.5717376708984375,0.7730037689208984
0.5717376708984375,0.7730037689208984
0.5621709823608398,0.7518516540527344
0.5621709823608398,0.7518516540527344
0.5771289825439453,0.7685949325561523
0.5771289825439453,0.7685949325561523
0.5558561325073242,0.7585384368896484
0.5558561325073242,0.7585384368896484
0.5696857452392577,0.7538166046142578
0.5696857452392577,0.7538166046142578
0.5666410446166992,0.7655811309814453
0.5666410446166992,0.7655811309814453
0.5572196960449218,0.7442876815795898
0.5572196960449218,0.7442876815795898
0.5723110198974609,0.7613605499267578
0.5723110198974609,0.7613605499267578
0.5516281127929688,0.7519517898559570
0.5516281127929688,0.7519517898559570
0.5660264968872070,0.7480007171630859
0.5660264968872070,0.7480007171630859
0.5635437011718750,0.7607110977172852
0.5635437011718750,0.7607110977172852
0.5546854019165038,0.7404418945312500
0.5546854019165038,0.7404418945312500
0.5704130172729492,0.7583679199218750
0.5704130172729492,0.7583679199218750
0.5501237869262695,0.7498094558715820
0.5501237869262695,0.7498094558715820
0.5650577545166016,0.7466079711914062
0.5650577545166016,0.7466079711914062
0.5633256912231445,0.7600570678710937
0.5633256912231445,0.7600570678710937
0.5546722412109375,0.7401472091674804
0.5546722412109375,0.7401472091674804
0.5707260131835937,0.7588703155517578
0.5707260131835937,0.7588703155517578
0.5507898330688477,0.7508085250854492
0.5507898330688477,0.7508085250854492
0.5659629821777343,0.7478845596313476
0.5659629821777343,0.7478845596313476
0.5643115997314453,0.7617010116577149
0.5643115997314453,0.7617010116577149
0.5558904647827149,0.7421155929565429
0.5558904647827149,0.7421155929565429
0.5719762802124023,0.7607276916503906
0.5719762802124023,0.7607276916503906
0.5521413803100585,0.7528718948364258
0.5521413803100585,0.7528718948364258
0.5673877716064453,0.7502706527709960
0.5673877716064453,0.7502706527709960
0.5657609939575196,0.7641431808471679
0.5657609939575196,0.7641431808471679
0.5575910568237304,0.7448009490966797
0.5575910568237304,0.7448009490966797
0.5737535476684570,0.7632974624633789
0.5737535476684570,0.7632974624633789
0.5541681289672852,0.7556556701660156
0.5541681289672852,0.7556556701660156
0.5566371917724610,0.7482318878173828
0.5566371917724610,0.7488012313842773
0.5566371917724610,0.7488012313842773
0.5745718002319335,0.7597434997558593
0.5579813003540038,0.7597434997558593
0.5617446899414062,0.7642822265625000
0.5760818481445312,0.7642822265625000
0.5651676177978515,0.7508949279785156
0.5651676177978515,0.7508949279785156
0.5746170043945312,0.7703990936279297
0.5746170043945312,0.7703990936279297
0.5591903686523437,0.7524347305297852
0.5591903686523437,0.7524347305297852
0.5769573211669922,0.7633306503295898
0.5769573211669922,0.7633306503295898
0.5643190383911133,0.7678436279296875
0.5643190383911133,0.7678436279296875
0.5675210952758789,0.7543561935424804
0.5569765090942382,0.7543561935424804
0.5739458084106445,0.7735960006713867
0.5738599777221679,0.7735960006713867
0.5610694885253906,0.7553466796875000
0.5610694885253906,0.7553466796875000
0.5787683486938476,0.7661424636840820
0.5787683486938476,0.7661424636840820
0.5660264968872070,0.7705490112304687
0.5660264968872070,0.7705490112304687
0.5691987991333007,0.7569643020629883
0.5691987991333007,0.7569643020629883
0.5784410476684571,0.7762247085571289
0.5755697250366211,0.7762247085571289
0.5627460479736328,0.7579639434814452
0.5627460479736328,0.7579639434814452
0.5805862426757812,0.7685628890991211
0.5805862426757812,0.7685628890991211
0.5673746109008789,0.7728721618652343
0.5673746109008789,0.7728721618652343
0.5702613830566406,0.7584480285644531
0.5702613830566406,0.7584480285644531
0.5789302825927735,0.7765325546264649
0.5789302825927735,0.7765325546264649
0.5622018814086914,0.7569408416748047
0.5622018814086914,0.7569408416748047
0.5790075302124024,0.7660543441772460
0.5790075302124024,0.7660543441772460
0.5648019790649413,0.7686338424682617
0.5648019790649413,0.7686338424682617
0.5668098449707031,0.7529531478881836
0.5668098449707031,0.7529531478881836
0.5747652053833008,0.7703241348266602
0.5747652053833008,0.7703241348266602
0.5580780029296875,0.7505836486816406
0.5580780029296875,0.7505836486816406
0.5747692108154296,0.7596124649047852
0.5747692108154296,0.7596124649047852
0.5610694885253906,0.7629238128662109
0.5610694885253906,0.7629238128662109
0.5635168075561523,0.7478994369506836
0.5635168075561523,0.7478994369506836
0.5720569610595703,0.7663066864013671
0.5720569610595703,0.7663066864013671
0.5557474136352539,0.7470863342285156
0.5557474136352539,0.7470863342285156
0.5729902267456054,0.7568452835083007
0.5729902267456054,0.7568452835083007
0.5597591400146484,0.7609954833984375
0.5597591400146484,0.7609954833984375
0.5624170303344727,0.7466279983520507
0.5624170303344727,0.7466279983520507
0.5713840484619140,0.7654020309448242
0.5713840484619140,0.7654020309448242
0.5555047988891602,0.7467327117919922
0.5555047988891602,0.7467327117919922
0.5731241226196289,0.7572086334228515
0.5731241226196289,0.7572086334228515
0.5601024627685547,0.7614990234375000
0.5601024627685547,0.7614990234375000
0.5629617691040039,0.7474811553955077
0.5629617691040039,0.7474811553955077
0.5721284866333007,0.7664548873901367
0.5721284866333007,0.7664548873901367
0.5559579849243164,0.7482788085937500
0.5559579849243164,0.7482788085937500
0.5735858917236328,0.7585727691650390
0.5735858917236328,0.7585727691650390
0.5608835220336914,0.7631166458129882
0.5608835220336914,0.7631166458129882
0.5639757156372071,0.7493362426757812
0.5639757156372071,0.7493362426757812
0.5732803344726562,0.7685388565063477
0.5732803344726562,0.7685388565063477
0.5576133728027344,0.7504480361938476
0.5576133728027344,0.7504480361938476
0.5753585815429687,0.7609022140502929
0.5753585815429687,0.7609022140502929
0.5625921249389648,0.7657253265380859
0.5625921249389648,0.7657253265380859
0.5656419754028320,0.7518745422363281
0.5656419754028320,0.7518745422363281
0.5750158309936523,0.7712705612182617
0.5750158309936523,0.7712705612182617
0.5592144012451171,0.7531476974487304
0.5592144012451171,0.7531476974487304
0.5769447326660156,0.7635280609130859
0.5769447326660156,0.7635280609130859
0.5642583847045898,0.7685892105102539
0.5642583847045898,0.7685892105102539
0.5674180984497070,0.7546463012695312
0.5674180984497070,0.7546463012695312
0.5770248413085938,0.7742500305175781
0.5770248413085938,0.7742500305175781
0.5613012313842773,0.7563034057617187
0.5613012313842773,0.7563034057617187
0.5793554306030273,0.7671054840087891
0.5793554306030273,0.7671054840087891
0.5667755126953125,0.7719909667968750
0.5667755126953125,0.7719909667968750
0.5696754455566406,0.7582374572753906
0.5696754455566406,0.7582374572753906
0.5791151046752929,0.7776517868041992
0.5791151046752929,0.7776517868041992
0.5633457183837890,0.7597698211669922
0.5633457183837890,0.7597698211669922
0.5811836242675781,0.7702314376831054
0.5811836242675781,0.7702314376831054
0.5683982849121093,0.7750865936279296
0.5683982849121093,0.7750865936279296
0.5713817596435546,0.7612163543701171
0.5713817596435546,0.7612163543701171
0.5810348510742187,0.7807199478149414
0.5781177520751953,0.7807199478149414
0.5651161193847656,0.7623710632324219
0.5651161193847656,0.7623710632324219
0.5828046798706055,0.7724121093749999
0.5828046798706055,0.7724121093749999
0.5697435379028321,0.7765977859497070
0.5697435379028321,0.7765977859497070
0.5720174789428710,0.7613159179687500
0.5720174789428710,0.7613159179687500
0.5805885314941406,0.7791194915771484
0.5805885314941406,0.7791194915771484
0.5636690139770507,0.7594528198242188
0.5636690139770507,0.7594528198242188
0.5803007125854492,0.7679569244384765
0.5803007125854492,0.7679569244384765
0.5664030075073242,0.7708654403686523
0.5664030075073242,0.7708654403686523
0.5678730010986328,0.7547292709350586
0.5678730010986328,0.7547292709350586
0.5760389328002929,0.7719892501831055
0.5760389328002929,0.7719892501831055
0.5589694976806641,0.7521389007568359
0.5589694976806641,0.7521389007568359
0.5757677078247070,0.7609176635742188
0.5757677078247070,0.7609176635742188
0.5617898941040039,0.7643835067749023
0.5617898941040039,0.7643835067749023
0.5637617111206055,0.7490180969238281
0.5637617111206055,0.7490180969238281
0.5725158691406250,0.7670660018920898
0.5725158691406250,0.7670660018920898
0.5559179306030273,0.7481065750122070
0.5559179306030273,0.7481065750122070
0.5732219696044921,0.7573928833007812
0.5732219696044921,0.7573928833007812
0.5599748611450195,0.7617828369140625
0.5599748611450195,0.7617828369140625
0.5623277664184571,0.7469192504882812
0.5623277664184571,0.7469192504882812
0.5716501235961914,0.7658346176147460
0.5716501235961914,0.7658346176147460
0.5552913665771484,0.7475320816040039
0.5552913665771484,0.7475320816040039
0.5730749130249023,0.7574678421020508
0.5730749130249023,0.7574678421020508
0.5600063323974609,0.7621496200561523
0.5600063323974609,0.7621496200561523
0.5625251770019531,0.7477403640747070
0.5625251770019531,0.7477403640747070
0.5720666885375977,0.7670808792114258
0.5720666885375977,0.7670808792114258
0.5558715820312500,0.7488779067993164
0.5558715820312500,0.7488779067993164
0.5739486694335937,0.7589178085327148
0.5739486694335937,0.7589178085327148
0.5611181259155273,0.7638816833496094
0.5611181259155273,0.7638816833496094
0.5639156341552735,0.7496778488159179
0.5639156341552735,0.7496778488159179
0.5734188079833984,0.7689331054687499
0.5701028823852539,0.7689331054687499
0.5574657440185546,0.7509984970092773
0.5574657440185546,0.7509984970092773
0.5752075195312499,0.7611116409301758
0.5752075195312499,0.7611116409301758
0.5625303268432617,0.7659770965576171
0.5625303268432617,0.7659770965576171
0.5652477264404296,0.7519203186035156
0.5652477264404296,0.7519203186035156
0.5749591827392578,0.7711091995239258
0.5749591827392578,0.7711091995239258
0.5590335845947265,0.7531997680664062
0.5590335845947265,0.7531997680664062
0.5769046783447266,0.7635520935058594
0.5769046783447266,0.7635520935058594
0.5641021728515625,0.7683958053588867
0.5641021728515625,0.7683958053588867
0.5668779373168945,0.7542715072631836
0.5668779373168945,0.7542715072631836
0.5766672134399414,0.7736217498779296
0.5766672134399414,0.7736217498779296
0.5605207443237304,0.7558204650878906
0.5605207443237304,0.7558204650878906
0.5786064147949218,0.7659994125366211
0.5786064147949218,0.7659994125366211
0.5658662796020507,0.7709266662597656
0.5658662796020507,0.7709266662597656
0.5684446334838867,0.7569780349731445
0.5684446334838867,0.7569780349731445
0.5782876968383789,0.7762733459472656
0.5782876968383789,0.7762733459472656
0.5622797012329102,0.7585000991821289
0.5622797012329102,0.7585000991821289
0.5802789688110351,0.7684730529785156
0.5802789688110351,0.7684730529785156
0.5674741744995117,0.7733636856079101
0.5674741744995117,0.7733636856079101
0.5699123382568360,0.7587799072265625
0.5699123382568360,0.7587799072265625
0.5790447235107422,0.7772174835205078
0.5790447235107422,0.7772174835205078
0.5622951507568359,0.7580955505371093
0.5622951507568359,0.7580955505371093
0.5792701721191406,0.7664056777954101
0.5792701721191406,0.7664056777954101
0.5654903411865234,0.7698543548583984
0.5804969787597656,0.7698543548583984
0.5669288635253906,0.7532747268676757
0.5669288635253906,0.7532747268676757
0.5752882003784180,0.7705781936645507
0.5752882003784180,0.7705781936645507
0.5578199386596679,0.7507976531982422
0.5578199386596679,0.7507976531982422
0.5746141433715820,0.7589544296264649
0.5746141433715820,0.7589544296264649
0.5610145568847656,0.7622863769531250
0.5610145568847656,0.7622863769531250
0.5627746582031250,0.7466554641723633
0.5627746582031250,0.7466554641723633
0.5716043472290039,0.7645826339721680
0.5716043472290039,0.7645826339721680
0.5548748016357422,0.7458377838134765
0.5548748016357422,0.7458377838134765
0.5721450805664062,0.7547779083251953
0.5721450805664062,0.7547779083251953
0.5589546203613281,0.7590036392211914
0.5589546203613281,0.7590036392211914
0.5611335754394531,0.7442213058471679
0.5611335754394531,0.7442213058471679
0.5704622268676758,0.7627704620361327
0.5704622268676758,0.7627704620361327
0.5653667449951172,0.7445371627807617
0.5653667449951172,0.7634485244750976
0.5716220855712890,0.7538738250732422
0.5716220855712890,0.7538738250732422
0.5586656570434571,0.7588417053222656
0.5586656570434571,0.7588417053222656
0.5612731933593750,0.7444747924804688
0.5612731933593750,0.7444747924804688
0.5707923889160156,0.7635349273681641
0.5707923889160156,0.7635349273681641
0.5545612335205078,0.7460260391235352
0.5545612335205078,0.7460260391235352
0.5726325988769531,0.7557786941528321
0.5726325988769531,0.7557786941528321
0.5600080490112305,0.7610738754272460
0.5600080490112305,0.7610738754272460
0.5630172729492188,0.7471235275268554
0.5630172729492188,0.7471235275268554
0.5727727890014648,0.7665018081665039
0.5727727890014648,0.7665018081665039
0.5570205688476563,0.7491474151611328
0.5570205688476563,0.7491474151611328
0.5750541687011719,0.7590854644775390
0.5583068847656250,0.7590854644775390
0.5627500534057617,0.7646638870239257
0.5627500534057617,0.7646638870239257
0.5654479980468750,0.7506139755249023
0.5654479980468750,0.7506139755249023
0.5752498626708984,0.7698280334472656
0.5752498626708984,0.7698280334472656
0.5591686248779296,0.7522109985351563
0.5591686248779296,0.7522109985351563
0.5770145416259765,0.7620426177978515
0.5770145416259765,0.7620426177978515
0.5642463684082031,0.7668434143066406
0.5642463684082031,0.7668434143066406
0.5665506362915039,0.7523883819580078
0.5665506362915039,0.7523883819580078
0.5758214950561523,0.7711715698242188
0.5758214950561523,0.7711715698242188
0.5707666397094726,0.7707183837890624
0.5779821395874023,0.7707183837890624
0.5615226745605468,0.7508863449096680
0.5615226745605468,0.7508863449096680
0.5775764465332031,0.7687425613403320
0.5775764465332031,0.7687425613403320
0.5572139739990234,0.7615196228027343
0.5572139739990234,0.7615196228027343
0.5720191955566406,0.7575508117675781
0.5720191955566406,0.7575508117675781
0.5706882476806641,0.7712739944458008
0.5706882476806641,0.7712739944458008
0.5615953445434571,0.7515872955322266
0.5615953445434571,0.7515872955322266
0.5777807235717773,0.7695699691772461
0.5777807235717773,0.7695699691772461
0.5577318191528320,0.7625942230224609
0.5577318191528320,0.7625942230224609
0.5724786758422852,0.7584926605224609
0.5724786758422852,0.7584926605224609
0.5711608886718750,0.7721660614013671
0.5711608886718750,0.7721660614013671
0.5617515563964843,0.7516519546508789
0.5617515563964843,0.7516519546508789
0.5773675918579101,0.7684370040893554
0.5773675918579101,0.7684370040893554
0.5563087463378906,0.7601011276245117
0.5563087463378906,0.7601011276245117
0.5700462341308593,0.7544889450073242
0.5700462341308593,0.7544889450073242
0.5679971694946289,0.7667449951171875
0.5679971694946289,0.7667449951171875
0.5578102111816406,0.7453485488891601
0.5578102111816406,0.7453485488891601
0.5731327056884765,0.7619081497192383
0.5731327056884765,0.7619081497192383
0.5519880294799805,0.7534732818603516
0.5519880294799805,0.7534732818603516
0.5660573959350585,0.7483617782592773
0.5660573959350585,0.7483617782592773
0.5642824172973633,0.7612209320068359
0.5642824172973633,0.7612209320068359
0.5544645309448242,0.7405786514282227
0.5544645309448242,0.7405786514282227
0.5702836990356445,0.7577602386474609
0.5702836990356445,0.7577602386474609
0.5495973587036133,0.7503078460693359
0.5495973587036133,0.7503078460693359
0.5642189025878906,0.7457113265991211
0.5642189025878906,0.7457113265991211
0.5628519058227539,0.7594179153442383
0.5628519058227539,0.7594179153442383
0.5534591674804688,0.7393249511718750
0.5534591674804688,0.7393249511718750
0.5697286605834960,0.7569505691528320
0.5697286605834960,0.7569505691528320
0.5494840621948242,0.7500532150268554
0.5494840621948242,0.7500532150268554
0.5642400741577148,0.7458200454711914
0.5642400741577148,0.7458200454711914
0.5631288528442383,0.7601165771484375
0.5631288528442383,0.7601165771484375
0.5540914535522461,0.7403526306152344
0.5540914535522461,0.7403526306152344
0.5707723617553710,0.7587152481079101
0.5707723617553710,0.7587152481079101
0.5507383346557617,0.7521514892578125
0.5507383346557617,0.7521514892578125
0.5658325195312500,0.7483549118041992
0.5658325195312500,0.7483549118041992
0.5651584625244140,0.7630119323730469
0.5651584625244140,0.7630119323730469
0.5562011718750000,0.7436359405517577
0.5562011718750000,0.7436359405517577
0.5730079650878906,0.7621324539184570
0.5730079650878906,0.7621324539184570
0.5531244277954102,0.7558685302734375
0.5531244277954102,0.7558685302734375
0.5684120178222656,0.7521823883056641
0.5684120178222656,0.7521823883056641
0.5677625656127929,0.7667312622070312
0.5677625656127929,0.7667312622070312
0.5587285995483399,0.7475194931030273
0.5587285995483399,0.7475194931030273
0.5639430999755859,0.7501173019409180
0.5639430999755859,0.7501539230346680
0.5578548431396484,0.7525228500366211
0.5700016021728516,0.7717420578002929
0.5610380172729492,0.7489282608032226
0.5610380172729492,0.7509933471679687
0.5657175064086913,0.7692564010620117
0.5657175064086913,0.7692564010620117
0.5579086303710937,0.7632202148437500
0.5579086303710937,0.7632202148437500
0.5732574462890625,0.7596651077270508
0.5732574462890625,0.7596651077270508
0.5727916717529297,0.7744142532348632
0.5727916717529297,0.7744142532348632
0.5639883041381836,0.7553529739379883
0.5639883041381836,0.7553529739379883
0.5809862136840820,0.7737968444824218
0.5809862136840820,0.7737968444824218
0.5610626220703124,0.7678556442260742
0.5610626220703124,0.7678556442260742
0.5763610839843750,0.7642822265625000
0.5763610839843750,0.7642822265625000
0.5760028839111327,0.7789112091064453
0.5760028839111327,0.7789112091064453
0.5670907974243163,0.7596296310424805
0.5670907974243163,0.7596296310424805
0.5837408065795898,0.7777313232421875
0.5837408065795898,0.7777313232421875
0.5634801864624023,0.7711944580078125
0.5634801864624023,0.7711944580078125
0.5779558181762695,0.7664051055908203
0.5779558181762695,0.7664051055908203
0.5765813827514649,0.7795103073120117
0.5765813827514649,0.7795103073120117
0.5663028717041015,0.7582386016845702
0.5663028717041015,0.7582386016845702
0.5816350936889648,0.7743032455444335
0.5816350936889648,0.7743032455444335
0.5598484039306640,0.7656223297119140
0.5598484039306640,0.7656223297119140
0.5732912063598633,0.7593389511108398
0.5732912063598633,0.7593389511108398
0.5713222503662109,0.7714187622070312
0.5713222503662109,0.7714187622070312
0.5605155944824218,0.7498266220092773
0.5605155944824218,0.7498266220092773
0.5760040283203125,0.7660446166992188
0.5760040283203125,0.7660446166992188
0.5543907165527343,0.7579181671142577
0.5543907165527343,0.7579181671142577
0.5685121536254882,0.7519655227661133
0.5685121536254882,0.7519655227661133
0.5669986724853515,0.7653259277343750
0.5669986724853515,0.7653259277343750
0.5568483352661132,0.7445199966430663
0.5592464447021485,0.7445199966430663
0.5728179931640625,0.7616008758544922
0.5728179931640625,0.7616008758544922
0.5521133422851562,0.7545335769653320
0.5521133422851562,0.7545335769653320
0.5666410446166992,0.7496131896972656
0.5666410446166992,0.7496131896972656
0.5656053543090820,0.7634073257446289
0.5656053543090820,0.7634073257446289
0.5560609817504882,0.7434385299682617
0.5560609817504882,0.7434385299682617
0.5725799560546875,0.7611276626586914
0.5725799560546875,0.7611276626586914
0.5522294998168945,0.7546417236328125
0.5522294998168945,0.7546417236328125
0.5669717788696289,0.7502151489257812
0.5669717788696289,0.7502151489257812
0.5662897109985351,0.7644384384155273
0.5662897109985351,0.7644384384155273
0.5568798065185546,0.7446281433105468
0.5568798065185546,0.7446281433105468
0.5734468460083008,0.7623704910278321
0.5734468460083008,0.7623704910278321
0.5532297134399414,0.7563623428344727
0.5532297134399414,0.7563623428344727
0.5680887222290039,0.7518585205078124
0.5680887222290039,0.7518585205078124
0.5675233840942383,0.7662408828735351
0.5675233840942383,0.7662408828735351
0.5579721450805664,0.7464168548583984
0.5579721450805664,0.7464168548583984
0.5746021270751953,0.7643989562988281
0.5746021270751953,0.7643989562988281
0.5543340682983399,0.7579490661621093
0.5543340682983399,0.7579490661621093
0.5691295623779297,0.7535734176635742
0.5691295623779297,0.7535734176635742
0.5685138702392578,0.7677314758300781
0.5685138702392578,0.7677314758300781
0.5588659286499024,0.7480264663696289
0.5588659286499024,0.7480264663696289
0.5755708694458007,0.7656995773315429
0.5755708694458007,0.7656995773315429
0.5552381515502930,0.7596347808837890
0.5552381515502930,0.7596347808837890
0.5700902938842773,0.7551063537597656
0.5700902938842773,0.7551063537597656
0.5694774627685547,0.7696226119995117
0.5694774627685547,0.7696226119995117
0.5599817276000977,0.7499101638793945
0.5599817276000977,0.7499101638793945
0.5768245697021485,0.7679094314575196
0.5768245697021485,0.7679094314575196
0.5565919876098633,0.7618766784667969
0.5565919876098633,0.7618766784667969
0.5715282440185546,0.7575862884521484
0.5715282440185546,0.7575862884521484
0.5713033676147461,0.7723514556884765
0.5713033676147461,0.7723514556884765
0.5619535446166992,0.7527997970581054
0.5619535446166992,0.7527997970581054
0.5788856506347656,0.7709552764892578
0.5788856506347656,0.7709552764892578
0.5587715148925781,0.7649820327758788
0.5587715148925781,0.7649820327758788
0.5737037658691406,0.7605680465698242
0.5737037658691406,0.7605680465698242
0.5731275558471679,0.7749286651611328
0.5731275558471679,0.7749286651611328
0.5632724761962891,0.7544574737548828
0.5632724761962891,0.7544574737548828
0.5796283721923828,0.7715446472167968
0.5796283721923828,0.7715446472167968
0.5585746765136719,0.7642416000366211
0.5585746765136719,0.7642416000366211
0.5722858428955078,0.7581092834472656
0.5722858428955078,0.7581092834472656
0.5709817886352538,0.7709266662597656
0.5709817886352538,0.7709266662597656
0.5600898742675781,0.7493551254272460
0.5600898742675781,0.7493551254272460
0.5758237838745117,0.7654649734497070
0.5758237838745117,0.7654649734497070
0.5543924331665039,0.7579347610473632
0.5543924331665039,0.7579347610473632
0.5682792663574219,0.7520616531372070
0.5682792663574219,0.7520616531372070
0.5670770645141602,0.7653036117553711
0.5670770645141602,0.7653036117553711
0.5569684982299804,0.7446573257446288
0.5569684982299804,0.7446573257446288
0.5732700347900390,0.7615024566650390
0.5732700347900390,0.7615024566650390
0.5525854110717773,0.7549919128417969
0.5525854110717773,0.7549919128417969
0.5671188354492187,0.7499650955200196
0.5671188354492187,0.7499650955200196
0.5665826797485352,0.7640562057495117
0.5665826797485352,0.7640562057495117
0.5568758010864258,0.7441755294799804
0.5599788665771485,0.7441755294799804
0.5735641479492187,0.7617765426635742
0.5735641479492187,0.7617765426635742
0.5532548904418945,0.7557197570800781
0.5532548904418945,0.7557197570800781
0.5681522369384765,0.7512445449829102
0.5681522369384765,0.7512445449829102
0.5679805755615234,0.7657648086547851
0.5679805755615234,0.7657648086547851
0.5585689544677734,0.7463069915771484
0.5585689544677734,0.7463069915771484
0.5752344131469727,0.7641185760498047
0.5752344131469727,0.7641185760498047
0.5552473068237305,0.7581859588623047
0.5552473068237305,0.7581859588623047
0.5701652526855469,0.7538188934326172
0.5701652526855469,0.7538188934326172
0.5696720123291016,0.7684146881103515
0.5696720123291016,0.7684146881103515
0.5601768493652344,0.7488504409790039
0.5601768493652344,0.7488504409790039
0.5768222808837891,0.7665458679199219
0.5768222808837891,0.7665458679199219
0.5565410614013672,0.7605199813842773
0.5565410614013672,0.7605199813842773
0.5564661026000977,0.7561288833618164
0.5584321975708008,0.7561288833618164
0.5775409698486328,0.7704620361328125
0.5775409698486328,0.7704620361328125
0.5612640380859375,0.7507135391235351
0.5612640380859375,0.7507135391235351
0.5779014587402344,0.7683431625366210
0.5779014587402344,0.7683431625366210
0.5575378417968749,0.7625038146972656
0.5575378417968749,0.7625038146972656
0.5723339080810547,0.7578609466552734
0.5723339080810547,0.7578609466552734
0.5717885971069335,0.7723234176635742
0.5717885971069335,0.7723234176635742
0.5622322082519531,0.7527471542358398
0.5622322082519531,0.7527471542358398
0.5790023803710938,0.7702909469604492
0.5790023803710938,0.7702909469604492
0.5587663650512695,0.7644418716430664
0.5587663650512695,0.7644418716430664
0.5733312606811524,0.7597984313964844
0.5733312606811524,0.7597984313964844
0.5729455947875977,0.7742414474487305
0.5729455947875977,0.7742414474487305
0.5632856369018554,0.7545782089233398
0.5632856369018554,0.7545782089233398
0.5800718307495117,0.7720848083496094
0.5800718307495117,0.7720848083496094
0.5599021911621094,0.7663667678833007
0.5599021911621094,0.7663667678833007
0.5616331100463867,0.7590934753417968
0.5616331100463867,0.7590934753417968
0.5626968383789063,0.7673028945922852
0.5643980026245117,0.7673028945922852
0.5677127838134766,0.7731548309326172
0.5677127838134766,0.7731548309326172
0.5689373016357422,0.7580972671508789
0.5689373016357422,0.7580972671508789
0.5790962219238281,0.7762498855590820
0.5790962219238281,0.7762498855590820
0.5615552902221680,0.7589464187622070
0.5615552902221680,0.7589464187622070
0.5789983749389648,0.7655084609985351
0.5789983749389648,0.7655084609985351
0.5657043457031250,0.7700077056884765
0.5657043457031250,0.7700077056884765
0.5659675598144531,0.7531299591064453
0.5659675598144531,0.7531299591064453
0.5751520156860351,0.7698961257934570
0.5751520156860351,0.7698961257934570
0.5570251464843750,0.7520170211791992
0.5570251464843750,0.7520170211791992
0.5743406295776367,0.7582717895507812
0.5743406295776367,0.7582717895507812
0.5611810684204102,0.7631309509277343
0.5611810684204102,0.7631309509277343
0.5617944717407226,0.7470027923583984
0.5617944717407226,0.7470027923583984
0.5718235015869141,0.7647645950317382
0.5718235015869141,0.7647645950317382
0.5541440963745117,0.7475223541259766
0.5541440963745117,0.7475223541259766
0.5722606658935546,0.7547447204589843
0.5722606658935546,0.7547447204589843
0.5595422744750976,0.7603322982788085
0.5595422744750976,0.7603322982788085
0.5607513427734375,0.7449748992919921
0.5607513427734375,0.7449748992919921
0.5709726333618164,0.7633964538574218
0.5709726333618164,0.7633964538574218
0.5538854598999023,0.7468603134155273
0.5538854598999023,0.7468603134155273
0.5721261978149413,0.7545639038085937
0.5721261978149413,0.7545639038085937
0.5600389480590821,0.7610012054443359
0.5600389480590821,0.7610012054443359
0.5614276885986328,0.7460340499877930
0.5614276885986328,0.7460340499877930
0.5723665237426757,0.7650489807128906
0.5723665237426757,0.7650489807128906
0.5553308486938476,0.7490255355834960
0.5553308486938476,0.7490255355834960
0.5738691329956055,0.7570981979370117
0.5738691329956055,0.7570981979370117
0.5618854522705078,0.7635177612304688
0.5618854522705078,0.7635177612304688
0.5634206771850586,0.7489448547363281
0.5634206771850586,0.7489448547363281
0.5743715286254882,0.7679689407348632
0.5743715286254882,0.7679689407348632
0.5572271347045898,0.7521749496459961
0.5572271347045898,0.7521749496459961
0.5758958816528320,0.7598670959472656
0.5758958816528320,0.7598670959472656
0.5638441085815430,0.7665315628051758
0.5638441085815430,0.7665315628051758
0.5652414321899414,0.7518751144409179
0.5652414321899414,0.7518751144409179
0.5760635375976563,0.7706245422363281
0.5760635375976563,0.7706245422363281
0.5590862274169922,0.7548070907592773
0.5590862274169922,0.7548070907592773
0.5778018951416015,0.7629398345947266
0.5778018951416015,0.7629398345947266
0.5659200668334960,0.7695562362670898
0.5659200668334960,0.7695562362670898
0.5674421310424804,0.7549295425415039
0.5674421310424804,0.7549295425415039
0.5783266067504883,0.7741384506225586
0.5783266067504883,0.7741384506225586
0.5614837646484375,0.7584486007690430
0.5614837646484375,0.7584486007690430
0.5801307678222656,0.7662540435791015
0.5801307678222656,0.7662540435791015
0.5683359146118164,0.7732463836669922
0.5683359146118164,0.7732463836669922
0.5697790145874023,0.7585968017578125
0.5697790145874023,0.7585968017578125
0.5809576034545898,0.7778245925903320
0.5809576034545898,0.7778245925903320
0.5639614105224610,0.7619396209716797
0.5639614105224610,0.7619396209716797
0.5825191497802734,0.7698709487915039
0.5825191497802734,0.7698709487915039
0.5707202911376953,0.7766017913818359
0.5707202911376953,0.7766017913818359
0.5720603942871093,0.7618183135986328
0.5720603942871093,0.7618183135986328
0.5830135345458984,0.7803983688354492
0.5830135345458984,0.7803983688354492
0.5654720306396485,0.7642438888549804
0.5654720306396485,0.7642438888549804
0.5835124969482421,0.7708940505981445
0.5835124969482421,0.7708940505981445
0.5707677841186524,0.7762098312377930
0.5707677841186524,0.7762098312377930
0.5709852218627930,0.7597074508666992
0.5709852218627930,0.7597074508666992
0.5804243087768555,0.7763980865478516
0.5804243087768555,0.7763980865478516
0.5617120742797851,0.7584617614746093
0.5617120742797851,0.7584617614746093
0.5787271499633789,0.7636522293090821
0.5787271499633789,0.7636522293090821
0.5651189804077148,0.7677755355834961
0.5651189804077148,0.7677755355834961
0.5647127151489257,0.7503976821899414
0.5647127151489257,0.7503976821899414
0.5740894317626953,0.7670637130737304
0.5740894317626953,0.7670637130737304
0.5553594589233398,0.7495313644409179
0.5553594589233398,0.7495313644409179
0.5730199813842773,0.7552608489990235
0.5730199813842773,0.7552608489990235
0.5599525451660156,0.7604175567626953
0.5599525451660156,0.7604175567626953
0.5600297927856445,0.7439025878906250
0.5600297927856445,0.7439025878906250
0.5702344894409179,0.7615419387817383
0.5702344894409179,0.7615419387817383
0.5522289276123047,0.7448329925537109
0.5522289276123047,0.7448329925537109
0.5703174591064453,0.7513092041015624
0.5703174591064453,0.7513092041015624
0.5578474044799805,0.7573322296142578
0.5578474044799805,0.7573322296142578
0.5585975646972656,0.7419021606445312
0.5585975646972656,0.7419021606445312
0.5693738937377929,0.7601268768310546
0.5693738937377929,0.7601268768310546
0.5517253875732422,0.7442413330078125
0.5517253875732422,0.7442413330078125
0.5702779769897460,0.7512004852294921
0.5702779769897460,0.7512004852294921
0.5581575393676758,0.7578351974487304
0.5581575393676758,0.7578351974487304
0.5590730667114258,0.7427186965942383
0.5590730667114258,0.7427186965942383
0.5702013015747071,0.7613697052001953
0.5702013015747071,0.7613697052001953
0.5526535034179687,0.7456884384155273
0.5526535034179687,0.7456884384155273
0.5714172363281250,0.7531070709228516
0.5714172363281250,0.7531070709228516
0.5594627380371093,0.7600965499877930
0.5594627380371093,0.7600965499877930
0.5605430603027344,0.7450160980224609
0.5605430603027344,0.7450160980224609
0.5718166351318359,0.7637975692749023
0.5718166351318359,0.7637975692749023
0.5543037414550781,0.7484704971313476
0.5543037414550781,0.7484704971313476
0.5730537414550781,0.7556482315063476
0.5730537414550781,0.7556482315063476
0.5612829208374023,0.7626337051391602
0.5612829208374023,0.7626337051391602
0.5622911453247070,0.7476104736328125
0.5622911453247070,0.7476104736328125
0.5735486984252930,0.7664726257324218
0.5735486984252930,0.7664726257324218
0.5561468124389648,0.7510070800781250
0.5561468124389648,0.7510070800781250
0.5747817993164063,0.7583496093750000
0.5747817993164063,0.7583496093750000
0.5630641937255859,0.7653167724609374
0.5630641937255859,0.7653167724609374
0.5640478134155273,0.7503633499145508
0.5640478134155273,0.7503633499145508
0.5754146575927734,0.7693862915039062
0.5754146575927734,0.7693862915039062
0.5581094741821289,0.7541284561157227
0.5581094741821289,0.7541284561157227
0.5769189834594727,0.7614057540893554
0.5769189834594727,0.7614057540893554
0.5654794692993164,0.7688478469848633
0.5654794692993164,0.7688478469848633
0.5664871215820312,0.7538612365722656
0.5664871215820312,0.7538612365722656
0.5780450820922851,0.7728292465209960
0.5780450820922851,0.7728292465209960
0.5605361938476562,0.7577207565307617
0.5605361938476562,0.7577207565307617
0.5793731689453124,0.7649345397949219
0.5793731689453124,0.7649345397949219
0.5676801681518554,0.7718461990356446
0.5676801681518554,0.7718461990356446
0.5685373306274414,0.7564527511596679
0.5685373306274414,0.7564527511596679
0.5794223785400391,0.7743324279785156
0.5794223785400391,0.7743324279785156
0.5610900878906250,0.7579696655273437
0.5610900878906250,0.7579696655273437
0.5787048339843750,0.7632785797119140
0.5787048339843750,0.7632785797119140
0.5656877517700195,0.7682355880737305
0.5656877517700195,0.7682355880737305
0.5650789260864257,0.7509023666381835
0.5650789260864257,0.7509023666381835
0.5748527526855468,0.7673337936401367
0.5748527526855468,0.7673337936401367
0.5559946060180664,0.7501304626464843
0.5559946060180664,0.7501304626464843
0.5732345581054688,0.7552934646606445
0.5732345581054688,0.7552934646606445
0.5607398986816406,0.7606475830078124
0.5607398986816406,0.7606475830078124
0.5607879638671874,0.7443191528320312
0.5607879638671874,0.7443191528320312
0.5713737487792968,0.7619911193847656
0.5713737487792968,0.7619911193847656
0.5531661987304687,0.7457204818725586
0.5531661987304687,0.7457204818725586
0.5713274002075195,0.7518104553222656
0.5713274002075195,0.7518104553222656
0.5592922210693360,0.7582351684570312
0.5592922210693360,0.7582351684570312
0.5596738815307617,0.7425230026245117
0.5596738815307617,0.7425230026245117
0.5705846786499024,0.7605709075927735
0.5705846786499024,0.7605709075927735
0.5526889801025391,0.7449972152709960
0.5526889801025391,0.7449972152709960
0.5710350036621094,0.7515432357788085
0.5710350036621094,0.7515432357788085
0.5593626022338867,0.7583129882812499
0.5593626022338867,0.7583129882812499
0.5598953247070312,0.7430076599121094
0.5598953247070312,0.7430076599121094
0.5710779190063476,0.7613697052001953
0.5710779190063476,0.7613697052001953
0.5532640457153321,0.7462434768676758
0.5532640457153321,0.7462434768676758
0.5719648361206054,0.7528604507446289
0.5719648361206054,0.7528604507446289
0.5601980209350585,0.7599328994750977
0.5601980209350585,0.7599328994750977
0.5607810974121094,0.7447992324829101
0.5607810974121094,0.7447992324829101
0.5721233367919921,0.7630050659179687
0.5721233367919921,0.7630050659179687
0.5542659759521484,0.7480281829833985
0.5542659759521484,0.7480281829833985
0.5728311538696289,0.7547092437744141
0.5728311538696289,0.7547092437744141
0.5612943649291992,0.7617885589599609
0.5619335174560547,0.7466703414916992
0.5619335174560547,0.7466703414916992
0.5731876373291015,0.7649951934814453
0.5731876373291015,0.7649951934814453
0.5553846359252930,0.7501001358032227
0.5553846359252930,0.7501001358032227
0.5739704132080078,0.7565368652343750
0.5739704132080078,0.7565368652343750
0.5625537872314453,0.7638158798217773
0.5625537872314453,0.7638158798217773
0.5629623413085937,0.7486902236938476
0.5629623413085937,0.7486902236938476
0.5744459152221679,0.7670064926147461
0.5744459152221679,0.7670064926147461
0.5565565109252929,0.7521114349365234
0.5565565109252929,0.7521114349365234
0.5752378463745117,0.7585298538208007
0.5752378463745117,0.7585298538208007
0.5637565612792969,0.7658002853393554
0.5637565612792969,0.7658002853393554
0.5642383575439452,0.7506551742553711
0.5642383575439452,0.7506551742553711
0.5756996154785156,0.7689977645874023
0.5756996154785156,0.7689977645874023
0.5577146530151367,0.7543132781982421
0.5577146530151367,0.7543132781982421
0.5765790939331055,0.7606470108032226
0.5765790939331055,0.7606470108032226
0.5651510238647460,0.7681194305419922
0.5651510238647460,0.7681194305419922
0.5655504226684570,0.7529966354370117
0.5655504226684570,0.7529966354370117
0.5771518707275390,0.7713512420654297
0.5771518707275390,0.7713512420654297
0.5592264175415039,0.7565128326416015
0.5592264175415039,0.7565128326416015
0.5777349472045898,0.7623779296875000
0.5777349472045898,0.7623779296875000
0.5659011840820313,0.7691316604614258
0.5659011840820313,0.7691316604614258
0.5655916213989257,0.7526767730712890
0.5655916213989257,0.7526767730712890
0.5761865615844727,0.7697118759155274
0.5761865615844727,0.7697118759155274
0.5571247100830078,0.7532358169555664
0.5704427719116211,0.7699642181396484
0.5746747970581054,0.7575914382934570
0.5746747970581054,0.7575914382934570
0.5622510910034180,0.7632654190063476
0.5622510910034180,0.7632654190063476
0.5614723205566406,0.7464036941528320
0.5614723205566406,0.7464036941528320
0.5723190307617188,0.7635057449340820
0.5723190307617188,0.7635057449340820
0.5534854888916015,0.7474508285522461
0.5534854888916015,0.7474508285522461
0.5716867446899414,0.7529760360717773
0.5716867446899414,0.7529760360717773
0.5599142074584961,0.7595890045166015
0.5599142074584961,0.7595890045166015
0.5598266601562499,0.7436273574829101
0.5598266601562499,0.7436273574829101
0.5712581634521484,0.7615476608276367
0.5712581634521484,0.7615476608276367
0.5528469085693359,0.7465307235717773
0.5528469085693359,0.7465307235717773
0.5714355468750000,0.7524673461914062
0.5714355468750000,0.7524673461914062
0.5602037429809570,0.7598367691040039
0.5602037429809570,0.7598367691040039
0.5604669570922851,0.7445205688476563
0.5604669570922851,0.7445205688476563
0.5722692489624023,0.7629020690917968
0.5722692489624023,0.7629020690917968
0.5541446685791015,0.7483995437622070
0.5541446685791015,0.7483995437622070
0.5729169845581055,0.7544935226440429
0.5729169845581055,0.7544935226440429
0.5617664337158202,0.7620769500732422
0.5617664337158202,0.7620769500732422
0.5622179031372070,0.7471000671386718
0.5622179031372070,0.7471000671386718
0.5740339279174804,0.7656972885131835
0.5740339279174804,0.7656972885131835
0.5559087753295898,0.7514030456542968
0.5559087753295898,0.7514030456542968
0.5750055313110352,0.7575050354003906
0.5750055313110352,0.7575050354003906
0.5639865875244140,0.7655199050903320
0.5639865875244140,0.7655199050903320
0.5642572402954101,0.7504583358764648
0.5642572402954101,0.7504583358764648
0.5763748168945312,0.7688615798950195
0.5763748168945312,0.7688615798950195
0.5583732604980468,0.7546846389770507
0.5583732604980468,0.7546846389770507
0.5771982192993164,0.7610418319702148
0.5771982192993164,0.7610418319702148
0.5663097381591796,0.7688627243041992
0.5663097381591796,0.7688627243041992
0.5666193008422852,0.7537559509277344
0.5666193008422852,0.7537559509277344
0.5786481857299804,0.7723617553710938
0.5786481857299804,0.7723617553710938
0.5605133056640624,0.7582740783691406
0.5605133056640624,0.7582740783691406
0.5795539855957031,0.7641689300537109
0.5795539855957031,0.7641689300537109
0.5686643600463867,0.7721122741699219
0.5686643600463867,0.7721122741699219
0.5687072753906249,0.7569900512695312
0.5687072753906249,0.7569900512695312
0.5807207107543945,0.7752502441406249
0.5807207107543945,0.7752502441406249
0.5623071670532226,0.7609960556030273
0.5623071670532226,0.7609960556030273
0.5811973571777344,0.7669235229492187
0.5811973571777344,0.7669235229492187
0.5700559616088867,0.7744743347167968
0.5700559616088867,0.7744743347167968
0.5699615478515625,0.7592645645141601
0.5699615478515625,0.7592645645141601
0.5818519592285156,0.7775287628173828
0.5818519592285156,0.7775287628173828
0.5632730484008789,0.7632053375244140
0.5632730484008789,0.7632053375244140
0.5820814132690429,0.7687906265258789
0.5820814132690429,0.7687906265258789
0.5708736419677735,0.7762161254882812
0.5708736419677735,0.7762161254882812
0.5703386306762696,0.7602252960205078
0.5703386306762696,0.7602252960205078
0.5816711425781250,0.7774280548095703
0.5816711425781250,0.7774280548095703
0.5623397827148438,0.7614772796630859
0.5623397827148438,0.7614772796630859
0.5798795700073242,0.7654901504516601
0.5798795700073242,0.7654901504516601
0.5676687240600585,0.7709575653076172
0.5676687240600585,0.7709575653076172
0.5657083511352539,0.7529474258422851
0.5657083511352539,0.7529474258422851
0.5759977340698242,0.7684696197509765
0.5759977340698242,0.7684696197509765
0.5558858871459961,0.7518167495727539
0.5558858871459961,0.7518167495727539
0.5731492996215820,0.7551967620849609
0.5731492996215820,0.7551967620849609
0.5610563278198242,0.7607849121093749
0.5610563278198242,0.7607849121093749
0.5595136642456054,0.7435827255249023
0.5595136642456054,0.7435827255249023
0.5705858230590820,0.7601886749267578
0.5641679763793945,0.7601886749267578
0.5510845184326172,0.7446601867675781
0.5510845184326172,0.7446601867675781
0.5691598892211914,0.7490261077880859
0.5691598892211914,0.7490261077880859
0.5576671600341797,0.7557735443115234
0.5576671600341797,0.7557735443115234
0.5568088531494141,0.7395029067993164
0.5568088531494141,0.7395029067993164
0.5683834075927734,0.7568653106689452
0.5683834075927734,0.7568653106689452
0.5491910934448242,0.7421739578247070
0.5491910934448242,0.7421739578247070
0.5676990509033203,0.7468786239624023
0.5676990509033203,0.7468786239624023
0.5565839767456054,0.7544019699096679
0.5565839767456054,0.7544019699096679
0.5559030532836914,0.7385124206542969
0.5559030532836914,0.7385124206542969
0.5676898956298828,0.7563337326049805
0.5676898956298828,0.7563337326049805
0.5486463546752930,0.7416320800781250
0.5486463546752930,0.7416320800781250
0.5671228408813477,0.7467493057250977
0.5671228408813477,0.7467493057250977
0.5561101913452148,0.7541439056396484
0.5561101913452148,0.7541439056396484
0.5551603317260742,0.7380935668945312
0.5551603317260742,0.7380935668945312
0.5671646118164062,0.7560607910156250
0.5609458923339844,0.7560607910156250
0.5483865737915039,0.7415891647338867
0.5483865737915039,0.7415891647338867
0.5668767929077149,0.7466966629028320
0.5668767929077149,0.7466966629028320
0.5560701370239257,0.7543704986572265
0.5560701370239257,0.7543704986572265
0.5553806304931640,0.7386526107788086
0.5553806304931640,0.7386526107788086
0.5674392700195312,0.7568853378295898
0.5674392700195312,0.7568853378295898
0.5488306045532226,0.7425413131713867
0.5488306045532226,0.7425413131713867
0.5676057815551757,0.7478044509887695
0.5676057815551757,0.7478044509887695
0.5570308685302734,0.7558530807495117
0.5570308685302734,0.7558530807495117
0.5564420700073242,0.7404533386230469
0.5564420700073242,0.7404533386230469
0.5688463211059570,0.7586683273315430
0.5688463211059570,0.7586683273315430
0.5502576828002930,0.7447608947753906
0.5669059753417969,0.7447608947753906
0.5691455841064453,0.7501922607421875
0.5691455841064453,0.7501922607421875
0.5587703704833984,0.7584245681762695
0.5587703704833984,0.7584245681762695
0.5583600997924805,0.7431398391723633
0.5583600997924805,0.7431398391723633
0.5710332870483398,0.7618824005126953
0.5710332870483398,0.7618824005126953
0.5526266098022461,0.7481231689453125
0.5526266098022461,0.7481231689453125
0.5717313766479492,0.7536695480346679
0.5717313766479492,0.7536695480346679
0.5614128112792969,0.7620134353637695
0.5614128112792969,0.7620134353637695
0.5608829498291016,0.7466835021972656
0.5608829498291016,0.7466835021972656
0.5732460021972656,0.7647342681884766
0.5732460021972656,0.7647342681884766
0.5544319152832031,0.7506231307983399
0.5544319152832031,0.7506231307983399
0.5729867935180664,0.7551904678344726
0.5729867935180664,0.7551904678344726
0.5619953155517577,0.7623395919799805
0.5619953155517577,0.7623395919799805
0.5607364654541015,0.7456289291381836
0.5607364654541015,0.7456289291381836
0.5721296310424805,0.7623973846435547
0.5721296310424805,0.7623973846435547
0.5526105880737304,0.7470308303833008
0.5526105880737304,0.7470308303833008
0.5703191757202148,0.7506025314331054
0.5703191757202148,0.7506025314331054
0.5590970993041992,0.7571159362792969
0.5590970993041992,0.7571159362792969
0.5575407028198242,0.7404064178466797
0.5575407028198242,0.7404064178466797
0.5690139770507813,0.7570787429809570
0.5690139770507813,0.7570787429809570
0.5494342803955078,0.7420372009277344
0.5494342803955078,0.7420372009277344
0.5673271179199219,0.7458892822265625
0.5673271179199219,0.7458892822265625
0.5564575195312500,0.7528215408325195
0.5564575195312500,0.7528215408325195
0.5550430297851562,0.7364273071289062
0.5550430297851562,0.7364273071289062
0.5667160034179687,0.7534841537475586
0.5667160034179687,0.7534841537475586
0.5475276947021485,0.7390262603759765
0.5475276947021485,0.7390262603759765
0.5659841537475586,0.7433446884155274
0.5659841537475586,0.7433446884155274
0.5553926467895508,0.7510974884033202
0.5553926467895508,0.7510974884033202
0.5543209075927734,0.7355186462402343
0.5543209075927734,0.7355186462402343
0.5666004180908203,0.7531454086303710
0.5666004180908203,0.7531454086303710
0.5477937698364258,0.7393569946289062
0.5477937698364258,0.7393569946289062
0.5664350509643554,0.7441503524780273
0.5664350509643554,0.7441503524780273
0.5561965942382813,0.7524753570556640
0.5561965942382813,0.7524753570556640
0.5553634643554687,0.7369989395141602
0.5553634643554687,0.7369989395141602
0.5678329467773438,0.7551063537597656
0.5678329467773438,0.7551063537597656
0.5490686416625976,0.7412555694580077
0.5490686416625976,0.7412555694580077
0.5676801681518554,0.7462675094604492
0.5676801681518554,0.7462675094604492
0.5575916290283203,0.7544448852539062
0.5575916290283203,0.7544448852539062
0.5566263198852539,0.7391218185424805
0.5566263198852539,0.7391218185424805
0.5690752029418945,0.7571777343750000
0.5690752029418945,0.7571777343750000
0.5501518249511719,0.7434196472167969
0.5501518249511719,0.7434196472167969
0.5690792083740234,0.7482725143432617
0.5690792083740234,0.7482725143432617
0.5590204238891602,0.7565488815307617
0.5590204238891602,0.7565488815307617
0.5579549789428710,0.7411571502685547
0.5579549789428710,0.7411571502685547
0.5702625274658203,0.7589778900146484
0.5702625274658203,0.7589778900146484
0.5515634536743164,0.7453914642333984
0.5515634536743164,0.7453914642333984
0.5701950073242187,0.7501441955566406
0.5701950073242187,0.7501441955566406
0.5601436614990234,0.7583724975585937
0.5601436614990234,0.7583724975585937
0.5589277267456054,0.7429573059082031
0.5520034790039062,0.7429573059082031
0.5714658737182617,0.7607694625854492
0.5714658737182617,0.7607694625854492
0.5525556564331054,0.7472608566284179
0.5695558547973633,0.7472608566284179
0.5712478637695312,0.7520793914794922
0.5712478637695312,0.7520793914794922
0.5612016677856445,0.7604490280151367
0.5612016677856445,0.7604490280151367
0.5598781585693359,0.7447998046875000
0.5598781585693359,0.7447998046875000
0.5724895477294921,0.7626852035522461
0.5724895477294921,0.7626852035522461
0.5535312652587890,0.7492527008056641
0.5535312652587890,0.7492527008056641
0.5719642639160156,0.7536838531494140
0.5719642639160156,0.7536838531494140
0.5620965957641602,0.7617330551147461
0.5620965957641602,0.7617330551147461
0.5602643966674804,0.7455150604248046
0.5602643966674804,0.7455150604248046
0.5723104476928711,0.7624328613281249
0.5723104476928711,0.7624328613281249
0.5525304794311523,0.7475360870361328
0.5525304794311523,0.7475360870361328
0.5701217651367188,0.7502655029296875
0.5701217651367188,0.7502655029296875
0.5592824935913085,0.7569660186767578
0.5592824935913085,0.7569660186767578
0.5565181732177734,0.7397466659545898
0.5565181732177734,0.7397466659545898
0.5683078765869141,0.7558994293212891
0.5683078765869141,0.7558994293212891
0.5480987548828125,0.7408504486083984
0.5480987548828125,0.7408504486083984
0.5661140441894531,0.7442287445068360
0.5661140441894531,0.7442287445068360
0.5557674407958985,0.7515472412109375
0.5557674407958985,0.7515472412109375
0.5536748886108398,0.7351409912109375
0.5536748886108398,0.7351409912109375
0.5658731460571289,0.7523654937744141
0.5658731460571289,0.7523654937744141
0.5615879058837890,0.7546903610229492
0.5615879058837890,0.7546903610229492
0.5615879058837890,0.7528444290161133
0.5481857299804688,0.7326473236083985
0.5542711257934571,0.7326473236083985
0.5668321609497070,0.7477346420288086
0.5668321609497070,0.7477346420288086
0.5470436096191406,0.7451139450073242
0.5470436096191406,0.7451139450073242
0.5592098236083984,0.7370006561279296
0.5592098236083984,0.7370006561279296
0.5620096206665038,0.7533256530761718
0.5620096206665038,0.7533256530761718
0.5488328933715820,0.7335262298583984
0.5488328933715820,0.7335262298583984
0.5679239273071289,0.7492670059204102
0.5679239273071289,0.7492670059204102
0.5484128952026367,0.7468832015991210
0.5484128952026367,0.7468832015991210
0.5607507705688476,0.7398445129394531
0.5607507705688476,0.7398445129394531
0.5639041900634766,0.7561008453369140
0.5639041900634766,0.7561008453369140
0.5510736465454101,0.7367620468139648
0.5510736465454101,0.7367620468139648
0.5703775405883789,0.7528455734252929
0.5703775405883789,0.7528455734252929
0.5512521743774413,0.7507862091064453
0.5512521743774413,0.7507862091064453
0.5635276794433594,0.7436119079589844
0.5635276794433594,0.7436119079589844
0.5668876647949218,0.7599803924560546
0.5668876647949218,0.7599803924560546
0.5538934707641602,0.7404853820800781
0.5538934707641602,0.7404853820800781
0.5729536056518555,0.7563566207885742
0.5729536056518555,0.7563566207885742
0.5536737442016602,0.7541765213012696
0.5536737442016602,0.7541765213012696
0.5658096313476563,0.7467613220214844
0.5658096313476563,0.7467613220214844
0.5688343048095703,0.7630348205566406
0.5688343048095703,0.7630348205566406
0.5557153701782226,0.7434156417846679
0.5557153701782226,0.7434156417846679
0.5747085571289062,0.7589218139648437
0.5747085571289062,0.7589218139648437
0.5553274154663086,0.7567148208618164
0.5553274154663086,0.7567148208618164
0.5671800613403321,0.7492029190063476
0.5671800613403321,0.7492029190063476
0.5704370498657226,0.7653276443481445
0.5704370498657226,0.7653276443481445
0.5570720672607422,0.7456357955932617
0.5570720672607422,0.7456357955932617
0.5761104583740234,0.7614669799804688
0.5761104583740234,0.7614669799804688
0.5568923950195312,0.7593687057495117
0.5568923950195312,0.7593687057495117
0.5686397552490234,0.7519895553588867
0.5686397552490234,0.7519895553588867
0.5721977233886718,0.7684192657470703
0.5721977233886718,0.7684192657470703
0.5589334487915039,0.7487154006958008
0.5589334487915039,0.7487154006958008
0.5780193328857421,0.7644018173217774
0.5633331298828125,0.7644018173217774
0.5587898254394531,0.7621141433715820
0.5587898254394531,0.7621141433715820
0.5699758529663086,0.7540740966796875
0.5699758529663086,0.7540740966796875
0.5729856491088867,0.7693119049072266
0.5729856491088867,0.7693119049072266
0.5588396072387695,0.7483823776245117
0.5588396072387695,0.7483823776245117
0.5767324447631835,0.7621438980102538
0.5767324447631835,0.7621438980102538
0.5561754226684570,0.7581115722656250
0.5561754226684570,0.7581115722656250
0.5663457870483398,0.7479652404785156
0.5663457870483398,0.7479652404785156
0.5681608200073242,0.7618566513061523
0.5681608200073242,0.7618566513061523
0.5530883789062500,0.7396928787231445
0.5530883789062500,0.7396928787231445
0.5705949783325195,0.7529685974121093
0.5705949783325195,0.7529685974121093
0.5501558303833007,0.7489105224609375
0.5501558303833007,0.7489105224609375
0.5602895736694335,0.7394239425659179
0.5602895736694335,0.7394239425659179
0.5627883911132813,0.7540351867675781
0.5627883911132813,0.7540351867675781
0.5483980178833008,0.7329133987426758
0.5483980178833008,0.7329133987426758
0.5667583465576171,0.7473157882690430
0.5667583465576171,0.7473157882690430
0.5472175598144531,0.7446075439453125
0.5472175598144531,0.7446075439453125
0.5579446792602539,0.7356754302978515
0.5579446792602539,0.7356754302978515
0.5611358642578125,0.7513389587402344
0.5611358642578125,0.7513389587402344
0.5472948074340820,0.7311790466308593
0.5472948074340820,0.7311790466308593
0.5659795761108398,0.7462245941162109
0.5659795761108398,0.7462245941162109
0.5470424652099609,0.7440942764282227
0.5470424652099609,0.7440942764282227
0.5579990386962891,0.7360422134399414
0.5579990386962891,0.7360422134399414
0.5616165161132812,0.7521148681640625
0.5616165161132812,0.7521148681640625
0.5481582641601562,0.7326513290405273
0.5481582641601562,0.7326513290405273
0.5671497344970703,0.7480756759643554
0.5671497344970703,0.7480756759643554
0.5484455108642577,0.7464912414550781
0.5484455108642577,0.7464912414550781
0.5595691680908202,0.7386262893676757
0.5595691680908202,0.7386262893676757
0.5636541366577148,0.7551126480102539
0.5636541366577148,0.7551126480102539
0.5499893188476562,0.7354574203491211
0.5499893188476562,0.7354574203491211
0.5690666198730469,0.7508611679077148
0.5690666198730469,0.7508611679077148
0.5505060195922852,0.7493785858154297
0.5505060195922852,0.7493785858154297
0.5614597320556640,0.7414524078369140
0.5614597320556640,0.7414524078369140
0.5654188156127929,0.7578054428100586
0.5654188156127929,0.7578054428100586
0.5518083572387695,0.7380146026611328
0.5518083572387695,0.7380146026611328
0.5708627700805664,0.7535779953002929
0.5708627700805664,0.7535779953002929
0.5523279190063476,0.7521492004394531
0.5523279190063476,0.7521492004394531
0.5633863449096680,0.7440479278564452
0.5633863449096680,0.7440479278564452
0.5673986434936523,0.7604421615600586
0.5673986434936523,0.7604421615600586
0.5537578582763671,0.7408023834228515
0.5537578582763671,0.7408023834228515
0.5728580474853515,0.7564247131347656
0.5728580474853515,0.7564247131347656
0.5542465209960937,0.7548414230346679
0.5542465209960937,0.7548414230346679
0.5651727676391601,0.7469701766967773
0.5651727676391601,0.7469701766967773
0.5694677352905273,0.7633758544921875
0.5694677352905273,0.7633758544921875
0.5558835983276367,0.7440027236938477
0.5558835983276367,0.7440027236938477
0.5750078201293946,0.7596405029296874
0.5750078201293946,0.7596405029296874
0.5566600799560547,0.7582626342773438
0.5566600799560547,0.7582626342773438
0.5675971984863281,0.7505035400390625
0.5675971984863281,0.7505035400390625
0.5718103408813476,0.7669372558593750
0.5718103408813476,0.7669372558593750
0.5582193374633789,0.7471429824829101
0.5582193374633789,0.7471429824829101
0.5770111083984375,0.7621370315551758
0.5619100570678711,0.7621370315551758
0.5579778671264648,0.7596055984497070
0.5579778671264648,0.7596055984497070
0.5677968978881835,0.7501522064208984
0.5677968978881835,0.7501522064208984
0.5708261489868164,0.7644945144653320
0.5708261489868164,0.7644945144653320
0.5554985046386719,0.7424646377563476
0.5554985046386719,0.7424646377563476
0.5730846405029296,0.7556997299194336
0.5730846405029296,0.7556997299194336
0.5529676437377929,0.7518156051635742
0.5529676437377929,0.7518156051635742
0.5621286392211914,0.7414707183837891
0.5621286392211914,0.7414707183837891
0.5649908065795898,0.7557741165161133
0.5649908065795898,0.7557741165161133
0.5500940322875977,0.7344881057739258
0.5500940322875977,0.7344881057739258
0.5681344985961914,0.7485311508178710
0.5681344985961914,0.7485311508178710
0.5489828109741210,0.7457004547119140
0.5489828109741210,0.7457004547119140
0.5587783813476562,0.7364324569702149
0.5587783813476562,0.7364324569702149
0.5625125885009765,0.7518733978271485
0.5625125885009765,0.7518733978271485
0.5479740142822266,0.7312299728393554
0.5479740142822266,0.7312299728393554
0.5665809631347656,0.7461273193359375
0.5665809631347656,0.7461273193359375
0.5480175018310547,0.7441411972045898
0.5480175018310547,0.7441411972045898
0.5579549789428710,0.7355009078979492
0.5579549789428710,0.7355009078979492
0.5621395111083984,0.7517372131347656
0.5621395111083984,0.7517372131347656
0.5481702804565429,0.7316968917846679
0.5481702804565429,0.7316968917846679
0.5670553207397461,0.7469655990600585
0.5670553207397461,0.7469655990600585
0.5488534927368164,0.7453439712524413
0.5488534927368164,0.7453439712524413
0.5590616226196289,0.7371150970458984
0.5590616226196289,0.7371150970458984
0.5634143829345702,0.7535419464111328
0.5634143829345702,0.7535419464111328
0.5495206832885742,0.7337774276733399
0.5495206832885742,0.7337774276733399
0.5686328887939452,0.7490827560424804
0.5686328887939452,0.7490827560424804
0.5504505157470703,0.7478713989257812
0.5504505157470703,0.7478713989257812
0.5605756759643554,0.7396024703979492
0.5605756759643554,0.7396024703979492
0.5651653289794921,0.7559532165527344
0.5651653289794921,0.7559532165527344
0.5512287139892578,0.7361995697021484
0.5512287139892578,0.7361995697021484
0.5700468063354492,0.7515363693237305
0.5700468063354492,0.7515363693237305
0.5520555496215820,0.7501361846923827
0.5520555496215820,0.7501361846923827
0.5622087478637695,0.7420063018798828
0.5622087478637695,0.7420063018798828
0.5668836593627929,0.7585435867309570
0.5668836593627929,0.7585435867309570
0.5528114318847656,0.7387538909912109
0.5528114318847656,0.7387538909912109
0.5716753005981445,0.7540557861328124
0.5716753005981445,0.7540557861328124
0.5539609909057617,0.7529817581176758
0.5539609909057617,0.7529817581176758
0.5637989044189453,0.7446790695190429
0.5637989044189453,0.7446790695190429
0.5685018539428711,0.7611803054809571
0.5685018539428711,0.7611803054809571
0.5544187545776367,0.7413791656494141
0.5544187545776367,0.7413791656494141
0.5733146667480469,0.7568395614624023
0.5733146667480469,0.7568395614624023
0.5554286956787109,0.7557369232177734
0.5554286956787109,0.7557369232177734
0.5653850555419921,0.7473094940185546
0.5653850555419921,0.7473094940185546
0.5702430725097656,0.7638971328735351
0.5702430725097656,0.7638971328735351
0.5561473846435546,0.7442670822143554
0.5561473846435546,0.7442670822143554
0.5751050949096680,0.7594751358032227
0.5751050949096680,0.7594751358032227
0.5571235656738281,0.7582666397094726
0.5571235656738281,0.7582666397094726
0.5665798187255859,0.7491056442260742
0.5665798187255859,0.7491056442260742
0.5709806442260742,0.7647714614868164
0.5709806442260742,0.7647714614868164
0.5560609817504882,0.7435701370239257
0.5560609817504882,0.7435701370239257
0.5739635467529297,0.7573059082031249
0.5739635467529297,0.7573059082031249
0.5549840927124023,0.7544477462768554
0.5549840927124023,0.7544477462768554
0.5635631561279296,0.7439992904663085
0.5635631561279296,0.7439992904663085
0.5672985076904297,0.7588989257812500
0.5672985076904297,0.7588989257812500
0.5520727157592773,0.7372318267822265
0.5520727157592773,0.7372318267822265
0.5699077606201172,0.7510356903076172
0.5699077606201172,0.7510356903076172
0.5512361526489258,0.7486621856689453
0.5512361526489258,0.7486621856689453
0.5600755691528320,0.7387641906738281
0.5600755691528320,0.7387641906738281
0.5642097473144531,0.7542583465576171
0.5642097473144531,0.7542583465576171
0.5492980957031249,0.7331983566284179
0.5492980957031249,0.7331983566284179
0.5679559707641602,0.7479377746582031
0.5679559707641602,0.7479377746582031
0.5498594284057617,0.7464414596557617
0.5498594284057617,0.7464414596557617
0.5590221405029296,0.7370950698852539
0.5590221405029296,0.7370950698852539
0.5639785766601563,0.7535728454589844
0.5639785766601563,0.7535728454589844
0.5494297027587890,0.7333786010742187
0.5494297027587890,0.7333786010742187
0.5684749603271484,0.7487497329711914
0.5684749603271484,0.7487497329711914
0.5509529113769531,0.7478897094726562
0.5509529113769531,0.7478897094726562
0.5603902816772460,0.7392385482788085
0.5603902816772460,0.7392385482788085
0.5673019409179687,0.7437234878540039
0.5673019409179687,0.7445371627807617
0.5603078842163086,0.7547647476196289
0.5603078842163086,0.7547647476196289
0.5566034317016602,0.7387681961059570
0.5566034317016602,0.7387681961059570
0.5705280303955078,0.7570816040039062
0.5705280303955078,0.7570816040039062
0.5508476257324219,0.7444988250732422
0.5508476257324219,0.7444988250732422
0.5687782287597656,0.7470005035400390
0.5687782287597656,0.7470005035400390
0.5617807388305663,0.7571268081665039
0.5617807388305663,0.7571268081665039
0.5577117919921875,0.7406078338623047
0.5577117919921875,0.7406078338623047
0.5715980529785156,0.7590568542480468
0.5715980529785156,0.7590568542480468
0.5519851684570313,0.7463762283325195
0.5519851684570313,0.7463762283325195
0.5697515487670898,0.7487783432006836
0.5697515487670898,0.7487783432006836
0.5628547668457031,0.7588285446166992
0.5628547668457031,0.7588285446166992
0.5586833953857422,0.7424451828002929
0.5586833953857422,0.7424451828002929
0.5726835250854492,0.7608558654785156
0.5726835250854492,0.7608558654785156
0.5528577804565430,0.7482330322265625
0.5528577804565430,0.7482330322265625
0.5707277297973633,0.7506660461425781
0.5707277297973633,0.7506660461425781
0.5641799926757812,0.7609371185302735
0.5641799926757812,0.7609371185302735
0.5600086212158203,0.7445686340332031
0.5600086212158203,0.7445686340332031
0.5739755630493164,0.7629455566406250
0.5739755630493164,0.7629455566406250
0.5544067382812500,0.7505825042724609
0.5544067382812500,0.7505825042724609
0.5721078872680664,0.7528644561767578
0.5721078872680664,0.7528644561767578
0.5655956268310547,0.7632213592529297
0.5655956268310547,0.7632213592529297
0.5612274169921875,0.7467498779296875
0.5612274169921875,0.7467498779296875
0.5753391265869140,0.7649917602539062
0.5753391265869140,0.7649917602539062
0.5554023742675781,0.7522144317626953
0.5554023742675781,0.7522144317626953
0.5728631973266601,0.7540008544921875
0.5728631973266601,0.7540008544921875
0.5657403945922851,0.7635000228881835
0.5657403945922851,0.7635000228881835
0.5606323242187500,0.7455150604248046
0.5606323242187500,0.7455150604248046
0.5735773086547852,0.7619985580444336
0.5735773086547852,0.7619985580444336
0.5524709701538085,0.7475166320800781
0.5524709701538085,0.7475166320800781
0.5686552047729492,0.7474794387817383
0.5686552047729492,0.7474794387817383
0.5608823776245117,0.7557598114013672
0.5608823776245117,0.7557598114013672
0.5550613403320312,0.7369646072387696
0.5550613403320312,0.7369646072387696
0.5678375244140624,0.7533960342407227
0.5678375244140624,0.7533960342407227
0.5468999862670898,0.7389547348022460
0.5468999862670898,0.7389547348022460
0.5632999420166015,0.7393152236938476
0.5632999420166015,0.7393152236938476
0.5560678482055664,0.7482799530029297
0.5560678482055664,0.7482799530029297
0.5505723953247070,0.7302091598510742
0.5505723953247070,0.7302091598510742
0.5639837265014648,0.7475515365600586
0.5548456192016601,0.7475515365600586
0.5625240325927734,0.7341259002685546
0.5601167678833008,0.7341259002685546
0.5606826782226563,0.7353910446166992
0.5606826782226563,0.7353910446166992
0.5542024612426758,0.7453554153442382
0.5542024612426758,0.7453554153442382
0.5492820739746094,0.7281211853027344
0.5492820739746094,0.7281211853027344
0.5632787704467773,0.7464214324951172
0.5632787704467773,0.7464214324951172
0.5435445785522460,0.7340103149414062
0.5435445785522460,0.7340103149414062
0.5612674713134765,0.7359632492065430
0.5612674713134765,0.7359632492065430
0.5553583145141602,0.7467922210693360
0.5553583145141602,0.7467922210693360
0.5509111404418945,0.7301662445068359
0.5509111404418945,0.7301662445068359
0.5653203964233399,0.7489179611206055
0.5653203964233399,0.7489179611206055
0.5459129333496093,0.7369840621948242
0.5459129333496093,0.7369840621948242
0.5636484146118164,0.7391183853149413
0.5636484146118164,0.7391183853149413
0.5580013275146484,0.7502569198608399
0.5580013275146484,0.7502569198608399
0.5534803390502929,0.7333562850952148
0.5534803390502929,0.7333562850952148
0.5679857254028320,0.7523780822753906
0.5679857254028320,0.7523780822753906
0.5482761383056640,0.7402616500854492
0.5482761383056640,0.7402616500854492
0.5657129287719727,0.7422328948974609
0.5657129287719727,0.7422328948974609
0.5600767135620117,0.7529062271118164
0.5600767135620117,0.7529062271118164
0.5551746368408202,0.7362716674804687
0.5551746368408202,0.7362716674804687
0.5697183609008789,0.7550291061401367
0.5697183609008789,0.7550291061401367
0.5502485275268555,0.7429224014282226
0.5502485275268555,0.7429224014282226
0.5676864624023438,0.7449846267700195
0.5676864624023438,0.7449846267700195
0.5621171951293945,0.7561454772949219
0.5621171951293945,0.7561454772949219
0.5576826095581054,0.7396808624267578
0.5576826095581054,0.7396808624267578
0.5724157333374024,0.7585733413696288
0.5724157333374024,0.7585733413696288
0.5531541824340820,0.7469827651977539
0.5531541824340820,0.7469827651977539
0.5707214355468749,0.7491205215454101
0.5707214355468749,0.7491205215454101
0.5654525756835938,0.7603883743286133
0.5654525756835938,0.7603883743286133
0.5609395980834960,0.7439506530761718
0.5609395980834960,0.7439506530761718
0.5755210876464844,0.7630920410156250
0.5755210876464844,0.7630920410156250
0.5561920166015625,0.7511707305908203
0.5561920166015625,0.7511707305908203
0.5735486984252930,0.7531436920166016
0.5735486984252930,0.7531436920166016
0.5677459716796874,0.7638256072998046
0.5677459716796874,0.7638256072998046
0.5624456405639648,0.7462366104125976
0.5624456405639648,0.7462366104125976
0.5761442184448242,0.7640424728393554
0.5761442184448242,0.7640424728393554
0.5557325363159179,0.7503456115722656
0.5557325363159179,0.7503456115722656
0.5713857650756836,0.7500440597534179
0.5713857650756836,0.7500440597534179
0.5643974304199219,0.7584508895874024
0.5643974304199219,0.7584508895874024
0.5576408386230468,0.7389375686645507
0.5576408386230468,0.7389375686645507
0.5704141616821289,0.7553237915039063
0.5704141616821289,0.7553237915039063
0.5493438720703124,0.7409471511840821
0.5493438720703124,0.7409471511840821
0.5649021148681640,0.7405202865600585
0.5649021148681640,0.7405202865600585
0.5585861206054688,0.7498626708984375
0.5585861206054688,0.7498626708984375
0.5525888442993164,0.7313507080078124
0.5525888442993164,0.7313507080078124
0.5661294937133788,0.7489608764648438
0.5661294937133788,0.7489608764648438
0.5460897445678711,0.7356903076171875
0.5460897445678711,0.7356903076171875
0.5623666763305664,0.7364673614501953
0.5623666763305664,0.7364673614501953
0.5565347671508789,0.7466732025146484
0.5565347671508789,0.7466732025146484
0.5509746551513671,0.7289514541625977
0.5481708526611327,0.7289514541625977
0.5651424407958984,0.7469924926757813
0.5651424407958984,0.7469924926757813
0.5454837799072265,0.7346809387207031
0.5454837799072265,0.7346809387207031
0.5622087478637695,0.7361320495605469
0.5622087478637695,0.7361320495605469
0.5568054199218749,0.7469398498535156
0.5568054199218749,0.7469398498535156
0.5515113830566406,0.7297845840454101
0.5515113830566406,0.7297845840454101
0.5660076141357422,0.7484024047851562
0.5660076141357422,0.7484024047851562
0.5466579437255860,0.7366298675537110
0.5466579437255860,0.7366298675537110
0.5633886337280273,0.7380781173706055
0.5633886337280273,0.7380781173706055
0.5581266403198242,0.7492601394653320
0.5581266403198242,0.7492601394653320
0.5529418945312500,0.7320430755615234
0.5529418945312500,0.7320430755615234
0.5674272537231445,0.7507530212402344
0.5674272537231445,0.7507530212402344
0.5481290817260742,0.7389530181884766
0.5481290817260742,0.7389530181884766
0.5645347595214844,0.7402513504028320
0.5645347595214844,0.7402513504028320
0.5594724655151367,0.7513532638549805
0.5594724655151367,0.7513532638549805
0.5538768768310547,0.7338500976562500
0.5538768768310547,0.7338500976562500
0.5681699752807617,0.7526361465454101
0.5681699752807617,0.7526361465454101
0.5485536575317382,0.7404436111450196
0.5485536575317382,0.7404436111450196
0.5647813796997070,0.7413700103759765
0.5647813796997070,0.7413700103759765
0.5596595764160156,0.7524879455566406
0.5596595764160156,0.7524879455566406
0.5539318084716797,0.7349767684936523
0.5539318084716797,0.7349767684936523
0.5684846878051758,0.7535236358642577
0.5684846878051758,0.7535236358642577
0.5490663528442382,0.7417957305908203
0.5490663528442382,0.7417957305908203
0.5655744552612304,0.7430316925048828
0.5655744552612304,0.7430316925048828
0.5606283187866211,0.7544208526611328
0.5606283187866211,0.7544208526611328
0.5552827835083007,0.7371025085449219
0.5552827835083007,0.7371025085449219
0.5701669692993164,0.7562633514404297
0.5701669692993164,0.7562633514404297
0.5509683609008789,0.7450321197509765
0.5509683609008789,0.7450321197509765
0.5677419662475586,0.7462966918945312
0.5677419662475586,0.7462966918945312
0.5633188247680664,0.7581825256347656
0.5633188247680664,0.7581825256347656
0.5580482482910156,0.7410982131958007
0.5580482482910156,0.7410982131958007
0.5730005264282226,0.7602304458618164
0.5730005264282226,0.7602304458618164
0.5535072326660156,0.7487274169921875
0.5535072326660156,0.7487274169921875
0.5699655532836914,0.7491422653198242
0.5699655532836914,0.7491422653198242
0.5646623611450196,0.7599437713623046
0.5646623611450196,0.7599437713623046
0.5579870223999023,0.7406793594360351
0.5579870223999023,0.7406793594360351
0.5716604232788086,0.7581132888793946
0.5716604232788086,0.7581132888793946
0.5507955551147461,0.7443214416503906
0.5507955551147461,0.7443214416503906
0.5656694412231446,0.7428617477416992
0.5656694412231446,0.7428617477416992
0.5597946166992187,0.7523025512695313
0.5597946166992187,0.7523025512695313
0.5526563644409179,0.7325265884399413
0.5526563644409179,0.7325265884399413
0.5663955688476562,0.7497940063476562
0.5663955688476562,0.7497940063476562
0.5458454132080078,0.7366962432861328
0.5458454132080078,0.7366962432861328
0.5613138198852539,0.7362562179565429
0.5613138198852539,0.7362562179565429
0.5562097549438476,0.7468860626220702
0.5562097549438476,0.7468860626220702
0.5496116638183594,0.7279506683349609
0.5496116638183594,0.7279506683349609
0.5640014648437500,0.7460271835327148
0.5640014648437500,0.7460271835327148
0.5440607070922852,0.7338752746582031
0.5440607070922852,0.7338752746582031
0.5599376678466796,0.7340658187866210
0.5599376678466796,0.7340658187866210
0.5551013946533203,0.7454017639160156
0.5551013946533203,0.7454017639160156
0.5490016937255859,0.7270540237426758
0.5472518920898437,0.7270540237426758
0.5637565612792969,0.7459373474121094
0.5637565612792969,0.7459373474121094
0.5441894531250000,0.7343393325805664
0.5441894531250000,0.7343393325805664
0.5604228973388672,0.7349475860595703
0.5604228973388672,0.7349475860595703
0.5561754226684570,0.7467533111572265
0.5561754226684570,0.7467533111572265
0.5500614166259765,0.7287506103515625
0.5500614166259765,0.7287506103515625
0.5652082443237304,0.7480648040771484
0.5652082443237304,0.7480648040771484
0.5458465576171875,0.7369617462158203
0.5458465576171875,0.7369617462158203
0.5619695663452148,0.7374126434326171
0.5619695663452148,0.7374126434326171
0.5579950332641601,0.7496166229248047
0.5579950332641601,0.7496166229248047
0.5517202377319336,0.7315658569335938
0.5517202377319336,0.7315658569335938
0.5669254302978516,0.7505853652954101
0.5669254302978516,0.7505853652954101
0.5642091751098632,0.7529314041137695
0.5642091751098632,0.7529314041137695
0.5488861083984374,0.7324813842773438
0.5591909408569335,0.7324813842773438
0.5669242858886718,0.7467378616333008
0.5669242858886718,0.7467378616333008
0.5522935867309570,0.7480281829833985
0.5522935867309570,0.7480281829833985
0.5581541061401367,0.7365262985229492
0.5581541061401367,0.7365262985229492
0.5654720306396485,0.7549507141113281
0.5654720306396485,0.7549507141113281
0.5501855850219727,0.7346357345581055
0.5501855850219727,0.7346357345581055
0.5682415008544922,0.7487142562866210
0.5682415008544922,0.7487142562866210
0.5537132263183594,0.7503170013427735
0.5537132263183594,0.7503170013427735
0.5595359802246094,0.7385181427001953
0.5595359802246094,0.7385181427001953
0.5668241500854492,0.7571439743041992
0.5668241500854492,0.7571439743041992
0.5516080856323242,0.7368713378906250
0.5516080856323242,0.7368713378906250
0.5695690155029297,0.7509218215942383
0.5695690155029297,0.7509218215942383
0.5552066802978516,0.7528987884521484
0.5552066802978516,0.7528987884521484
0.5609693527221680,0.7411954879760742
0.5609693527221680,0.7411954879760742
0.5687513351440430,0.7600822448730469
0.5687513351440430,0.7600822448730469
0.5535272598266602,0.7398553848266601
0.5535272598266602,0.7398553848266601
0.5713010787963867,0.7535413742065430
0.5713010787963867,0.7535413742065430
0.5568746566772461,0.7550067901611328
0.5568746566772461,0.7550067901611328
0.5619958877563477,0.7422323226928711
