REDsignal,IRsignal
0.5832372665405273,0.5335618972778320
0.5895315170288086,0.5539197921752930
0.5895315170288086,0.5539197921752930
0.5765155792236328,0.5384439468383789
0.5765155792236328,0.5384439468383789
0.5971624374389648,0.5533464431762695
0.5971624374389648,0.5533464431762695
0.5799951553344727,0.5546934127807617
0.5799951553344727,0.5546934127807617
0.5917299270629882,0.5482858657836914
0.5917299270629882,0.5482858657836914
0.5975320816040038,0.5695392608642578
0.5975320816040038,0.5695392608642578
0.5842706680297851,0.5530088424682617
0.5842706680297851,0.5530088424682617
0.6061031341552734,0.5695964813232421
0.6061031341552734,0.5695964813232421
0.5880014419555664,0.5704668045043945
0.5880014419555664,0.5704668045043945
0.6006889343261719,0.5643299102783202
0.5853784561157226,0.5643299102783202
0.6052408218383789,0.5838603973388672
0.6052408218383789,0.5838603973388672
0.5891372680664062,0.5605064392089844
0.5891372680664062,0.5605064392089844
0.6064498901367187,0.5665706634521485
0.6064498901367187,0.5665706634521485
0.5780605316162110,0.5489547729492187
0.5780605316162110,0.5489547729492187
0.5803888320922851,0.5212514877319335
0.5803888320922851,0.5212514877319335
0.5736551284790039,0.5230413436889648
0.5736551284790039,0.5230413436889648
0.5497953414916992,0.4870571136474609
0.5497953414916992,0.4870571136474609
0.5651836395263672,0.4918167114257812
0.5651836395263672,0.4918167114257812
0.5387197494506836,0.4811290740966797
0.5387197494506836,0.4811290740966797
0.5488603591918945,0.4677051544189453
0.5488603591918945,0.4677051544189453
0.5508047103881836,0.4855184555053711
0.5508047103881836,0.4855184555053711
0.5343326568603516,0.4620592117309570
0.5343326568603516,0.4620592117309570
0.5569993972778320,0.4788597106933594
0.5569993972778320,0.4788597106933594
0.5344699859619141,0.4755083084106445
0.5344699859619141,0.4755083084106445
0.5489799499511718,0.4674779891967773
0.5489799499511718,0.4674779891967773
0.5530723571777344,0.4901012420654297
0.5530723571777344,0.4901012420654297
0.5381658554077148,0.4694652557373047
0.5381658554077148,0.4694652557373047
0.5632684707641601,0.4900760650634766
0.5632684707641601,0.4900760650634766
0.5419309616088867,0.4897802352905273
0.5419309616088867,0.4897802352905273
0.5586364746093749,0.4847471237182617
0.5586364746093749,0.4847471237182617
0.5638566970825195,0.5099853515625000
0.5638566970825195,0.5099853515625000
0.5503269195556640,0.4914218902587890
0.5503269195556640,0.4914218902587890
0.5757476806640625,0.5122060775756836
0.5757476806640625,0.5122060775756836
0.5544010162353515,0.5115760803222656
0.5544010162353515,0.5115760803222656
0.5697555541992188,0.5054271697998046
0.5697555541992188,0.5054271697998046
0.5746192932128906,0.5283857345581054
0.5746192932128906,0.5283857345581054
0.5602924346923828,0.5095642089843749
0.5602924346923828,0.5095642089843749
0.5835725784301757,0.5270427703857422
0.5835725784301757,0.5270427703857422
0.5641027450561523,0.5271595001220702
0.5641027450561523,0.5271595001220702
0.5770236968994140,0.5214305877685547
0.5770236968994140,0.5214305877685547
0.5836526870727539,0.5433677673339844
0.5836526870727539,0.5433677673339844
0.5707311630249023,0.5280733108520508
0.5707311630249023,0.5280733108520508
0.5915216445922852,0.5431314468383789
0.5915216445922852,0.5431314468383789
0.5745941162109375,0.5443399429321288
0.5745941162109375,0.5443399429321288
0.5858282089233399,0.5383747100830077
0.5858282089233399,0.5383747100830077
0.5919347763061523,0.5594598770141601
0.5919347763061523,0.5594598770141601
0.5793937683105469,0.5442094802856445
0.5793937683105469,0.5442094802856445
0.5995147705078124,0.5583721160888672
0.5995147705078124,0.5583721160888672
0.5825008392333985,0.5587028503417969
0.5995101928710938,0.5587028503417969
0.5923845291137695,0.5505317687988281
0.5923845291137695,0.5505317687988281
0.5971950531005860,0.5681825637817383
0.5971950531005860,0.5681825637817383
0.5828533172607422,0.5499567031860352
0.5828533172607422,0.5499567031860352
0.6013750076293946,0.5612497329711914
0.6013750076293946,0.5612497329711914
0.5832063674926757,0.5591423034667968
0.5832063674926757,0.5591423034667968
0.5913007736206054,0.5477108001708985
0.5913007736206054,0.5477108001708985
0.5924989700317382,0.5578668594360351
0.5924989700317382,0.5578668594360351
0.5714956283569336,0.5253398895263671
0.5685035705566406,0.5253398895263671
0.5798629760742188,0.5177066802978515
0.5798629760742188,0.5177066802978515
0.5511463165283202,0.4975856781005859
0.5511463165283202,0.4975856781005859
0.5517906188964844,0.4744028091430664
0.5517906188964844,0.4744028091430664
0.5500402450561523,0.4824954986572265
0.5500402450561523,0.4824954986572265
0.5326778411865234,0.4593292236328125
0.5326778411865234,0.4593292236328125
0.5490755081176758,0.4673143386840820
0.5490755081176758,0.4673143386840820
0.5296543121337890,0.4634027481079102
0.5296543121337890,0.4634027481079102
0.5377075195312500,0.4523014068603515
0.5377075195312500,0.4523014068603515
0.5410806655883789,0.4680032730102539
0.5410806655883789,0.4680032730102539
0.5263727188110351,0.4489883422851562
0.5263727188110351,0.4489883422851562
0.5448984146118164,0.4601886749267578
0.5448984146118164,0.4601886749267578
0.5273878097534179,0.4589921951293945
0.5273878097534179,0.4589921951293945
0.5366575241088867,0.4506580352783203
0.5366575241088867,0.4506580352783203
0.5419893264770508,0.4689044952392578
0.5419893264770508,0.4689044952392578
0.5286020278930664,0.4520736694335937
0.5286020278930664,0.4520736694335937
0.5478544235229492,0.4649208068847656
0.5478544235229492,0.4649208068847656
0.5312255859375000,0.4657304763793945
0.5312255859375000,0.4657304763793945
0.5416963577270507,0.4590717315673828
0.5416963577270507,0.4590717315673828
0.5480249404907226,0.4800893783569335
0.5480249404907226,0.4800893783569335
0.5365133285522461,0.4663021087646484
0.5365133285522461,0.4663021087646484
0.5580734252929688,0.4831180572509766
0.5580734252929688,0.4831180572509766
0.5433351516723632,0.4873220443725585
0.5433351516723632,0.4873220443725585
0.5562074661254882,0.4836250305175781
0.5562074661254882,0.4836250305175781
0.5633909225463867,0.5078664779663086
0.5633909225463867,0.5078664779663086
0.5515703201293946,0.4937610626220703
0.5515703201293946,0.4937610626220703
0.5759799957275390,0.5143066406250000
0.5759799957275390,0.5143066406250000
0.5587211608886719,0.5173444747924805
0.5587211608886719,0.5173444747924805
0.5729736328125000,0.5119777679443359
0.5729736328125000,0.5119777679443359
0.5776674270629882,0.5334926605224609
0.5776674270629882,0.5334926605224609
0.5626916885375977,0.5126541137695312
0.5626916885375977,0.5126541137695312
0.5851186752319336,0.5291685104370117
0.5851186752319336,0.5291685104370117
0.5628776550292969,0.5254016876220703
0.5628776550292969,0.5254016876220703
0.5762214660644531,0.5162349700927734
0.5762214660644531,0.5162349700927734
0.5792564392089844,0.5373538970947266
0.5792564392089844,0.5373538970947266
0.5639654159545898,0.5157354354858398
0.5639654159545898,0.5157354354858398
0.5880151748657226,0.5342971801757812
0.5880151748657226,0.5342971801757812
0.5650142669677735,0.5316627502441406
0.5650142669677735,0.5316627502441406
0.5805610656738281,0.5237411499023438
0.5805610656738281,0.5237411499023438
0.5843885421752929,0.5479459762573242
0.5843885421752929,0.5479459762573242
0.5688165664672852,0.5256242752075195
0.5688165664672852,0.5256242752075195
0.5945817947387695,0.5463066101074219
0.5945817947387695,0.5463066101074219
0.5706430435180664,0.5437500000000000
0.5973587036132812,0.5437500000000000
0.5878452301025391,0.5370082855224609
0.5878452301025391,0.5370082855224609
0.5917757034301757,0.5617069244384766
0.5917757034301757,0.5617069244384766
0.5761087417602538,0.5383815765380859
0.5761087417602538,0.5383815765380859
0.6011404037475586,0.5580465316772460
0.6011404037475586,0.5580465316772460
0.5775581359863281,0.5548084259033202
0.5775581359863281,0.5548084259033202
0.5925304412841796,0.5458311080932617
0.5925304412841796,0.5458311080932617
0.5947185516357422,0.5643922805786132
0.5947185516357422,0.5643922805786132
0.5755273818969726,0.5350856781005859
0.5755273818969726,0.5350856781005859
0.5931913375854492,0.5424985885620117
0.5931913375854492,0.5424985885620117
0.5824945449829101,0.5281751632690429
0.5824945449829101,0.5281751632690429
0.5640913009643554,0.4975164413452148
0.5640913009643554,0.5081211090087890
0.5630046844482421,0.4871292114257812
0.5630046844482421,0.4871292114257812
0.5465137481689453,0.4866456985473633
0.5465137481689453,0.4866456985473633
0.5391672134399413,0.4608163833618164
0.5391672134399413,0.4608163833618164
0.5513431549072265,0.4762390136718750
0.5513431549072265,0.4762390136718750
0.5297904968261719,0.4614915847778320
0.5297904968261719,0.4614915847778320
0.5462190628051757,0.4619281768798828
0.5462190628051757,0.4619281768798828
0.5375072479248046,0.4703538894653320
0.5375072479248046,0.4703538894653320
0.5333473205566406,0.4518156051635742
0.5333473205566406,0.4518156051635742
0.5475643157958984,0.4702978134155273
0.5452125549316406,0.4702978134155273
0.5288263320922851,0.4592605590820312
0.5288263320922851,0.4592605590820312
0.5470149993896484,0.4629014968872070
0.5470149993896484,0.4629014968872070
0.5394550323486328,0.4745613098144531
0.5394550323486328,0.4745613098144531
0.5378099441528320,0.4594379425048828
0.5378099441528320,0.4594379425048828
0.5540479660034180,0.4821315765380859
0.5540479660034180,0.4821315765380859
0.5374328613281250,0.4749326705932617
0.5374328613281250,0.4749326705932617
0.5579607009887695,0.4826213836669921
0.5579607009887695,0.4826213836669921
0.5524950027465820,0.4980731964111328
0.5524950027465820,0.4980731964111328
0.5527519226074219,0.4865610122680664
0.5527519226074219,0.4865610122680664
0.5707111358642578,0.5115903854370117
0.5707111358642578,0.5115903854370117
0.5546293258666992,0.5052806854248046
0.5546293258666992,0.5052806854248046
0.5749523162841796,0.5127582550048828
0.5749523162841796,0.5127582550048828
0.5686483383178711,0.5263595581054688
0.5686483383178711,0.5263595581054688
0.5674816131591797,0.5126083374023437
0.5674816131591797,0.5126083374023437
0.5842597961425781,0.5359497070312500
0.5842597961425781,0.5359497070312500
0.5672269821166992,0.5283365249633789
0.5672269821166992,0.5283365249633789
0.5870904922485352,0.5350032806396484
0.5870904922485352,0.5350032806396484
0.5804019927978515,0.5481491088867188
0.5804019927978515,0.5481491088867188
0.5790618896484375,0.5332088470458984
0.5790618896484375,0.5332088470458984
0.5950075149536133,0.5558658599853515
0.5950075149536133,0.5558658599853515
0.5774723052978515,0.5470195770263672
0.5774723052978515,0.5470195770263672
0.5968648910522460,0.5522335052490234
0.5968648910522460,0.5522335052490234
0.5887338638305664,0.5642675399780274
0.5887338638305664,0.5642675399780274
0.5868816375732422,0.5471546173095703
0.5868816375732422,0.5471546173095703
0.6028106689453124,0.5693206787109375
0.6028106689453124,0.5693206787109375
0.5828264236450195,0.5575544357299804
0.5828264236450195,0.5575544357299804
0.6033262252807617,0.5629137039184570
0.6033262252807617,0.5629137039184570
0.5933921813964843,0.5740768432617187
0.5933921813964843,0.5740768432617187
0.5915319442749023,0.5554670333862305
0.5915319442749023,0.5554670333862305
0.6077985763549805,0.5786773681640625
0.6077985763549805,0.5786773681640625
0.5861097335815429,0.5642354965209960
0.5861097335815429,0.5642354965209960
0.6079032897949218,0.5696743011474609
0.5870990753173828,0.5696743011474609
0.5956089019775390,0.5796678543090820
0.5956089019775390,0.5796678543090820
0.5934574127197265,0.5577432632446289
0.5934574127197265,0.5577432632446289
0.6073482513427734,0.5758483886718749
0.6073482513427734,0.5758483886718749
0.5775392532348632,0.5449459075927734
0.5775392532348632,0.5449459075927734
0.5881559371948242,0.5273551940917969
0.5881559371948242,0.5273551940917969
0.5616811752319336,0.5134740829467773
0.5616811752319336,0.5134740829467773
0.5486291885375977,0.4736841201782226
0.5486291885375977,0.4736841201782226
0.5565279006958007,0.4842470169067383
0.5565279006958007,0.4842470169067383
0.5285797119140625,0.4610149383544921
0.5285797119140625,0.4610149383544921
0.5482486724853516,0.4620998382568359
0.5482486724853516,0.4620998382568359
0.5341569900512695,0.4693279266357422
0.5341569900512695,0.4693279266357422
0.5311088562011719,0.4470777511596680
0.5311088562011719,0.4470777511596680
0.5464078903198242,0.4684307098388671
0.5464078903198242,0.4684307098388671
0.5240335464477539,0.4529045104980469
0.5240335464477539,0.4529045104980469
0.5454219818115235,0.4579994201660156
0.5454219818115235,0.4579994201660156
0.5352762222290038,0.4687168121337890
0.5352762222290038,0.4687168121337890
0.5331275939941406,0.4509704589843750
0.5331275939941406,0.4509704589843750
0.5488792419433594,0.4726020812988281
0.5488792419433594,0.4726020812988281
0.5304725646972656,0.4622468948364258
0.5304725646972656,0.4622468948364258
0.5506633758544922,0.4686435699462890
0.5506633758544922,0.4686435699462890
0.5432859420776367,0.4817607879638672
0.5432859420776367,0.4817607879638672
0.5427320480346679,0.4680112838745117
0.5427320480346679,0.4680112838745117
0.5598186492919922,0.4920381546020507
0.5598186492919922,0.4920381546020507
0.5435056686401367,0.4853645324707031
0.5435056686401367,0.4853645324707031
0.5637073516845703,0.4927997589111328
0.5637073516845703,0.4927997589111328
0.5577060699462890,0.5066173553466796
0.5577060699462890,0.5066173553466796
0.5564289093017578,0.4920982360839843
0.5564289093017578,0.4920982360839843
0.5721942901611328,0.5135604858398437
0.5721942901611328,0.5135604858398437
0.5543169021606446,0.5041648864746093
0.5543169021606446,0.5041648864746093
0.5729192733764649,0.5089719772338867
0.5729192733764649,0.5089719772338867
0.5654491424560547,0.5202215194702148
0.5654491424560547,0.5202215194702148
0.5633136749267578,0.5043783187866211
0.5633136749267578,0.5043783187866211
0.5783226013183593,0.5249811172485351
0.5783226013183593,0.5249811172485351
0.5601425170898438,0.5143272399902343
0.5601425170898438,0.5143272399902343
0.5779071807861328,0.5174406051635742
0.5779071807861328,0.5174406051635742
0.5694047927856445,0.5271640777587890
0.5694047927856445,0.5271640777587890
0.5663251876831055,0.5093204498291015
0.5663251876831055,0.5093204498291015
0.5805999755859375,0.5284727096557617
0.5805999755859375,0.5284727096557617
0.5617338180541992,0.5176540374755859
0.5617338180541992,0.5176540374755859
0.5799036026000977,0.5212543487548827
0.5799036026000977,0.5212543487548827
0.5718629837036132,0.5320466995239258
0.5718629837036132,0.5320466995239258
0.5696113586425781,0.5161308288574219
0.5696113586425781,0.5161308288574219
0.5849830627441406,0.5374145507812500
0.5849830627441406,0.5374145507812500
0.5673219680786132,0.5286781311035156
0.5673219680786132,0.5286781311035156
0.5863986968994140,0.5345746994018554
0.5863986968994140,0.5345746994018554
0.5798784255981445,0.5471145629882812
0.5798784255981445,0.5471145629882812
0.5782865524291992,0.5325405120849609
0.5782865524291992,0.5325405120849609
0.5940616607666015,0.5546974182128906
0.5940616607666015,0.5546974182128906
0.5767107009887695,0.5456525802612304
0.5767107009887695,0.5456525802612304
0.5949342727661132,0.5489713668823242
0.5949342727661132,0.5489713668823242
0.5850906372070312,0.5551025390625000
0.5850906372070312,0.5551025390625000
0.5769996643066406,0.5268882751464844
0.5769996643066406,0.5268882751464844
0.5829231262207031,0.5294443130493164
0.5829231262207031,0.5294443130493164
0.5536777496337890,0.4999860763549804
0.5536777496337890,0.4999860763549804
0.5623683929443359,0.4874078750610351
0.5623683929443359,0.4874078750610351
0.5462671279907226,0.4857170104980468
0.5462671279907226,0.4857170104980468
0.5385028839111328,0.4594556808471679
0.5385028839111328,0.4594556808471679
0.5509695053100586,0.4761823654174804
0.5509695053100586,0.4761823654174804
0.5283119201660156,0.4596513748168945
0.5283119201660156,0.4596513748168945
0.5476078033447266,0.4621467590332031
0.5476078033447266,0.4621467590332031
0.5354850769042968,0.4701902389526367
0.5354850769042968,0.4701902389526367
0.5326309204101562,0.4490890502929688
0.5326309204101562,0.4490890502929688
0.5482727050781250,0.4713294982910156
0.5482727050781250,0.4713294982910156
0.5256671905517578,0.4557975769042968
0.5256671905517578,0.4557975769042968
0.5486028671264648,0.4619842529296875
0.5486028671264648,0.4619842529296875
0.5362781524658203,0.4733299255371093
0.5362781524658203,0.4733299255371093
0.5358169555664062,0.4538881301879882
0.5358169555664062,0.4538881301879882
0.5535655975341797,0.4806455612182617
0.5535655975341797,0.4806455612182617
0.5308565139770508,0.4659227371215820
0.5308565139770508,0.4659227371215820
0.5566675186157226,0.4754299163818359
0.5566675186157226,0.4754299163818359
0.5441413879394531,0.4891513824462890
0.5441413879394531,0.4891513824462890
0.5450271606445313,0.4706291198730468
0.5450271606445313,0.4706291198730468
0.5650108337402343,0.5007408142089843
0.5650108337402343,0.5007408142089843
0.5423366546630859,0.4872756958007812
0.5423366546630859,0.4872756958007812
0.5702047348022461,0.4994482040405273
0.5702047348022461,0.4994482040405273
0.5581369400024414,0.5144165039062499
0.5581369400024414,0.5144165039062499
0.5595588684082031,0.4964029312133789
0.5595588684082031,0.4964029312133789
0.5790761947631836,0.5255052566528320
0.5790761947631836,0.5255052566528320
0.5551345825195312,0.5093284606933594
0.5551345825195312,0.5093284606933594
0.5808998107910156,0.5177890777587890
0.5808998107910156,0.5177890777587890
0.5673471450805664,0.5300868988037110
0.5673471450805664,0.5300868988037110
0.5678054809570312,0.5109609603881836
0.5578342437744140,0.5109609603881836
0.5861549377441406,0.5386928558349610
0.5861549377441406,0.5386928558349610
0.5641324996948242,0.5253135681152343
0.5641324996948242,0.5253135681152343
0.5891693115234374,0.5347446441650391
0.5891693115234374,0.5347446441650391
0.5781669616699219,0.5481719970703125
0.5781669616699219,0.5481719970703125
0.5780788421630859,0.5303661346435546
0.5780788421630859,0.5303661346435546
0.5950023651123046,0.5547649383544921
0.5950023651123046,0.5547649383544921
0.5735137939453124,0.5410194396972656
0.5735137939453124,0.5410194396972656
0.5946767807006835,0.5460468292236328
0.5946767807006835,0.5460468292236328
0.5839599609375000,0.5554939270019531
0.5839599609375000,0.5554939270019531
0.5807653427124023,0.5358833312988281
0.5807653427124023,0.5358833312988281
0.5948947906494141,0.5541097640991210
0.5948947906494141,0.5541097640991210
0.5733295440673828,0.5387706756591797
0.5733295440673828,0.5387706756591797
0.5895223617553711,0.5383146286010742
0.5895223617553711,0.5383146286010742
0.5789428710937500,0.5450357437133789
0.5789428710937500,0.5450357437133789
0.5741912841796875,0.5244380950927734
0.5741912841796875,0.5244380950927734
0.5877302169799804,0.5416133880615234
0.5877302169799804,0.5416133880615234
0.5667314529418945,0.5264219284057617
0.5667314529418945,0.5264219284057617
0.5811733245849610,0.5220685958862304
0.5811733245849610,0.5220685958862304
0.5665151596069335,0.5205785751342773
0.5665151596069335,0.5205785751342773
0.5561805725097656,0.4893344879150390
0.5561805725097656,0.4893344879150390
0.5632558822631836,0.4960081100463867
0.5576454162597656,0.4960081100463867
0.5376274108886718,0.4736675262451172
0.5376274108886718,0.4736675262451172
0.5505329132080078,0.4687305450439453
0.5505329132080078,0.4687305450439453
0.5386774063110351,0.4731685638427734
0.5386774063110351,0.4731685638427734
0.5335424423217773,0.4521554946899414
0.5335424423217773,0.4521554946899414
0.5467185974121094,0.4693948745727539
0.5440532684326171,0.4693948745727539
0.5268190383911132,0.4562330245971680
0.5379495620727539,0.4562330245971680
0.5442134857177734,0.4584405899047851
0.5442134857177734,0.4584405899047851
0.5355148315429688,0.4677217483520508
0.5355148315429688,0.4677217483520508
0.5325021743774414,0.4500864028930664
0.5325021743774414,0.4500864028930664
0.5474756240844726,0.4703647613525390
0.5474756240844726,0.4703647613525390
0.5285551071166992,0.4593400955200195
0.5285551071166992,0.4593400955200195
0.5483379364013672,0.4641609191894531
0.5483379364013672,0.4641609191894531
0.5396192550659179,0.4760341644287109
0.5396192550659179,0.4760341644287109
0.5382471084594727,0.4598241806030273
0.5382471084594727,0.4598241806030273
0.5553039550781250,0.4836038589477539
0.5553039550781250,0.4836038589477539
0.5364509582519531,0.4742568969726562
0.5364509582519531,0.4742568969726562
0.5592247009277344,0.4831501007080078
0.5592247009277344,0.4831501007080078
0.5510696411132813,0.4978466033935547
0.5510696411132813,0.4978466033935547
0.5515405654907226,0.4828622817993164
0.5515405654907226,0.4828622817993164
0.5697103500366211,0.5092941284179687
0.5697103500366211,0.5092941284179687
0.5498050689697266,0.4985435485839844
0.5498050689697266,0.4985435485839844
0.5739606857299805,0.5081777572631836
0.5739606857299805,0.5081777572631836
0.5638681411743164,0.5217487335205078
0.5638681411743164,0.5217487335205078
0.5640232086181640,0.5043640136718750
0.5640232086181640,0.5043640136718750
0.5814897537231445,0.5303037643432617
0.5814897537231445,0.5303037643432617
0.5591583251953125,0.5154384613037110
0.5591583251953125,0.5154384613037110
0.5829254150390625,0.5224771499633789
0.5829254150390625,0.5224771499633789
0.5696914672851562,0.5331270217895507
0.5696914672851562,0.5331270217895507
0.5688709259033203,0.5126987457275390
0.5581174850463867,0.5126987457275390
0.5854906082153321,0.5370409011840820
0.5854906082153321,0.5370409011840820
0.5618831634521484,0.5204721450805664
0.5618831634521484,0.5204721450805664
0.5852188110351563,0.5267143249511719
0.5852188110351563,0.5267143249511719
0.5717880249023437,0.5367444992065430
0.5717880249023437,0.5367444992065430
0.5707889556884765,0.5165531158447265
0.5707889556884765,0.5165531158447265
0.5870893478393554,0.5407133102416992
0.5870893478393554,0.5407133102416992
0.5647830963134766,0.5256214141845703
0.5647830963134766,0.5256214141845703
0.5871614456176758,0.5322052001953125
0.5871614456176758,0.5322052001953125
0.5757150650024414,0.5422765731811523
0.5757150650024414,0.5422765731811523
0.5737049102783203,0.5225898742675781
0.5737049102783203,0.5225898742675781
0.5890399932861328,0.5443027496337890
0.5890399932861328,0.5443027496337890
0.5682844161987305,0.5317337036132812
0.5682844161987305,0.5317337036132812
0.5885519027709961,0.5369728088378906
0.5885519027709961,0.5369728088378906
0.5799041748046875,0.5474418640136719
0.5799041748046875,0.5474418640136719
0.5759811401367188,0.5262742996215820
0.5759811401367188,0.5262742996215820
0.5861463546752930,0.5370901107788085
0.5861463546752930,0.5370901107788085
0.5590221405029296,0.5101867675781250
0.5590221405029296,0.5101867675781250
0.5684148788452148,0.4969940185546875
0.5684148788452148,0.4969940185546875
0.5502565383911132,0.4917806625366211
0.5502565383911132,0.4917806625366211
0.5409616470336914,0.4631715774536133
0.5409616470336914,0.4631715774536133
0.5507858276367187,0.4760782241821289
0.5471443176269531,0.4760782241821289
0.5287822723388672,0.4594150543212890
0.5287822723388672,0.4594150543212890
0.5453996658325195,0.4603775024414062
0.5453996658325195,0.4603775024414062
0.5350610733032226,0.4675123214721679
0.5350610733032226,0.4675123214721679
0.5316335678100585,0.4483182907104492
0.5316335678100585,0.4483182907104492
0.5454854965209961,0.4672622680664062
0.5454854965209961,0.4672622680664062
0.5258537292480469,0.4544036865234375
0.5258537292480469,0.4544036865234375
0.5445756912231445,0.4582689285278320
0.5445756912231445,0.4582689285278320
0.5351943969726562,0.4679689407348633
0.5351943969726562,0.4679689407348633
0.5334388732910156,0.4507724761962890
0.5334388732910156,0.4507724761962890
0.5482990264892578,0.4718055725097656
0.5482990264892578,0.4718055725097656
0.5297979354858399,0.4613960266113281
0.5297979354858399,0.4613960266113281
0.5496271133422851,0.4673303604125976
0.5496271133422851,0.4673303604125976
0.5421586990356445,0.4797082901000976
0.5421586990356445,0.4797082901000976
0.5415361404418945,0.4660348892211914
0.5415361404418945,0.4660348892211914
0.5584447860717773,0.4900531768798828
0.5584447860717773,0.4900531768798828
0.5421649932861328,0.4837469100952148
0.5421649932861328,0.4837469100952148
0.5632192611694335,0.4923488616943359
0.5632192611694335,0.4923488616943359
0.5576488494873046,0.5070264816284179
0.5576488494873046,0.5070264816284179
0.5571973800659179,0.4941553115844726
0.5571973800659179,0.4941553115844726
0.5737833023071289,0.5175161361694336
0.5737833023071289,0.5175161361694336
0.5570817947387695,0.5101095199584961
0.5570817947387695,0.5101095199584961
0.5771615982055663,0.5172866821289063
0.5771615982055663,0.5172866821289063
0.5709537506103516,0.5313903808593750
0.5709537506103516,0.5313903808593750
0.5704301834106446,0.5181678771972656
0.5704301834106446,0.5181678771972656
0.5869537353515625,0.5412506103515625
0.5869537353515625,0.5412506103515625
0.5696044921875000,0.5331052780151367
0.5696044921875000,0.5331052780151367
0.5892894744873046,0.5390304565429688
0.5892894744873046,0.5390304565429688
0.5820104598999023,0.5511835098266601
0.5820104598999023,0.5511835098266601
0.5800163269042968,0.5354358673095703
0.5800163269042968,0.5354358673095703
0.5953577041625976,0.5564517974853516
0.5953577041625976,0.5564517974853516
0.5769298553466796,0.5460496902465820
0.5769298553466796,0.5460496902465820
0.5958292007446289,0.5508007049560547
0.5958292007446289,0.5508007049560547
0.5873966217041016,0.5611959457397461
0.5873966217041016,0.5611959457397461
0.5850231170654296,0.5440074920654296
0.5850231170654296,0.5440074920654296
0.5995960235595703,0.5642154693603515
0.5995960235595703,0.5642154693603515
0.5803333282470703,0.5522603988647461
0.5803333282470703,0.5522603988647461
0.5989746093750000,0.5559431076049804
0.5989746093750000,0.5559431076049804
0.5897306442260742,0.5655652999877929
0.5897306442260742,0.5655652999877929
0.5870910644531250,0.5476850509643555
0.5870910644531250,0.5476850509643555
0.6020118713378906,0.5685361862182617
0.6020118713378906,0.5685361862182617
0.5814605712890625,0.5553045272827148
0.5814605712890625,0.5553045272827148
0.6020942687988281,0.5602163314819336
0.6020942687988281,0.5602163314819336
0.5900762557983398,0.5677728652954102
0.5900762557983398,0.5677728652954102
0.5843404769897461,0.5395454406738281
0.5843404769897461,0.5395454406738281
0.5912378311157226,0.5442941665649413
0.5912378311157226,0.5442941665649413
0.5569101333618164,0.5062751770019531
0.5569101333618164,0.5062751770019531
0.5658679962158203,0.4902299880981445
0.5658679962158203,0.4902299880981445
0.5442901611328125,0.4844255447387695
0.5442901611328125,0.4844255447387695
0.5365465164184570,0.4557867050170898
0.5365465164184570,0.4557867050170898
0.5489410400390625,0.4734163284301758
0.5489410400390625,0.4734163284301758
0.5250314712524414,0.4553306579589844
0.5250314712524414,0.4553306579589844
0.5457201004028320,0.4591558456420898
0.5480312347412110,0.4700265884399414
0.5313880920410156,0.4473587036132812
0.5313880920410156,0.4473587036132812
0.5467861175537109,0.4696380615234375
0.5467861175537109,0.4696380615234375
0.5252002716064453,0.4551641464233398
0.5252002716064453,0.4551641464233398
0.5470607757568359,0.4611860275268554
0.5470607757568359,0.4611860275268554
0.5366746902465820,0.4724607467651367
0.5366746902465820,0.4724607467651367
0.5359731674194336,0.4559761047363281
0.5359731674194336,0.4559761047363281
0.5519302368164062,0.4787778854370117
0.5519302368164062,0.4787778854370117
0.5337398529052734,0.4690132141113281
0.5337398529052734,0.4690132141113281
0.5553131103515625,0.4777290344238281
0.5553131103515625,0.4777290344238281
0.5484872817993164,0.4926006317138671
0.5484872817993164,0.4926006317138671
0.5498336791992188,0.4812664031982422
0.5498336791992188,0.4812664031982422
0.5678277969360351,0.5078842163085937
0.5678277969360351,0.5078842163085937
0.5521802902221680,0.5021535873413085
0.5521802902221680,0.5021535873413085
0.5741054534912109,0.5125162124633789
0.5741054534912109,0.5125162124633789
0.5682535171508789,0.5276733398437500
0.5682535171508789,0.5276733398437500
0.5683868408203124,0.5142477035522460
0.5683868408203124,0.5142477035522460
0.5839828491210938,0.5358180999755859
0.5839828491210938,0.5358180999755859
0.5654245376586914,0.5247482299804688
0.5654245376586914,0.5247482299804688
0.5833242416381835,0.5275154113769531
0.5833242416381835,0.5275154113769531
0.5734291076660156,0.5357465744018555
0.5734291076660156,0.5357465744018555
0.5705818176269531,0.5168821334838867
0.5705818176269531,0.5168821334838867
0.5843055725097656,0.5363502502441406
0.5843055725097656,0.5363502502441406
0.5647350311279297,0.5240478515625000
0.5647350311279297,0.5240478515625000
0.5842351913452148,0.5294277191162109
0.5842351913452148,0.5294277191162109
0.5756052017211913,0.5410463333129882
0.5756052017211913,0.5410463333129882
0.5751909255981446,0.5268505096435546
0.5751909255981446,0.5268505096435546
0.5914569854736328,0.5507532119750976
0.5914569854736328,0.5507532119750976
0.5743183135986328,0.5423097610473633
0.5743183135986328,0.5423097610473633
0.5951711654663085,0.5504310607910156
0.5951711654663085,0.5504310607910156
0.5872999191284179,0.5633319854736328
0.5872999191284179,0.5633319854736328
0.5872100830078125,0.5487298965454102
0.5872100830078125,0.5487298965454102
0.6028587341308593,0.5720277786254883
0.6028587341308593,0.5720277786254883
0.5847988128662109,0.5619461059570312
0.5847988128662109,0.5619461059570312
0.6051429748535156,0.5689962387084960
0.6051429748535156,0.5689962387084960
0.5967739105224609,0.5807647705078125
0.5967739105224609,0.5807647705078125
0.5958257675170898,0.5650051116943359
0.5958257675170898,0.5650051116943359
0.6104581832885742,0.5851942062377929
0.6029262542724609,0.5851942062377929
0.5895086288452148,0.5684045791625977
0.5986112594604492,0.5684045791625977
0.6012245178222656,0.5570417404174804
0.5784255981445312,0.5570417404174804
0.5781223297119140,0.5390848159790039
0.5781223297119140,0.5390848159790039
0.5599250793457031,0.4939550399780273
0.5599250793457031,0.4939550399780273
0.5615261077880859,0.4935178756713867
0.5615261077880859,0.4935178756713867
0.5334068298339844,0.4679924011230469
0.5334068298339844,0.4679924011230469
0.5475940704345703,0.4650712966918945
0.5475940704345703,0.4650712966918945
0.5354095458984375,0.4704975128173828
0.5354095458984375,0.4704975128173828
0.5319671630859375,0.4498203277587891
0.5319671630859375,0.4498203277587891
0.5459890365600586,0.4696237564086914
0.5459890365600586,0.4696237564086914
0.5242595672607422,0.4544906616210938
0.5242595672607422,0.4544906616210938
0.5448102951049805,0.4584623336791992
0.5448102951049805,0.4584623336791992
0.5334783554077148,0.4686195373535156
0.5334783554077148,0.4686195373535156
0.5320941925048828,0.4495811462402344
0.5320941925048828,0.4495811462402344
0.5414857864379883,0.4564126968383789
0.5414857864379883,0.4564126968383789
0.5414857864379883,0.4567777633666992
0.5451135635375977,0.4786594390869141
0.5546424865722656,0.4786594390869141
0.5312290191650391,0.4592433929443359
0.5312290191650391,0.4592433929443359
0.5555093765258788,0.4792076110839844
0.5555093765258788,0.4792076110839844
0.5349489212036133,0.4788511276245117
0.5349489212036133,0.4788511276245117
0.5514684677124023,0.4745195388793945
0.5514684677124023,0.4745195388793945
0.5567001342773438,0.4993423461914062
0.5567001342773438,0.4993423461914062
0.5440046310424804,0.4817825317382812
0.5440046310424804,0.4817825317382812
0.5689298629760742,0.5027618408203125
0.5689298629760742,0.5027618408203125
0.5489679336547851,0.5029724121093749
0.5489679336547851,0.5029724121093749
0.5643562316894531,0.4976274490356445
0.5643562316894531,0.4976274490356445
0.5686809539794921,0.5198129653930664
0.5686809539794921,0.5198129653930664
0.5549423217773437,0.5005199432373046
0.5549423217773437,0.5005199432373046
0.5766185760498047,0.5161256790161133
0.5766185760498047,0.5161256790161133
0.5562675476074218,0.5139867782592773
0.5562675476074218,0.5139867782592773
0.5683731079101563,0.5057441711425781
0.5683731079101563,0.5057441711425781
0.5724380493164062,0.5250017166137695
0.5724380493164062,0.5250017166137695
0.5589328765869140,0.5075832366943359
0.5589328765869140,0.5075832366943359
0.5798217773437500,0.5230361938476562
0.5798217773437500,0.5230361938476562
0.5618785858154297,0.5230625152587890
0.5618785858154297,0.5230625152587890
0.5745700836181641,0.5179824829101562
0.5745700836181641,0.5179824829101562
0.5795619964599609,0.5392290115356445
0.5795619964599609,0.5392290115356445
0.5676624298095703,0.5232730865478515
0.5676624298095703,0.5232730865478515
0.5889827728271484,0.5402498245239258
0.5889827728271484,0.5402498245239258
0.5711357116699218,0.5401765823364257
0.5711357116699218,0.5401765823364257
0.5836635589599609,0.5344167709350586
0.5836635589599609,0.5344167709350586
0.5877822875976563,0.5546424865722656
0.5877822875976563,0.5546424865722656
0.5755514144897461,0.5379158020019531
0.5755514144897461,0.5379158020019531
0.5962097167968750,0.5535284042358398
0.5962097167968750,0.5535284042358398
0.5776679992675781,0.5524200439453125
0.5776679992675781,0.5524200439453125
0.5895772933959961,0.5451936721801758
0.5895772933959961,0.5451936721801758
0.5928188323974609,0.5634155273437500
0.5928188323974609,0.5634155273437500
0.5794527053833007,0.5447473526000977
0.5794527053833007,0.5447473526000977
0.5978467941284179,0.5551082611083984
0.5978467941284179,0.5551082611083984
0.5745557785034180,0.5430324554443359
0.5745557785034180,0.5430324554443359
0.5763210296630860,0.5172517776489257
0.5763210296630860,0.5172517776489257
0.5681499481201172,0.5143054962158203
0.5681499481201172,0.5143054962158203
0.5436933517456054,0.4776432037353515
0.5436933517456054,0.4776432037353515
0.5549251556396484,0.4785404205322266
0.5549251556396484,0.4785404205322266
0.5306053161621094,0.4682458877563476
0.5306053161621094,0.4682458877563476
0.5390321731567382,0.4560356140136719
0.5390321731567382,0.4560356140136719
0.5404987335205078,0.4712356567382812
0.5404987335205078,0.4712356567382812
0.5260871887207031,0.4510242462158203
0.5260871887207031,0.4510242462158203
0.5447828292846679,0.4631755828857422
0.5447828292846679,0.4631755828857422
0.5260311126708984,0.4609697341918945
0.5260311126708984,0.4609697341918945
0.5366580963134765,0.4523059844970703
0.5366580963134765,0.4523059844970703
0.5403820037841797,0.4701839447021484
0.5403820037841797,0.4701839447021484
0.5269443511962890,0.4521715164184570
0.5269443511962890,0.4521715164184570
0.5467803955078124,0.4662042617797851
0.5467803955078124,0.4662042617797851
0.5283645629882813,0.4647188186645508
0.5283645629882813,0.4647188186645508
0.5404197692871093,0.4583198547363281
0.5258674621582031,0.4583198547363281
0.5447982788085938,0.4781553268432617
0.5447982788085938,0.4781553268432617
0.5325450897216797,0.4621404647827148
0.5325450897216797,0.4621404647827148
0.5536886215209961,0.4782915115356445
0.5536886215209961,0.4782915115356445
0.5372703552246093,0.4800458908081054
0.5372703552246093,0.4800458908081054
0.5501054763793946,0.4758253097534180
0.5501054763793946,0.4758253097534180
0.5563241958618164,0.4983455657958984
0.5563241958618164,0.4983455657958984
0.5456462860107422,0.4850212097167969
0.5456462860107422,0.4850212097167969
0.5679067611694336,0.5032327651977538
0.5679067611694336,0.5032327651977538
0.5518306732177735,0.5057556152343750
0.5518306732177735,0.5057556152343750
0.5646131515502929,0.5002447128295898
0.5646131515502929,0.5002447128295898
0.5691146850585938,0.5206220626831054
0.5691146850585938,0.5206220626831054
0.5557485580444336,0.5018360137939453
0.5557485580444336,0.5018360137939453
0.5769487380981445,0.5171522140502930
0.5769487380981445,0.5171522140502930
0.5563533782958984,0.5144725799560547
0.5563533782958984,0.5144725799560547
0.5690980911254883,0.5061349868774414
0.5690980911254883,0.5061349868774414
0.5720111846923828,0.5258651733398437
0.5720111846923828,0.5258651733398437
0.5572792053222656,0.5044086456298827
0.5572792053222656,0.5044086456298827
0.5789560317993164,0.5204257965087891
0.5789560317993164,0.5204257965087891
0.5565587997436523,0.5159849166870117
0.5565587997436523,0.5159849166870117
0.5702985763549805,0.5076799392700195
0.5702985763549805,0.5076799392700195
0.5731452941894531,0.5284235000610351
0.5731452941894531,0.5284235000610351
0.5588762283325195,0.5077817916870117
0.5588762283325195,0.5077817916870117
0.5815578460693359,0.5255905151367187
0.5815578460693359,0.5255905151367187
0.5598392486572266,0.5227649688720702
0.5598392486572266,0.5227649688720702
0.5742244720458984,0.5148599624633788
0.5742244720458984,0.5148599624633788
0.5764560699462891,0.5342920303344726
0.5764560699462891,0.5342920303344726
0.5609218597412109,0.5108448028564453
0.5609218597412109,0.5108448028564453
0.5810628890991211,0.5234579086303711
0.5810628890991211,0.5234579086303711
0.5571756362915039,0.5159179687500000
0.5571756362915039,0.5159179687500000
0.5671600341796875,0.5026914596557617
0.5671600341796875,0.5026914596557617
0.5677236557006836,0.5168992996215820
0.5677236557006836,0.5168992996215820
0.5506679534912109,0.4925960540771484
0.5506679534912109,0.4925960540771484
0.5680927276611328,0.5017679214477538
0.5680927276611328,0.5017679214477538
0.5462362289428710,0.4943790435791016
0.5462362289428710,0.4943790435791016
0.5528789520263672,0.4791492462158203
0.5528789520263672,0.4791492462158203
0.5522294998168945,0.4896583557128906
0.5522294998168945,0.4896583557128906
0.5343452453613281,0.4643754959106445
0.5343452453613281,0.4643754959106445
0.5499309539794922,0.4719726562500000
0.5499309539794922,0.4719726562500000
0.5289682388305664,0.4660446166992187
0.5289682388305664,0.4660446166992187
0.5375135421752929,0.4545833587646484
0.5375135421752929,0.4545833587646484
0.5393600463867188,0.4696008682250976
0.5393600463867188,0.4696008682250976
0.5247734069824218,0.4495096206665039
0.5247734069824218,0.4495096206665039
0.5431148529052734,0.4614526748657226
0.5431148529052734,0.4614526748657226
0.5244701385498046,0.4588657379150390
0.5244701385498046,0.4588657379150390
0.5349277496337891,0.4502843856811523
0.5349277496337891,0.4502843856811523
0.5386728286743164,0.4680376052856445
0.5386728286743164,0.4680376052856445
0.5254617691040039,0.4504909515380859
0.5254617691040039,0.4504909515380859
0.5454076766967774,0.4651170730590820
0.5454076766967774,0.4651170730590820
0.5281780242919921,0.4650152206420898
0.5281780242919921,0.4650152206420898
0.5404409408569336,0.4596284866333007
0.5404409408569336,0.4596284866333007
0.5455450057983399,0.4806375503540039
0.5455450057983399,0.4806375503540039
0.5346570968627929,0.4664875030517578
0.5346570968627929,0.4664875030517578
0.5569072723388672,0.4852048873901367
0.5569072723388672,0.4852048873901367
0.5417581558227539,0.4893487930297851
0.5417581558227539,0.4893487930297851
0.5566217422485351,0.4876230239868164
0.5566217422485351,0.4876230239868164
0.5633869171142578,0.5118684768676758
0.5633869171142578,0.5118684768676758
0.5535638809204101,0.4995368957519531
0.5535638809204101,0.4995368957519531
0.5759840011596680,0.5182497024536132
0.5759840011596680,0.5182497024536132
0.5597311019897461,0.5201534271240235
0.5597311019897461,0.5201534271240235
0.5724489212036132,0.5144697189331054
0.5724489212036132,0.5144697189331054
0.5763330459594727,0.5336345672607422
0.5763330459594727,0.5336345672607422
0.5630750656127930,0.5154928207397461
0.5630750656127930,0.5154928207397461
0.5829294204711913,0.5298162460327148
0.5829294204711913,0.5298162460327148
0.5639282226562500,0.5273632049560547
0.5639282226562500,0.5273632049560547
0.5755754470825195,0.5198942184448242
0.5755754470825195,0.5198942184448242
0.5787660598754882,0.5379678726196289
0.5787660598754882,0.5379678726196289
0.5650777816772461,0.5190593719482421
0.5650777816772461,0.5190593719482421
0.5846368789672851,0.5328363418579102
0.5846368789672851,0.5328363418579102
0.5649204254150391,0.5298694610595703
0.5649204254150391,0.5298694610595703
0.5771707534790039,0.5213424682617187
0.5771707534790039,0.5213424682617187
0.5796134948730468,0.5401227951049804
0.5796134948730468,0.5401227951049804
0.5651258468627930,0.5191909790039062
0.5651258468627930,0.5191909790039062
0.5863042831420898,0.5350032806396484
0.5863042831420898,0.5350032806396484
0.5648855209350586,0.5314630508422852
0.5648855209350586,0.5314630508422852
0.5786046981811523,0.5235431671142577
0.5786046981811523,0.5235431671142577
0.5810817718505860,0.5436264038085937
0.5810817718505860,0.5436264038085937
0.5665769577026367,0.5223552703857421
0.5665769577026367,0.5223552703857421
0.5888460159301757,0.5397268295288086
0.5888460159301757,0.5397268295288086
0.5664567947387695,0.5346382141113281
0.5664567947387695,0.5346382141113281
0.5780828475952148,0.5204755783081054
0.5780828475952148,0.5204755783081054
0.5736391067504882,0.5274936676025390
0.5736391067504882,0.5274936676025390
0.5494348526000976,0.4884355545043945
0.5469635009765624,0.4884355545043945
0.5613716125488281,0.4889877319335937
0.5613716125488281,0.4889877319335937
0.5314653396606445,0.4729225158691406
0.5314653396606445,0.4729225158691406
0.5402898788452148,0.4573099136352539
0.5402898788452148,0.4573099136352539
0.5396232604980469,0.4721300125122070
0.5396232604980469,0.4721300125122070
0.5234807968139649,0.4485769271850586
0.5234807968139649,0.4485769271850586
0.5428710937500000,0.4611110687255859
0.5428710937500000,0.4611110687255859
0.5218763351440430,0.4566656112670898
0.5218763351440430,0.4566656112670898
0.5330451965332031,0.4472173690795898
0.5330451965332031,0.4472173690795898
0.5354032516479492,0.4643085479736328
0.5354032516479492,0.4643085479736328
0.5219095230102538,0.4449268341064453
0.5219095230102538,0.4449268341064453
0.5416814804077148,0.4594980239868164
0.5416814804077148,0.4594980239868164
0.5230110168457031,0.4573293685913086
0.5230110168457031,0.4573293685913086
0.5354009628295898,0.4506523132324218
0.5354009628295898,0.4506523132324218
0.5388696670532226,0.4699848175048828
0.5388696670532226,0.4699848175048828
0.5266559600830077,0.4528856277465820
0.5266559600830077,0.4528856277465820
0.5474887847900390,0.4694515228271484
0.5474887847900390,0.4694515228271484
0.5304050445556641,0.4701324462890625
0.5304050445556641,0.4701324462890625
0.5326206207275390,0.4699790954589844
0.5326206207275390,0.4699790954589844
0.5532983779907227,0.4780403137207031
0.5532983779907227,0.4780403137207031
0.5458940505981446,0.4914276123046875
0.5458940505981446,0.4914276123046875
0.5465669631958008,0.4774978637695312
0.5380577087402344,0.4774978637695312
0.5621892929077148,0.5006092071533202
0.5621892929077148,0.5006092071533202
0.5447628021240234,0.4906219482421875
0.5447628021240234,0.4906219482421875
0.5649330139160156,0.4978666305541992
0.5649330139160156,0.4978666305541992
0.5565902709960937,0.5096586227416992
0.5565902709960937,0.5096586227416992
0.5564495086669922,0.4950119018554687
0.5564495086669922,0.4950119018554687
0.5721130371093750,0.5180934906005860
0.5721130371093750,0.5180934906005860
0.5545274734497070,0.5080924987792969
0.5545274734497070,0.5080924987792969
0.5745597839355469,0.5153337478637695
0.5745597839355469,0.5153337478637695
0.5662719726562500,0.5272773742675781
0.5662719726562500,0.5272773742675781
0.5662118911743164,0.5118713378906250
0.5662118911743164,0.5118713378906250
0.5809381484985351,0.5339109420776367
0.5809381484985351,0.5339109420776367
0.5622407913208007,0.5217761993408203
0.5622407913208007,0.5217761993408203
0.5813220977783203,0.5262170791625976
0.5813220977783203,0.5262170791625976
0.5712501525878906,0.5355216979980468
0.5712501525878906,0.5355216979980468
0.5695146560668946,0.5181667327880859
0.5695146560668946,0.5181667327880859
0.5834392547607422,0.5380039215087891
0.5834392547607422,0.5380039215087891
0.5647527694702148,0.5262308120727539
0.5647527694702148,0.5262308120727539
0.5677637100219727,0.5305480957031250
0.5670936584472656,0.5305480957031250
0.5743618011474609,0.5407991409301758
0.5743618011474609,0.5407991409301758
0.5725313186645508,0.5242458343505859
0.5725313186645508,0.5242458343505859
0.5870092391967773,0.5448337554931640
0.5870092391967773,0.5448337554931640
0.5684646606445313,0.5330360412597656
0.5798732757568359,0.5330360412597656
0.5873571395874023,0.5385223388671875
0.5873571395874023,0.5385223388671875
0.5786899566650391,0.5495704650878906
0.5786899566650391,0.5495704650878906
0.5775856018066406,0.5327310562133789
0.5775856018066406,0.5327310562133789
0.5903177261352539,0.5496522903442382
0.5903177261352539,0.5496522903442382
0.5669380187988281,0.5275268554687500
0.5669380187988281,0.5275268554687500
0.5764360427856445,0.5146545410156250
0.5764360427856445,0.5146545410156250
0.5562412261962890,0.5055192947387696
0.5562412261962890,0.5055192947387696
0.5446329116821289,0.4721328735351562
0.5446329116821289,0.4721328735351562
0.5511285781860351,0.4804189682006836
0.5511285781860351,0.4804189682006836
0.5274141311645507,0.4609491348266601
0.5274141311645507,0.4609491348266601
0.5436864852905273,0.4611442565917969
0.5436864852905273,0.4611442565917969
0.5314704895019531,0.4678911209106445
0.5314704895019531,0.4678911209106445
0.5290460586547852,0.4473340988159180
0.5290460586547852,0.4473340988159180
0.5434038162231445,0.4681617736816406
0.5434038162231445,0.4681617736816406
0.5224044799804687,0.4530452728271484
0.5224044799804687,0.4530452728271484
0.5429626464843750,0.4581104278564453
0.5429626464843750,0.4581104278564453
0.5309577941894531,0.4673789978027343
0.5309577941894531,0.4673789978027343
0.5300348281860351,0.4477684020996094
0.5300348281860351,0.4477684020996094
0.5453453063964844,0.4709793090820312
0.5453453063964844,0.4709793090820312
0.5238922119140624,0.4557621002197265
0.5238922119140624,0.4557621002197265
0.5466121673583985,0.4631961822509765
0.5466121673583985,0.4631961822509765
0.5343160629272461,0.4742568969726562
0.5343160629272461,0.4742568969726562
0.5349855422973633,0.4562393188476562
0.5349855422973633,0.4562393188476562
0.5519176483154297,0.4824188232421875
0.5519176483154297,0.4824188232421875
0.5307363510131836,0.4687116622924805
0.5307363510131836,0.4687116622924805
0.5556678771972656,0.4791446685791015
0.5556678771972656,0.4791446685791015
0.5446037292480469,0.4931905746459961
0.5446037292480469,0.4931905746459961
0.5470767974853515,0.4777622222900391
0.5371759414672851,0.4777622222900391
0.5651573181152344,0.5059919357299805
0.5651573181152344,0.5059919357299805
0.5447565078735351,0.4928375244140625
0.5447565078735351,0.4928375244140625
0.5693613052368164,0.5031549453735351
0.5693613052368164,0.5031549453735351
0.5585111618041992,0.5157451629638672
0.5585111618041992,0.5157451629638672
0.5590393066406250,0.4988027572631836
0.5590393066406250,0.4988027572631836
0.5752704620361327,0.5232536315917968
0.5752704620361327,0.5232536315917968
0.5557914733886719,0.5111063003540038
0.5557914733886719,0.5111063003540038
0.5771930694580077,0.5187080383300781
0.5771930694580077,0.5187080383300781
0.5683811187744140,0.5314928054809570
0.5683811187744140,0.5314928054809570
0.5685728073120117,0.5165645599365234
0.5685728073120117,0.5165645599365234
0.5838386535644531,0.5395437240600586
0.5838386535644531,0.5395437240600586
0.5657169342041015,0.5283645629882813
0.5657169342041015,0.5283645629882813
0.5858528137207031,0.5351589202880859
0.5858528137207031,0.5351589202880859
0.5767358779907227,0.5462471008300781
0.5767358779907227,0.5462471008300781
0.5760343551635742,0.5298980712890625
0.5760343551635742,0.5298980712890625
0.5903160095214843,0.5511125564575196
0.5903160095214843,0.5511125564575196
0.5712982177734375,0.5380920410156250
0.5712982177734375,0.5380920410156250
0.5903789520263671,0.5433465957641601
0.5903789520263671,0.5433465957641601
0.5802309036254882,0.5525402069091797
0.5802309036254882,0.5525402069091797
0.5790367126464844,0.5352733612060546
0.5790367126464844,0.5352733612060546
0.5930465698242188,0.5565107345581054
0.5930465698242188,0.5565107345581054
0.5743303298950195,0.5439943313598633
0.5743303298950195,0.5439943313598633
0.5938173294067383,0.5499103546142577
0.5938173294067383,0.5499103546142577
0.5836669921875000,0.5585271835327148
0.5836669921875000,0.5585271835327148
0.5801834106445313,0.5354043960571289
0.5801834106445313,0.5354043960571289
0.5868284225463867,0.5413278579711914
0.5868284225463867,0.5413278579711914
0.5562829971313477,0.5070859909057617
0.5562829971313477,0.5070859909057617
0.5633085250854492,0.4912971496582031
0.5633085250854492,0.4912971496582031
0.5430776596069335,0.4847757339477539
0.5430776596069335,0.4847757339477539
0.5351377487182617,0.4571594238281250
0.5351377487182617,0.4571594238281250
0.5453189849853516,0.4723863601684570
0.5453189849853516,0.4723863601684570
0.5242658615112304,0.4558376312255859
0.5242658615112304,0.4558376312255859
0.5422794342041015,0.4590929031372070
0.5422794342041015,0.4590929031372070
0.5314310073852538,0.4670757293701172
0.5314310073852538,0.4670757293701172
0.5298814773559570,0.4489797592163086
0.5298814773559570,0.4489797592163086
0.5437946319580078,0.4697181701660156
0.5437946319580078,0.4697181701660156
0.5249805450439453,0.4569923400878906
0.5249805450439453,0.4569923400878906
0.5448120117187499,0.4629135131835938
0.5448120117187499,0.4629135131835938
0.5350965499877930,0.4733734130859375
0.5350965499877930,0.4733734130859375
0.5350776672363281,0.4574420928955078
0.5350776672363281,0.4574420928955078
0.5501192092895507,0.4806678771972656
0.5501192092895507,0.4806678771972656
0.5326955795288085,0.4709770202636718
0.5326955795288085,0.4709770202636718
0.5543043136596679,0.4797449111938477
0.5543043136596679,0.4797449111938477
0.5464588165283203,0.4936563491821289
0.5464588165283203,0.4936563491821289
0.5471099853515625,0.4789335250854492
0.5471099853515625,0.4789335250854492
0.5641571044921875,0.5044446945190429
0.5641571044921875,0.5044446945190429
0.5452554702758788,0.4930057525634766
0.5452554702758788,0.4930057525634766
0.5676361083984375,0.5015625000000000
0.5676361083984375,0.5015625000000000
0.5576637268066406,0.5141321182250976
0.5576637268066406,0.5141321182250976
0.5579132080078125,0.4972658157348633
0.5579132080078125,0.4972658157348633
0.5739812850952148,0.5219146728515625
0.5739812850952148,0.5219146728515625
0.5535993576049805,0.5076244354248046
0.5679914474487304,0.5076244354248046
0.5755336761474609,0.5145652770996093
0.5755336761474609,0.5145652770996093
0.5634160995483398,0.5247842788696289
0.5634160995483398,0.5247842788696289
0.5630390167236328,0.5057830810546875
0.5630390167236328,0.5057830810546875
0.5782138824462890,0.5291078567504882
0.5782138824462890,0.5291078567504882
0.5572196960449218,0.5142848968505859
0.5572196960449218,0.5142848968505859
0.5789125442504882,0.5209991455078125
0.5789125442504882,0.5209991455078125
0.5670272827148437,0.5306802749633789
0.5670272827148437,0.5306802749633789
0.5662536621093750,0.5121774673461914
0.5662536621093750,0.5121774673461914
0.5812397003173828,0.5345724105834960
0.5812397003173828,0.5345724105834960
0.5609991073608398,0.5210100173950195
0.5609991073608398,0.5210100173950195
0.5813175201416015,0.5265741348266602
0.5813175201416015,0.5265741348266602
0.5712530136108398,0.5364789962768555
0.5712530136108398,0.5364789962768555
0.5696868896484375,0.5190679550170898
0.5696868896484375,0.5190679550170898
0.5841642379760742,0.5405267715454102
0.5841642379760742,0.5405267715454102
0.5651756286621094,0.5274930953979492
0.5651756286621094,0.5274930953979492
0.5846202850341796,0.5330904006958007
0.5846202850341796,0.5330904006958007
0.5748355865478515,0.5433671951293945
0.5748355865478515,0.5433671951293945
0.5740985870361328,0.5270296096801758
0.5646183013916015,0.5270296096801758
0.5880266189575195,0.5470098495483399
0.5880266189575195,0.5470098495483399
0.5663326263427734,0.5276636123657227
0.5663326263427734,0.5276636123657227
0.5781949996948242,0.5185472488403320
0.5781949996948242,0.5185472488403320
0.5582336425781250,0.5093296051025390
0.5582336425781250,0.5093296051025390
0.5457933425903320,0.4735645294189453
0.5457933425903320,0.4735645294189453
0.5511577606201171,0.4801191329956054
0.5511577606201171,0.4801191329956054
0.5265815734863281,0.4583135604858398
0.5265815734863281,0.4583135604858398
0.5422096252441406,0.4582574844360351
0.5422096252441406,0.4582574844360351
0.5301715850830078,0.4638862609863281
0.5301715850830078,0.4638862609863281
0.5276596069335937,0.4438591003417969
0.5276596069335937,0.4438591003417969
0.5402778625488281,0.4629169464111328
0.5402778625488281,0.4629169464111328
0.5206066131591797,0.4481094360351562
0.5206066131591797,0.4481094360351562
0.5397022247314452,0.4530286788940430
0.5397022247314452,0.4530286788940430
0.5290552139282226,0.4619235992431641
0.5290552139282226,0.4619235992431641
0.5284772872924804,0.4448472976684570
0.5284772872924804,0.4448472976684570
0.5426445007324219,0.4667964935302734
0.5426445007324219,0.4667964935302734
0.5243259429931640,0.4546142578125000
0.5243259429931640,0.4546142578125000
0.5449504852294922,0.4620134353637695
0.5449504852294922,0.4620134353637695
0.5354639053344726,0.4733465194702148
0.5354639053344726,0.4733465194702148
0.5362987518310547,0.4589115142822265
0.5362987518310547,0.4589115142822265
0.5520257949829102,0.4835506439208984
0.5520257949829102,0.4835506439208984
0.5352115631103516,0.4742729187011718
0.5352115631103516,0.4742729187011718
0.5572122573852539,0.4845388412475586
0.5572122573852539,0.4845388412475586
0.5495464324951171,0.4982843399047852
0.5495464324951171,0.4982843399047852
0.5511772155761718,0.4854103088378906
0.5511772155761718,0.4854103088378906
0.5618562698364258,0.4969173431396484
0.5468713760375976,0.4969173431396484
0.5661478042602539,0.5184991836547851
0.5760234832763672,0.5184991836547851
0.5550161361694336,0.5023349761962891
0.5550161361694336,0.5023349761962891
0.5764394760131836,0.5205797195434571
0.5764394760131836,0.5205797195434571
0.5584241867065429,0.5201408386230468
0.5584241867065429,0.5201408386230468
0.5721885681152343,0.5153366088867187
0.5721885681152343,0.5153366088867187
0.5760280609130859,0.5355377197265625
0.5760280609130859,0.5355377197265625
0.5637468338012696,0.5180042266845702
0.5637468338012696,0.5180042266845702
0.5840148925781250,0.5337467193603516
0.5840148925781250,0.5337467193603516
0.5639780044555663,0.5298957824707031
0.5639780044555663,0.5298957824707031
0.5762500762939453,0.5206552505493164
0.5762500762939453,0.5206552505493164
0.5774808883666992,0.5375244140625000
0.5774808883666992,0.5375244140625000
0.5624753952026367,0.5148862838745117
0.5624753952026367,0.5148862838745117
0.5828338623046875,0.5302173614501953
0.5828338623046875,0.5302173614501953
0.5607490539550781,0.5252992630004882
0.5607490539550781,0.5252992630004882
0.5750095367431640,0.5176603317260742
0.5750095367431640,0.5176603317260742
0.5768136978149414,0.5377607345581055
0.5768136978149414,0.5377607345581055
0.5628913879394531,0.5163425445556641
0.5628913879394531,0.5163425445556641
0.5859741210937500,0.5361087799072265
0.5859741210937500,0.5361087799072265
0.5635465621948242,0.5327322006225585
0.5635465621948242,0.5327322006225585
0.5801553726196289,0.5262193679809570
0.5801553726196289,0.5262193679809570
0.5814067840576171,0.5471448898315430
0.5814067840576171,0.5471448898315430
0.5662965774536133,0.5219266891479492
0.5662965774536133,0.5219266891479492
0.5886257171630859,0.5387638092041015
0.5886257171630859,0.5387638092041015
0.5593643188476562,0.5237308502197265
0.5593643188476562,0.5237308502197265
0.5689413070678710,0.5016305923461913
0.5689413070678710,0.5016305923461913
0.5601276397705078,0.5057870864868164
0.5601276397705078,0.5057870864868164
0.5358667373657227,0.4659788131713867
0.5358667373657227,0.4659788131713867
0.5530145645141601,0.4748994827270507
0.5530145645141601,0.4748994827270507
0.5235208511352539,0.4615447998046875
0.5235208511352539,0.4615447998046875
0.5377098083496094,0.4496898651123047
0.5377098083496094,0.4496898651123047
0.5369024276733398,0.4677595138549804
0.5369024276733398,0.4677595138549804
0.5208589553833007,0.4413270950317383
0.5208589553833007,0.4413270950317383
0.5435623168945313,0.4592983245849609
0.5435623168945313,0.4592983245849609
0.5187715530395508,0.4524610519409180
0.5187715530395508,0.4524610519409180
0.5344940185546875,0.4443214416503906
0.5344940185546875,0.4443214416503906
0.5357608795166016,0.4642959594726562
0.5357608795166016,0.4642959594726562
0.5222814559936523,0.4430665969848633
0.5222814559936523,0.4430665969848633
0.5441001892089844,0.4610355377197266
0.5441001892089844,0.4610355377197266
0.5241519927978515,0.4584342956542968
0.5241519927978515,0.4584342956542968
0.5377069473266601,0.4526184082031250
0.5377069473266601,0.4526184082031250
0.5413970947265625,0.4725339889526367
0.5413970947265625,0.4725339889526367
0.5295404434204102,0.4564516067504882
0.5295404434204102,0.4564516067504882
0.5502662658691406,0.4736881256103516
0.5502662658691406,0.4736881256103516
0.5340946197509765,0.4749069213867188
0.5340946197509765,0.4749069213867188
0.5469806671142577,0.4709764480590820
0.5469806671142577,0.4709764480590820
0.5523365020751952,0.4923906326293945
0.5523365020751952,0.4923906326293945
0.5414108276367188,0.4778823852539062
0.5414108276367188,0.4778823852539062
0.5627895355224609,0.4959154129028320
0.5627895355224609,0.4959154129028320
0.5463375091552735,0.4976142883300781
0.5463375091552735,0.4976142883300781
0.5604789733886718,0.4942314147949218
0.5604789733886718,0.4942314147949218
0.5650777816772461,0.5161966323852539
0.5650777816772461,0.5161966323852539
0.5545217514038085,0.5008529663085938
0.5545217514038085,0.5008529663085938
0.5759588241577148,0.5193031311035156
0.5759588241577148,0.5193031311035156
0.5584705352783202,0.5196807861328124
0.5584705352783202,0.5196807861328124
0.5725284576416015,0.5158418655395508
0.5725284576416015,0.5158418655395508
0.5765338897705078,0.5366495132446288
0.5765338897705078,0.5366495132446288
0.5651212692260742,0.5202312469482422
0.5651212692260742,0.5202312469482422
0.5860816955566406,0.5377927780151367
0.5860816955566406,0.5377927780151367
0.5679416656494141,0.5366809844970702
0.5872547149658203,0.5366809844970702
0.5811035156250000,0.5313709259033202
0.5811035156250000,0.5313709259033202
0.5841173171997071,0.5501438140869140
0.5841173171997071,0.5501438140869140
0.5715042114257812,0.5311609268188476
0.5715042114257812,0.5311609268188476
0.5906799316406249,0.5460823059082031
0.5906799316406249,0.5460823059082031
0.5716924667358398,0.5429803848266601
0.5716924667358398,0.5429803848266601
0.5834850311279297,0.5353265762329101
0.5834850311279297,0.5353265762329101
0.5855260848999023,0.5527576446533203
0.5855260848999023,0.5527576446533203
0.5716066360473633,0.5313262939453125
0.5716066360473633,0.5313262939453125
0.5914495468139648,0.5464633941650391
0.5790807723999023,0.5464633941650391
0.5696313858032226,0.5412878036499024
0.5696313858032226,0.5412878036499024
0.5829568862915039,0.5322446823120117
0.5829568862915039,0.5322446823120117
0.5822038650512695,0.5462505340576171
0.5822038650512695,0.5462505340576171
0.5620353698730468,0.5116670608520507
0.5620353698730468,0.5116670608520507
0.5748596191406250,0.5121265411376953
0.5748596191406250,0.5121265411376953
0.5409982681274413,0.4881248474121094
0.5409982681274413,0.4881248474121094
0.5481039047241211,0.4665212631225586
0.5481039047241211,0.4665212631225586
0.5429878234863281,0.4774835586547851
0.5429878234863281,0.4774835586547851
0.5251573562622071,0.4483016967773437
0.5251573562622071,0.4483016967773437
0.5467391967773437,0.4650747299194335
0.5467391967773437,0.4650747299194335
0.5211313247680663,0.4570261001586914
0.5211313247680663,0.4570261001586914
0.5371072769165038,0.4480390548706055
0.5371072769165038,0.4480390548706055
0.5371307373046875,0.4676891326904297
0.5371307373046875,0.4676891326904297
0.5221183776855468,0.4426752090454101
0.5221183776855468,0.4426752090454101
0.5454116821289062,0.4620002746582031
0.5454116821289062,0.4620002746582031
0.5205579757690429,0.4553518295288086
0.5205579757690429,0.4553518295288086
0.5374546051025391,0.4479394912719726
0.5374546051025391,0.4479394912719726
0.5382825851440429,0.4695316314697265
0.5382825851440429,0.4695316314697265
0.5240118026733398,0.4461639404296875
0.5240118026733398,0.4461639404296875
0.5485445022583008,0.4678962707519531
0.5485445022583008,0.4678962707519531
0.5259813308715821,0.4646301269531250
0.5259813308715821,0.4646301269531250
0.5437145233154297,0.4605148315429687
0.5437145233154297,0.4605148315429687
0.5466476440429687,0.4843076705932617
0.5466476440429687,0.4843076705932617
0.5348133087158203,0.4652669906616211
0.5348133087158203,0.4652669906616211
0.5584842681884765,0.4861839294433594
0.5584842681884765,0.4861839294433594
0.5385257720947265,0.4842315673828125
0.5385257720947265,0.4842315673828125
0.5532863616943359,0.4794181823730468
0.5532863616943359,0.4794181823730468
0.5560815811157226,0.5001623153686523
0.5560815811157226,0.5001623153686523
0.5446374893188476,0.4822751998901367
0.5446374893188476,0.4822751998901367
0.5654216766357422,0.4994636535644531
0.5654216766357422,0.4994636535644531
0.5472146987915039,0.4980909347534179
0.5472146987915039,0.4980909347534179
0.5596641540527344,0.4923093795776367
0.5596641540527344,0.4923093795776367
0.5633726119995117,0.5126478195190429
0.5633726119995117,0.5126478195190429
0.5522552490234375,0.4965270996093750
0.5522552490234375,0.4965270996093750
0.5732345581054688,0.5143312454223633
0.5732345581054688,0.5143312454223633
0.5548593521118164,0.5125488281250000
0.5548593521118164,0.5125488281250000
0.5681447982788086,0.5071409225463867
0.5681447982788086,0.5071409225463867
0.5705366134643555,0.5258193969726562
0.5705366134643555,0.5258193969726562
0.5580596923828125,0.5063501358032226
0.5580596923828125,0.5063501358032226
0.5775192260742187,0.5216028213500976
0.5775192260742187,0.5216028213500976
0.5575498580932617,0.5170154571533203
0.5759319305419922,0.5170154571533203
0.5695249557495117,0.5097656250000000
0.5695249557495117,0.5097656250000000
0.5717107772827148,0.5276247024536133
0.5717107772827148,0.5276247024536133
0.5594055175781250,0.5085376739501953
0.5594055175781250,0.5085376739501953
0.5792203903198242,0.5248077392578124
0.5792203903198242,0.5248077392578124
0.5587434768676758,0.5201803207397461
0.5587434768676758,0.5201803207397461
0.5722286224365234,0.5133934020996094
0.5722286224365234,0.5133934020996094
0.5731870651245117,0.5311838150024414
0.5731870651245117,0.5311838150024414
0.5606929779052734,0.5116195678710938
0.5606929779052734,0.5116195678710938
0.5810205459594726,0.5286077499389649
0.5810205459594726,0.5286077499389649
0.5604503631591796,0.5223964691162110
0.5604503631591796,0.5223964691162110
0.5702625274658203,0.5087179183959961
0.5702625274658203,0.5087179183959961
0.5646314620971680,0.5120161056518554
0.5646314620971680,0.5120161056518554
0.5426496505737305,0.4756158828735351
0.5426496505737305,0.4756158828735351
0.5536308288574219,0.4769662857055664
0.5536308288574219,0.4769662857055664
0.5286066055297851,0.4643743515014648
0.5286066055297851,0.4643743515014648
0.5374151229858398,0.4520719528198242
0.5374151229858398,0.4520719528198242
0.5380119323730469,0.4667661666870117
0.5380119323730469,0.4667661666870117
0.5244009017944335,0.4463378906250000
0.5244009017944335,0.4463378906250000
0.5423990249633789,0.4588897705078125
0.5325468063354492,0.4588897705078125
0.5233388900756836,0.4549999237060547
0.5233388900756836,0.4549999237060547
0.5339675903320312,0.4464471817016601
0.5339675903320312,0.4464471817016601
0.5365093231201171,0.4630434036254882
0.5365093231201171,0.4630434036254882
0.5235511779785156,0.4443357467651367
0.5235511779785156,0.4443357467651367
0.5427114486694335,0.4587856292724609
0.5427114486694335,0.4587856292724609
0.5244781494140625,0.4564538955688476
0.5244781494140625,0.4564538955688476
0.5360652923583984,0.4496212005615234
0.5360652923583984,0.4496212005615234
0.5396181106567383,0.4683185577392578
0.5396181106567383,0.4683185577392578
0.5274742126464843,0.4510637283325195
0.5274742126464843,0.4510637283325195
0.5476232528686523,0.4681194305419922
0.5476232528686523,0.4681194305419922
0.5295696258544922,0.4675168991088867
0.5295696258544922,0.4675168991088867
0.5446300506591797,0.4639240264892578
0.5446300506591797,0.4639240264892578
0.5492185592651367,0.4874284744262695
0.5492185592651367,0.4874284744262695
0.5383438110351563,0.4711732864379883
0.5383438110351563,0.4711732864379883
0.5618322372436523,0.4924976348876953
0.5618322372436523,0.4924976348876953
0.5415000915527344,0.4906511306762695
0.5415000915527344,0.4906511306762695
0.5582502365112304,0.4851173400878906
0.5582502365112304,0.4851173400878906
0.5592315673828124,0.5058408737182617
0.5592315673828124,0.5058408737182617
0.5451198577880859,0.4822734832763672
0.5451198577880859,0.4822734832763672
0.5682849884033203,0.5022960662841797
0.5682849884033203,0.5022960662841797
0.5440029144287110,0.4958805084228515
0.5440029144287110,0.4958805084228515
0.5608217239379882,0.4883445739746093
0.5390459060668945,0.4883445739746093
0.5720100402832031,0.5085021972656250
0.5675720214843750,0.5085021972656250
0.5454208374023437,0.4829000473022461
0.5454208374023437,0.4829000473022461
0.5696971893310546,0.5042449951171875
0.5696971893310546,0.5042449951171875
0.5439188003540039,0.4974002838134766
0.5439188003540039,0.4974002838134766
0.5622453689575195,0.4906082153320312
0.5622453689575195,0.4906082153320312
0.5629022598266601,0.5137567520141602
0.5629022598266601,0.5137567520141602
0.5486137390136718,0.4893178939819336
0.5486137390136718,0.4893178939819336
0.5739955902099609,0.5117786407470702
0.5739955902099609,0.5117786407470702
0.5472484588623047,0.5039113998413086
0.5472484588623047,0.5039113998413086
0.5653999328613281,0.4954616546630859
0.5653999328613281,0.4954616546630859
0.5649055480957031,0.5167121887207031
0.5766180038452148,0.5167121887207031
0.5500745773315430,0.4912542343139648
0.5500745773315430,0.4912542343139648
0.5742244720458984,0.5120000839233398
0.5742244720458984,0.5120000839233398
0.5488660812377929,0.5051130294799805
0.5488660812377929,0.5051130294799805
0.5661563873291016,0.4988079071044922
0.5661563873291016,0.4988079071044922
0.5674633026123047,0.5215581893920899
0.5674633026123047,0.5215581893920899
0.5551431655883788,0.5014183044433593
0.5551431655883788,0.5014183044433593
0.5786029815673828,0.5229526519775390
0.5786029815673828,0.5229526519775390
0.5570880889892578,0.5188962936401367
0.5570880889892578,0.5188962936401367
0.5710201263427734,0.5097627639770508
0.5710201263427734,0.5097627639770508
0.5697195053100585,0.5219203948974609
0.5697195053100585,0.5219203948974609
0.5513854980468750,0.4923860549926757
0.5513854980468750,0.4923860549926757
0.5647476196289062,0.4947732925415039
0.5647476196289062,0.4947732925415039
0.5376079559326171,0.4793186187744141
0.5376079559326171,0.4793186187744141
0.5441104888916015,0.4623149871826172
0.5441104888916015,0.4623149871826172
0.5429008483886718,0.4735691070556640
0.5429008483886718,0.4735691070556640
0.5271646499633789,0.4498100280761719
0.5271646499633789,0.4498100280761719
0.5452949523925781,0.4631864547729492
0.5452949523925781,0.4631864547729492
0.5237182617187500,0.4564670562744140
0.5237182617187500,0.4564670562744140
0.5365539550781250,0.4486890792846679
0.5365539550781250,0.4486890792846679
0.5372869491577148,0.4654626846313477
0.5372869491577148,0.4654626846313477
0.5245405197143554,0.4447631835937500
0.5245405197143554,0.4447631835937500
0.5447250366210937,0.4615928649902343
0.5447250366210937,0.4615928649902343
0.5240638732910156,0.4566673278808593
0.5240638732910156,0.4566673278808593
0.5379821777343750,0.4504194259643555
0.5379821777343750,0.4504194259643555
0.5393365859985352,0.4692615509033203
0.5393365859985352,0.4692615509033203
0.5273391723632812,0.4497138977050781
0.5273391723632812,0.4497138977050781
0.5491790771484375,0.4693817138671875
0.5491790771484375,0.4693817138671875
0.5291788101196289,0.4668880462646484
0.5291788101196289,0.4668880462646484
0.5451690673828125,0.4634273529052734
0.5451690673828125,0.4634273529052734
0.5482944488525391,0.4864374160766601
0.5482944488525391,0.4864374160766601
0.5376153945922851,0.4688501358032227
0.5376153945922851,0.4688501358032227
0.5614065170288086,0.4916633605957031
0.5614065170288086,0.4916633605957031
0.5410560607910156,0.4897172927856445
0.5410560607910156,0.4897172927856445
0.5587297439575195,0.4871486663818359
0.5587297439575195,0.4871486663818359
0.5614534378051758,0.5103338241577148
0.5614534378051758,0.5103338241577148
0.5496826171875000,0.4908142089843750
0.5496826171875000,0.4908142089843750
0.5734840393066406,0.5131610870361328
0.5734840393066406,0.5131610870361328
0.5516098022460937,0.5090761184692383
0.5516098022460937,0.5090761184692383
0.5685493469238281,0.5040687561035156
0.5685493469238281,0.5040687561035156
0.5698843002319336,0.5254125595092773
0.5698843002319336,0.5254125595092773
0.5566640853881836,0.5027303695678711
0.5566640853881836,0.5027303695678711
0.5793428421020508,0.5226305007934570
0.5793428421020508,0.5226305007934570
0.5556982040405273,0.5166738510131835
0.5556982040405273,0.5166738510131835
0.5723155975341797,0.5101118087768555
0.5723155975341797,0.5101118087768555
0.5727407455444335,0.5305440902709960
0.5727407455444335,0.5305440902709960
0.5589986801147461,0.5073863983154296
0.5589986801147461,0.5073863983154296
0.5821443557739258,0.5273906707763671
0.5821443557739258,0.5273906707763671
0.5581409454345703,0.5207645416259765
0.5581409454345703,0.5207645416259765
0.5744762420654297,0.5141464233398437
0.5744762420654297,0.5141464233398437
0.5749322891235351,0.5345666885375976
0.5749322891235351,0.5345666885375976
0.5613355636596680,0.5112464904785156
0.5613355636596680,0.5112464904785156
0.5840829849243164,0.5314161300659179
0.5840829849243164,0.5314161300659179
0.5605676651000976,0.5253873825073242
0.5605676651000976,0.5253873825073242
0.5770568847656250,0.5193208694458008
0.5770568847656250,0.5193208694458008
0.5773893356323242,0.5393663406372070
0.5773893356323242,0.5393663406372070
0.5631385803222656,0.5136898040771484
0.5631385803222656,0.5136898040771484
0.5814617156982421,0.5246417999267577
0.5814617156982421,0.5246417999267577
0.5508081436157226,0.5042249679565429
0.5508081436157226,0.5042249679565429
0.5578142166137695,0.4815198898315429
0.5578142166137695,0.4815198898315429
0.5498205184936523,0.4863286972045898
0.5498205184936523,0.4863286972045898
0.5302774429321289,0.4539047241210937
0.5302774429321289,0.4539047241210937
0.5469360351562500,0.4645803451538086
0.5469360351562500,0.4645803451538086
0.5230133056640625,0.4547996520996094
0.5230133056640625,0.4547996520996094
0.5347669601440429,0.4449920654296875
0.5347669601440429,0.4449920654296875
0.5348155975341796,0.4609508514404297
0.5348155975341796,0.4609508514404297
0.5214214324951172,0.4387390136718750
0.5214214324951172,0.4387390136718750
0.5407281875610351,0.4543561935424805
0.5407281875610351,0.4543561935424805
0.5197980880737304,0.4483274459838867
0.5197980880737304,0.4483274459838867
0.5333650588989257,0.4417127609252929
0.5333650588989257,0.4417127609252929
0.5342084884643554,0.4599123001098633
0.5342084884643554,0.4599123001098633
0.5224176406860351,0.4400070190429687
0.5224176406860351,0.4400070190429687
0.5427114486694335,0.4573820114135742
0.5427114486694335,0.4573820114135742
0.5232061386108399,0.4540449142456054
0.5232061386108399,0.4540449142456054
0.5373704910278320,0.4492132186889649
0.5373704910278320,0.4492132186889649
0.5396261215209961,0.4694772720336914
0.5396261215209961,0.4694772720336914
0.5289934158325195,0.4522727966308593
0.5289934158325195,0.4522727966308593
0.5505460739135742,0.4724000930786132
0.5505460739135742,0.4724000930786132
0.5327230453491211,0.4717065811157226
0.5327230453491211,0.4717065811157226
0.5486228942871093,0.4705392837524414
0.5486228942871093,0.4705392837524414
0.5524314880371094,0.4931379318237304
0.5524314880371094,0.4931379318237304
0.5429357528686524,0.4775545120239257
0.5429357528686524,0.4775545120239257
0.5644575119018554,0.4972858428955078
0.5644575119018554,0.4972858428955078
0.5454998016357422,0.4940134048461914
0.5454998016357422,0.4940134048461914
0.5595245361328125,0.4889333724975586
0.5595245361328125,0.4889333724975586
0.5609796524047851,0.5075483322143555
0.5609796524047851,0.5075483322143555
0.5493324279785156,0.4882066726684570
0.5493324279785156,0.4882066726684570
0.5691415786743164,0.5055250167846680
0.5691415786743164,0.5055250167846680
0.5494022369384766,0.5011493682861328
0.5494022369384766,0.5011493682861328
0.5625377655029297,0.4945873260498047
0.5625377655029297,0.4945873260498047
0.5635259628295898,0.5115978240966796
0.5635259628295898,0.5115978240966796
0.5508012771606445,0.4912673950195312
0.5508012771606445,0.4912673950195312
0.5692033767700195,0.5052509307861328
0.5692033767700195,0.5052509307861328
0.5503297805786133,0.5017822265624999
0.5503297805786133,0.5017822265624999
0.5613418579101562,0.4943389892578125
0.5613418579101562,0.4943389892578125
0.5646463394165039,0.5126380920410156
0.5646463394165039,0.5126380920410156
0.5524578094482422,0.4949901580810547
0.5524578094482422,0.4949901580810547
0.5717628479003906,0.5108516693115234
0.5717628479003906,0.5108516693115234
0.5536703109741211,0.5084856033325195
0.5536703109741211,0.5084856033325195
0.5663475036621094,0.5030719757080078
0.5663475036621094,0.5030719757080078
0.5690259933471680,0.5229623794555663
0.5690259933471680,0.5229623794555663
0.5581443786621093,0.5059261322021484
0.5581443786621093,0.5059261322021484
0.5798498153686523,0.5258880615234375
0.5798498153686523,0.5258880615234375
0.5817684173583985,0.5246011734008789
0.5767999649047851,0.5208543777465821
0.5767999649047851,0.5208543777465821
0.5794658660888672,0.5426782608032227
0.5794658660888672,0.5426782608032227
0.5676029205322265,0.5230413436889648
0.5676029205322265,0.5230413436889648
0.5882881164550781,0.5388765335083008
0.5882881164550781,0.5388765335083008
0.5617286682128906,0.5242601394653320
0.5617286682128906,0.5242601394653320
0.5694236755371094,0.5016580581665039
0.5694236755371094,0.5016580581665039
0.5596235275268554,0.5026313781738281
0.5596235275268554,0.5026313781738281
0.5362380981445313,0.4627578735351562
0.5362380981445313,0.4627578735351562
0.5517356872558593,0.4711349487304687
0.5517356872558593,0.4711349487304687
0.5236581802368164,0.4574890136718750
0.5236581802368164,0.4574890136718750
0.5375524520874023,0.4462875366210937
0.5375524520874023,0.4462875366210937
0.5357242584228515,0.4637311935424804
0.5357242584228515,0.4637311935424804
0.5202592849731446,0.4364896774291992
0.5202592849731446,0.4364896774291992
0.5426181793212891,0.4554954528808594
0.5426181793212891,0.4554954528808594
0.5167476654052734,0.4468894958496094
0.5167476654052734,0.4468894958496094
0.5339212417602539,0.4387853622436523
0.5339212417602539,0.4387853622436523
0.5334285736083985,0.4593395233154297
0.5334285736083985,0.4593395233154297
0.5189495086669922,0.4338649749755859
0.5189495086669922,0.4338649749755859
0.5431131362915039,0.4551017761230469
0.5431131362915039,0.4551017761230469
0.5174674987792969,0.4479017257690430
0.5174674987792969,0.4479017257690430
0.5360321044921875,0.4420394897460938
0.5360321044921875,0.4420394897460938
0.5369619369506836,0.4654535293579101
0.5369619369506836,0.4654535293579101
0.5239431381225585,0.4430917739868164
0.5239431381225585,0.4430917739868164
0.5495590209960938,0.4673789978027343
0.5495590209960938,0.4673789978027343
0.5264144897460937,0.4636024475097656
0.5264144897460937,0.4636024475097656
0.5457006454467773,0.4606561660766602
0.5457006454467773,0.4606561660766602
0.5481502532958984,0.4850372314453125
0.5481502532958984,0.4850372314453125
0.5366615295410156,0.4654867172241210
0.5366615295410156,0.4654867172241210
0.5614093780517578,0.4894706726074218
0.5614093780517578,0.4894706726074218
0.5407785415649414,0.4879875183105469
0.5407785415649414,0.4879875183105469
0.5584665298461914,0.4859081268310547
0.5584665298461914,0.4859081268310547
0.5615758895874023,0.5089765548706054
0.5615758895874023,0.5089765548706054
0.5509958267211914,0.4917085647583008
0.5509958267211914,0.4917085647583008
0.5726783752441406,0.5113386154174805
0.5726783752441406,0.5113386154174805
0.5534105300903320,0.5088026046752929
0.5534105300903320,0.5088026046752929
0.5675514221191406,0.5044338226318359
0.5551214218139648,0.5007900238037110
0.5704513549804687,0.5239648818969727
0.5799310684204101,0.5239648818969727
0.5585586547851562,0.5058237075805664
0.5585586547851562,0.5058237075805664
0.5786035537719726,0.5232381820678711
0.5786035537719726,0.5232381820678711
0.5602729797363281,0.5206850051879882
0.5602729797363281,0.5206850051879882
0.5735555648803711,0.5151208877563477
0.5735555648803711,0.5151208877563477
0.5750890731811523,0.5331888198852539
0.5750890731811523,0.5331888198852539
0.5627815246582031,0.5127559661865234
0.5627815246582031,0.5127559661865234
0.5822193145751953,0.5290998458862305
0.5822193145751953,0.5290998458862305
0.5619558334350586,0.5237216949462891
0.5619558334350586,0.5237216949462891
0.5748865127563476,0.5171997070312500
0.5748865127563476,0.5171997070312500
0.5756755828857422,0.5347303390502930
0.5756755828857422,0.5347303390502930
0.5636718749999999,0.5149480819702148
0.5636718749999999,0.5149480819702148
0.5832349777221679,0.5314664840698242
0.5832349777221679,0.5314664840698242
0.5639694213867187,0.5279834747314452
0.5639694213867187,0.5279834747314452
0.5768920898437500,0.5220548629760742
0.5768920898437500,0.5220548629760742
0.5791116714477539,0.5405027389526367
0.5791116714477539,0.5405027389526367
0.5670547485351562,0.5219673156738281
0.5670547485351562,0.5219673156738281
0.5867546081542968,0.5384479522705078
0.5867546081542968,0.5384479522705078
0.5675588607788086,0.5341135025024414
0.5675588607788086,0.5341135025024414
0.5784461975097656,0.5237783432006836
0.5784461975097656,0.5237783432006836
0.5759061813354492,0.5326944351196289
0.5759061813354492,0.5326944351196289
0.5560873031616210,0.4989423751831055
0.5560873031616210,0.4989423751831055
0.5683347702026367,0.5008935928344727
0.5683347702026367,0.5008935928344727
0.5392930984497070,0.4817939758300781
0.5392930984497070,0.4817939758300781
0.5467437744140625,0.4636230468750000
0.5467437744140625,0.4636230468750000
0.5431148529052734,0.4752799987792968
0.5431148529052734,0.4752799987792968
0.5271194458007812,0.4483978271484375
0.5271194458007812,0.4483978271484375
0.5470355987548828,0.4641008377075195
0.5470355987548828,0.4641008377075195
0.5229835510253906,0.4560430526733398
0.5229835510253906,0.4560430526733398
0.5381063461303711,0.4476150512695312
0.5381063461303711,0.4476150512695312
0.5377641677856445,0.4664445877075195
0.5377641677856445,0.4664445877075195
0.5237983703613281,0.4423799514770508
0.5237983703613281,0.4423799514770508
0.5463352203369141,0.4618892669677734
0.5463352203369141,0.4618892669677734
0.5226694107055664,0.4554124832153320
0.5226694107055664,0.4554124832153320
0.5393720626831054,0.4492057800292968
0.5393720626831054,0.4492057800292968
0.5399597167968749,0.4702091217041016
0.5399597167968749,0.4702091217041016
0.5270467758178711,0.4477420806884765
0.5270467758178711,0.4477420806884765
0.5506748199462891,0.4700231552124023
0.5506748199462891,0.4700231552124023
0.5281036376953124,0.4658060073852539
0.5281036376953124,0.4658060073852539
0.5462408065795898,0.4620935440063476
0.5462408065795898,0.4620935440063476
0.5481262207031250,0.4859018325805664
0.5481262207031250,0.4859018325805664
0.5366712570190429,0.4661064147949219
0.5366712570190429,0.4661064147949219
0.5613945007324218,0.4898820877075195
0.5613945007324218,0.4898820877075195
0.5397811889648437,0.4870553970336914
0.5397811889648437,0.4870553970336914
0.5578599929809570,0.4837829589843750
0.5578599929809570,0.4837829589843750
0.5597070693969727,0.5064039230346680
0.5597070693969727,0.5064039230346680
0.5479133605957031,0.4865507125854492
0.5479133605957031,0.4865507125854492
0.5709817886352538,0.5077806472778320
0.5709817886352538,0.5077806472778320
0.5501655578613281,0.5040836334228516
0.5501655578613281,0.5040836334228516
0.5654920578002930,0.4992868423461914
0.5654920578002930,0.4992868423461914
0.5673929214477539,0.5189409255981445
0.5673929214477539,0.5189409255981445
0.5554103851318359,0.4996450424194336
0.5554103851318359,0.4996450424194336
0.5762849807739258,0.5189563751220703
0.5762849807739258,0.5189563751220703
0.5570611953735352,0.5158487319946289
0.5570611953735352,0.5158487319946289
0.5719213485717773,0.5119840621948242
0.5719213485717773,0.5119840621948242
0.5738897323608398,0.5317388534545898
0.5738897323608398,0.5317388534545898
0.5631002426147461,0.5142625808715821
0.5631002426147461,0.5142625808715821
0.5841876983642578,0.5342548370361327
0.5841876983642578,0.5342548370361327
0.5663469314575195,0.5332466125488281
0.5663469314575195,0.5332466125488281
0.5812122344970703,0.5300268173217774
0.5812122344970703,0.5300268173217774
0.5834278106689453,0.5492809295654296
0.5834278106689453,0.5492809295654296
0.5718235015869141,0.5301486968994140
0.5718235015869141,0.5301486968994140
0.5909105300903320,0.5455123901367187
0.5909105300903320,0.5455123901367187
0.5702556610107422,0.5388175964355468
0.5702556610107422,0.5388175964355468
0.5815114974975586,0.5293498992919922
0.5815114974975586,0.5293498992919922
0.5802400588989257,0.5421684265136718
0.5802400588989257,0.5421684265136718
0.5649204254150391,0.5162086486816406
0.5634195327758789,0.5162086486816406
0.5804248809814453,0.5257003784179687
0.5804248809814453,0.5257003784179687
0.5566217422485351,0.5133882522583008
0.5566217422485351,0.5133882522583008
0.5661769866943359,0.5010314941406250
0.5661769866943359,0.5010314941406250
0.5644557952880859,0.5137567520141602
0.5644557952880859,0.5137567520141602
0.5500368118286133,0.4893247604370117
0.5500368118286133,0.4893247604370117
0.5669099807739257,0.5006601333618164
0.5669099807739257,0.5006601333618164
0.5426553726196289,0.4887588500976562
0.5426553726196289,0.4887588500976562
0.5515680313110352,0.4723731994628906
0.5515680313110352,0.4723731994628906
0.5477439880371093,0.4818998336791992
0.5477439880371093,0.4818998336791992
0.5308948516845703,0.4545375823974609
0.5308948516845703,0.4545375823974609
0.5484289169311524,0.4672811508178711
0.5484289169311524,0.4672811508178711
0.5257341384887695,0.4588754653930664
0.5257341384887695,0.4588754653930664
0.5381526947021484,0.4498134613037109
0.5381526947021484,0.4498134613037109
0.5386533737182617,0.4668828964233398
0.5386533737182617,0.4668828964233398
0.5255704879760742,0.4455110549926758
0.5255704879760742,0.4455110549926758
0.5457841873168945,0.4627630233764648
0.5457841873168945,0.4627630233764648
0.5254606246948242,0.4578117370605468
0.5254606246948242,0.4578117370605468
0.5395259857177734,0.4519529342651367
0.5395259857177734,0.4519529342651367
0.5411155700683593,0.4712940216064453
0.5411155700683593,0.4712940216064453
0.5288595199584961,0.4513463973999023
0.5288595199584961,0.4513463973999023
0.5505706787109375,0.4709266662597656
0.5505706787109375,0.4709266662597656
0.5306419372558594,0.4682064056396484
0.5306419372558594,0.4682064056396484
0.5464536666870117,0.4642667770385742
0.5464536666870117,0.4642667770385742
0.5490674972534180,0.4867961883544922
0.5490674972534180,0.4867961883544922
0.5384456634521484,0.4693056106567383
0.5384456634521484,0.4693056106567383
0.5622493743896484,0.4929599761962891
0.5622493743896484,0.4929599761962891
0.5434478759765625,0.4931241989135742
0.5434478759765625,0.4931241989135742
0.5621103286743164,0.4931425094604492
0.5621103286743164,0.4931425094604492
0.5661426544189453,0.5187480926513671
0.5661426544189453,0.5187480926513671
0.5557886123657226,0.5008071899414063
0.5557886123657226,0.5008071899414063
0.5791906356811524,0.5228828430175781
0.5791906356811524,0.5228828430175781
0.5571075439453125,0.5174228668212890
0.5571075439453125,0.5174228668212890
0.5725044250488281,0.5103956222534179
0.5725044250488281,0.5103956222534179
0.5725982666015624,0.5294797897338867
0.5725982666015624,0.5294797897338867
0.5588607788085938,0.5057733535766601
0.5588607788085938,0.5057733535766601
0.5809055328369140,0.5253078460693359
0.5809055328369140,0.5253078460693359
0.5571035385131836,0.5181695938110351
0.5571035385131836,0.5181695938110351
0.5731264114379883,0.5105003356933594
0.5731264114379883,0.5105003356933594
0.5721942901611328,0.5294517517089844
0.5721942901611328,0.5294517517089844
0.5581426620483398,0.5045745849609374
0.5581426620483398,0.5045745849609374
0.5801330566406250,0.5238607406616210
0.5801330566406250,0.5238607406616210
0.5558755874633788,0.5162755966186523
0.5558755874633788,0.5162755966186523
0.5718389511108398,0.5082904815673828
0.5718389511108398,0.5082904815673828
0.5709474563598632,0.5266399383544922
0.5709474563598632,0.5266399383544922
0.5561908721923828,0.5006698608398438
0.5561908721923828,0.5006698608398438
0.5783695220947266,0.5202610015869140
0.5783695220947266,0.5202610015869140
0.5537549972534179,0.5123846054077148
0.5537549972534179,0.5123846054077148
0.5701612472534180,0.5049293518066406
0.5701612472534180,0.5049293518066406
0.5692703247070312,0.5241502761840821
0.5692703247070312,0.5241502761840821
0.5557205200195312,0.5000793457031250
0.5574811935424805,0.5000793457031250
0.5783620834350586,0.5210700988769531
0.5783620834350586,0.5210700988769531
0.5562755584716796,0.5160936355590821
0.5562755584716796,0.5160936355590821
0.5726543426513672,0.5111686706542968
0.5726543426513672,0.5111686706542968
0.5736763000488281,0.5321222305297851
0.5736763000488281,0.5321222305297851
0.5621921539306640,0.5134534835815430
0.5621921539306640,0.5134534835815430
0.5843158721923828,0.5337364196777343
0.5843158721923828,0.5337364196777343
0.5647705078124999,0.5288211822509765
0.5647705078124999,0.5288211822509765
0.5750432968139648,0.5173341751098632
0.5750432968139648,0.5173341751098632
0.5731418609619140,0.5281282424926758
0.5731418609619140,0.5281282424926758
0.5574119567871093,0.5027521133422851
0.5574119567871093,0.5027521133422851
0.5711448669433593,0.5073949813842773
0.5711448669433593,0.5073949813842773
0.5461973190307617,0.4915105819702148
0.5601739883422852,0.4915105819702148
0.5517047882080078,0.4751506805419922
0.5517047882080078,0.4751506805419922
0.5503406524658203,0.4861547470092773
0.5503406524658203,0.4861547470092773
0.5357105255126953,0.4629850387573242
0.5357105255126953,0.4629850387573242
0.5533596038818359,0.4763208389282226
0.5533596038818359,0.4763208389282226
0.5334234237670898,0.4706628799438476
0.5334234237670898,0.4706628799438476
0.5453390121459961,0.4632350921630859
0.5453390121459961,0.4632350921630859
0.5467283248901367,0.4805631637573242
0.5467283248901367,0.4805631637573242
0.5346313476562500,0.4608896255493164
0.5346313476562500,0.4608896255493164
0.5538740158081055,0.4771448135375976
0.5538740158081055,0.4771448135375976
0.5349712371826172,0.4733219146728516
0.5349712371826172,0.4733219146728516
0.5474081039428711,0.4667776107788086
0.5474081039428711,0.4667776107788086
0.5498588562011718,0.4853656768798828
0.5498588562011718,0.4853656768798828
0.5374889373779297,0.4664646148681640
0.5374889373779297,0.4664646148681640
0.5574319839477538,0.4834487915039062
0.5574319839477538,0.4834487915039062
0.5387666702270507,0.4805128097534179
0.5387666702270507,0.4805128097534179
0.5518095016479492,0.4749389648437500
0.5518095016479492,0.4749389648437500
0.5547981262207031,0.4956556320190429
0.5547981262207031,0.4956556320190429
0.5433248519897461,0.4777948379516601
0.5433248519897461,0.4777948379516601
0.5647052764892578,0.4973190307617187
0.5647052764892578,0.4973190307617187
0.5464370727539062,0.4963005065917969
0.5464370727539062,0.4963005065917969
0.5488821029663086,0.4931808471679687
0.5488821029663086,0.4908313751220703
0.5768520355224609,0.5167854309082031
0.5768520355224609,0.5167854309082031
0.5554738998413086,0.5007659912109375
0.5554738998413086,0.5007659912109375
0.5785600662231445,0.5237937927246094
0.5785600662231445,0.5237937927246094
0.5604875564575195,0.5238344192504882
0.5604875564575195,0.5238344192504882
0.5774414062500000,0.5225978851318359
0.5774414062500000,0.5225978851318359
0.5813043594360351,0.5469377517700195
0.5813043594360351,0.5469377517700195
0.5713731765747070,0.5304496765136718
0.5713731765747070,0.5304496765136718
0.5952112197875976,0.5546991348266601
0.5952112197875976,0.5546991348266601
0.5764097213745117,0.5537069320678710
0.5764097213745117,0.5537069320678710
0.5939615249633788,0.5518815994262695
0.5939615249633788,0.5518815994262695
0.5963905334472656,0.5751125335693359
0.5963905334472656,0.5751125335693359
0.5851758956909180,0.5552141189575195
0.5851758956909180,0.5552141189575195
0.6079908370971679,0.5772840499877929
0.6079908370971679,0.5772840499877929
0.5862733840942382,0.5723258972167968
0.5862733840942382,0.5723258972167968
0.6029914855957031,0.5672515869140625
0.6029914855957031,0.5672515869140625
0.6034435272216797,0.5883087158203125
0.6034435272216797,0.5883087158203125
0.5910415649414062,0.5659772872924804
0.5910415649414062,0.5659772872924804
0.6137523651123047,0.5875127792358398
0.6137523651123047,0.5875127792358398
0.5906518936157227,0.5812860488891601
0.6146530151367188,0.5812860488891601
0.6070518493652344,0.5741249084472656
0.6070518493652344,0.5741249084472656
0.6045730590820312,0.5884574890136719
0.6045730590820312,0.5884574890136719
0.5850694656372070,0.5505615234375000
0.5850694656372070,0.5505615234375000
0.5942996978759766,0.5456817626953124
0.5942996978759766,0.5456817626953124
0.5578376770019531,0.5131004333496093
0.5578376770019531,0.5131004333496093
0.5605224609375000,0.4855047225952148
0.5605224609375000,0.4855047225952148
0.5523628234863281,0.4897058486938476
0.5523628234863281,0.4897058486938476
0.5343057632446289,0.4592611312866210
0.5343057632446289,0.4592611312866210
0.5510725021362305,0.4714708328247070
0.5510725021362305,0.4714708328247070
0.5292789459228515,0.4631309509277344
0.5292789459228515,0.4631309509277344
0.5407098770141602,0.4543716430664062
0.5407098770141602,0.4543716430664062
0.5411430358886719,0.4704586029052734
0.5411430358886719,0.4704586029052734
0.5291193008422851,0.4501653671264648
0.5291193008422851,0.4501653671264648
0.5481176376342773,0.4666082382202148
0.5481176376342773,0.4666082382202148
0.5289178848266601,0.4618692398071289
0.5289178848266601,0.4618692398071289
0.5423349380493164,0.4566181182861328
0.5423349380493164,0.4566181182861328
0.5439914703369141,0.4752462387084961
0.5439914703369141,0.4752462387084961
0.5332815170288085,0.4575880050659180
0.5332815170288085,0.4575880050659180
0.5531953811645508,0.4760885238647461
0.5531953811645508,0.4760885238647461
0.5363210678100586,0.4744794845581055
0.5363210678100586,0.4744794845581055
0.5494634628295898,0.4711269378662109
0.5494634628295898,0.4711269378662109
0.5530838012695313,0.4917428970336914
0.5530838012695313,0.4917428970336914
0.5432327270507812,0.4757984161376953
0.5432327270507812,0.4757984161376953
0.5633028030395507,0.4943063735961914
0.5633028030395507,0.4943063735961914
0.5454952239990234,0.4913726806640625
0.5454952239990234,0.4913726806640625
0.5585557937622070,0.4866296768188476
0.5585557937622070,0.4866296768188476
0.5605344772338867,0.5057315826416016
0.5605344772338867,0.5057315826416016
0.5505643844604492,0.4890277862548828
0.5505643844604492,0.4890277862548828
0.5707963943481446,0.5085216522216797
0.5707963943481446,0.5085216522216797
0.5539752960205078,0.5075443267822265
0.5539752960205078,0.5075443267822265
0.5671760559082031,0.5038272857666015
0.5671760559082031,0.5038272857666015
0.5703632354736328,0.5229789733886718
0.5703632354736328,0.5229789733886718
0.5592012405395508,0.5057361602783202
0.5592012405395508,0.5057361602783202
0.5783557891845703,0.5223718643188476
0.5783557891845703,0.5223718643188476
0.5607072830200195,0.5194038391113281
0.5607072830200195,0.5194038391113281
0.5724615097045899,0.5137716293334961
0.5724615097045899,0.5137716293334961
0.5751943588256836,0.5322338104248047
0.5751943588256836,0.5322338104248047
0.5640100479125977,0.5143278121948242
0.5640100479125977,0.5143278121948242
0.5828430175781250,0.5309692382812500
0.5828430175781250,0.5309692382812500
0.5654382705688477,0.5286203384399414
0.5654382705688477,0.5286203384399414
0.5776725769042969,0.5235557556152344
0.5776725769042969,0.5235557556152344
0.5806503295898438,0.5430307388305664
0.5806503295898438,0.5430307388305664
0.5701154708862305,0.5267320632934570
0.5701154708862305,0.5267320632934570
0.5899869918823242,0.5450689315795898
0.5899869918823242,0.5450689315795898
0.5734766006469726,0.5444480895996093
0.5734766006469726,0.5444480895996093
0.5865474700927734,0.5413702011108398
0.5865474700927734,0.5413702011108398
0.5908155441284180,0.5623517990112304
0.5908155441284180,0.5623517990112304
0.5810216903686524,0.5477027893066406
0.5810216903686524,0.5477027893066406
0.6017103195190430,0.5674644470214844
0.6017103195190430,0.5674644470214844
0.5845762252807617,0.5647247314453124
0.5845762252807617,0.5647247314453124
0.5961050033569336,0.5550270080566406
0.5961050033569336,0.5550270080566406
0.5916898727416992,0.5609144210815430
0.5916898727416992,0.5609144210815430
0.5693132400512695,0.5195423126220703
0.5693132400512695,0.5195423126220703
0.5776113510131836,0.5162355422973632
0.5776113510131836,0.5162355422973632
0.5462379455566406,0.4916885375976562
0.5462379455566406,0.4916885375976562
0.5531982421875000,0.4725728988647461
0.5531982421875000,0.4725728988647461
0.5477811813354492,0.4828634262084961
0.5477811813354492,0.4828634262084961
0.5326292037963867,0.4552391052246094
0.5326292037963867,0.4552391052246094
0.5519227981567383,0.4720813751220703
0.5519227981567383,0.4720813751220703
0.5273746490478516,0.4616157531738281
0.5273746490478516,0.4616157531738281
0.5428905487060547,0.4541381835937500
0.5428905487060547,0.4541381835937500
0.5414194107055664,0.4725986480712890
0.5414194107055664,0.4725986480712890
0.5287359237670898,0.4482873916625976
0.5287359237670898,0.4482873916625976
0.5510501861572266,0.4697273254394531
0.5510501861572266,0.4697273254394531
0.5274106979370117,0.4619035720825195
0.5274106979370117,0.4619035720825195
0.5449934005737305,0.4571989059448242
0.5449934005737305,0.4571989059448242
0.5446489334106445,0.4783973693847656
0.5446489334106445,0.4783973693847656
0.5325267791748046,0.4553701400756835
0.5325267791748046,0.4553701400756835
0.5566337585449218,0.4797060012817382
0.5566337585449218,0.4797060012817382
0.5333988189697265,0.4738208770751953
0.5333988189697265,0.4738208770751953
0.5529464721679688,0.4715526580810547
0.5529464721679688,0.4715526580810547
0.5537355422973632,0.4959777832031250
0.5537355422973632,0.4959777832031250
0.5433202743530273,0.4757503509521484
0.5433202743530273,0.4757503509521484
0.5689733505249023,0.5026342391967773
0.5689733505249023,0.5026342391967773
0.5463684082031249,0.4977321624755859
0.5463684082031249,0.4977321624755859
0.5657649993896484,0.4948871612548828
0.5657649993896484,0.4948871612548828
0.5653621673583984,0.5164415359497070
0.5653621673583984,0.5164415359497070
0.5536823272705078,0.4938411712646484
0.5536823272705078,0.4938411712646484
0.5761476516723633,0.5159397125244141
0.5761476516723633,0.5159397125244141
0.5541669845581054,0.5091545104980468
0.5541669845581054,0.5091545104980468
0.5697298049926758,0.5043422698974609
0.5697298049926758,0.5043422698974609
0.5698865890502930,0.5229022979736327
0.5698865890502930,0.5229022979736327
0.5583955764770507,0.5024431228637695
0.5583955764770507,0.5024431228637695
0.5778591156005859,0.5203542709350586
0.5778591156005859,0.5203542709350586
0.5582107543945313,0.5146339416503906
0.5582107543945313,0.5146339416503906
0.5705142974853515,0.5081325531005859
0.5705142974853515,0.5081325531005859
0.5718893051147461,0.5258531570434570
0.5718893051147461,0.5258531570434570
0.5607192993164062,0.5072793960571289
0.5607192993164062,0.5072793960571289
0.5793577194213867,0.5238527297973633
0.5793577194213867,0.5238527297973633
0.5616285324096679,0.5207805633544922
0.5616285324096679,0.5207805633544922
0.5738891601562500,0.5155506134033203
0.5738891601562500,0.5155506134033203
0.5761476516723633,0.5337610244750977
0.5761476516723633,0.5337610244750977
0.5648563385009765,0.5154579162597656
0.5648563385009765,0.5154579162597656
0.5837196350097656,0.5322143554687500
0.5837196350097656,0.5322143554687500
0.5654331207275390,0.5275852203369140
0.5654331207275390,0.5275852203369140
0.5776147842407227,0.5217418670654297
0.5776147842407227,0.5217418670654297
0.5787700653076172,0.5392873764038085
0.5787700653076172,0.5392873764038085
0.5675130844116211,0.5200263977050781
0.5675130844116211,0.5200263977050781
0.5866298675537109,0.5375083923339844
0.5866298675537109,0.5375083923339844
0.5678661346435546,0.5325313568115234
0.5678661346435546,0.5325313568115234
0.5789102554321289,0.5232828140258788
0.5789102554321289,0.5232828140258788
0.5774408340454101,0.5352956771850585
0.5774408340454101,0.5352956771850585
0.5614551544189453,0.5074619293212891
0.5594141006469726,0.5074619293212891
0.5753763198852538,0.5144571304321289
0.5753763198852538,0.5144571304321289
0.5517288208007812,0.5008317947387695
0.5665334701538086,0.5008317947387695
0.5589729309082031,0.4863985061645508
0.5589729309082031,0.4863985061645508
0.5571315765380859,0.4973836898803711
0.5571315765380859,0.4973836898803711
0.5430055618286133,0.4742237091064453
0.5430055618286133,0.4742237091064453
0.5594518661499023,0.4867006301879883
0.5594518661499023,0.4867006301879883
0.5396375656127930,0.4791801452636719
0.5396375656127930,0.4791801452636719
0.5497701644897460,0.4704196929931641
0.5497701644897460,0.4704196929931641
0.5508110046386718,0.4862434387207031
0.5508110046386718,0.4862434387207031
0.5384885787963867,0.4658683776855468
0.5384885787963867,0.4658683776855468
0.5580265045166015,0.4835271835327148
0.5580265045166015,0.4835271835327148
0.5386568069458008,0.4791154861450195
0.5386568069458008,0.4791154861450195
0.5526998519897460,0.4742563247680664
0.5526998519897460,0.4742563247680664
0.5544473648071289,0.4948230743408203
0.5544473648071289,0.4948230743408203
0.5439651489257812,0.4761669158935546
0.5439651489257812,0.4761669158935546
0.5664453506469727,0.4992387771606445
0.5664453506469727,0.4992387771606445
0.5466854095458984,0.4961774826049805
0.5466854095458984,0.4961774826049805
0.5641376495361328,0.4938875198364258
0.5641376495361328,0.4938875198364258
0.5649587631225585,0.5151884078979492
0.5649587631225585,0.5151884078979492
0.5536188125610352,0.4937164306640625
0.5536188125610352,0.4937164306640625
0.5759851455688476,0.5162401199340820
0.5759851455688476,0.5162401199340820
0.5540897369384765,0.5103458404541016
0.5540897369384765,0.5103458404541016
0.5717445373535156,0.5076930999755859
0.5717445373535156,0.5076930999755859
0.5723997116088867,0.5299221038818359
0.5723997116088867,0.5299221038818359
0.5618631362915039,0.5097833633422851
0.5618631362915039,0.5097833633422851
0.5855186462402343,0.5346754074096679
0.5855186462402343,0.5346754074096679
0.5636930465698242,0.5293567657470702
0.5636930465698242,0.5293567657470702
0.5661031723022460,0.5214071273803711
0.5661031723022460,0.5258703231811523
0.5898725509643554,0.5380828857421874
0.5699472427368164,0.5380828857421874
0.5762500762939453,0.5468570709228515
0.5762500762939453,0.5468570709228515
0.5785909652709961,0.5291130065917968
0.5785909652709961,0.5291130065917968
0.5913991928100586,0.5528841018676758
0.5913991928100586,0.5528841018676758
0.5711265563964844,0.5336374282836914
0.5711265563964844,0.5336374282836914
0.5913505554199219,0.5412094116210937
0.5913505554199219,0.5412094116210937
0.5776010513305664,0.5463483810424804
0.5776010513305664,0.5463483810424804
0.5774253845214844,0.5270822525024413
0.5774253845214844,0.5270822525024413
0.5884986877441406,0.5471826553344726
0.5884986877441406,0.5471826553344726
0.5681905746459961,0.5271989822387695
0.5681905746459961,0.5271989822387695
0.5866601943969726,0.5334897994995117
0.5866601943969726,0.5334897994995117
0.5732946395874023,0.5381555557250977
0.5732946395874023,0.5381555557250977
0.5737632751464844,0.5201940536499023
0.5737632751464844,0.5201940536499023
0.5845813751220703,0.5402606964111328
0.5845813751220703,0.5402606964111328
0.5633096694946289,0.5167213439941406
0.5633096694946289,0.5167213439941406
0.5773218154907226,0.5135152816772460
0.5773218154907226,0.5135152816772460
0.5569324493408203,0.5047502517700195
0.5569324493408203,0.5047502517700195
0.5496894836425781,0.4727594375610351
0.5496894836425781,0.4727594375610351
0.5538236618041992,0.4814649581909179
0.5538236618041992,0.4814649581909179
0.5303129196166992,0.4563709259033203
0.5303129196166992,0.4563709259033203
0.5461881637573242,0.4590877532958984
0.5461881637573242,0.4590877532958984
0.5325365066528320,0.4626262664794922
0.5488969802856445,0.4626262664794922
0.5318567276000976,0.4431455612182617
0.5318567276000976,0.4431455612182617
0.5422805786132813,0.4622920989990234
0.5422805786132813,0.4622920989990234
0.5228639602661133,0.4435981750488281
0.5228639602661133,0.4435981750488281
0.5417055130004883,0.4510677337646484
0.5417055130004883,0.4510677337646484
0.5298385620117188,0.4574054718017578
0.5298385620117188,0.4574054718017578
0.5307621002197266,0.4405162811279297
0.5307621002197266,0.4405162811279297
0.5421741485595702,0.4610492706298828
0.5421741485595702,0.4610492706298828
0.5245239257812500,0.4455356597900391
0.5245239257812500,0.4455356597900391
0.5426925659179688,0.4525548934936523
0.5426925659179688,0.4525548934936523
0.5330715179443359,0.4610670089721680
0.5330715179443359,0.4610670089721680
0.5333593368530273,0.4459671020507812
0.5333593368530273,0.4459671020507812
0.5462465286254883,0.4682556152343750
0.5462465286254883,0.4682556152343750
0.5298837661743164,0.4556379318237305
0.5298837661743164,0.4556379318237305
0.5494920730590820,0.4653184890747070
0.5494920730590820,0.4653184890747070
0.5412609100341796,0.4765462875366211
0.5412609100341796,0.4765462875366211
0.5428281784057617,0.4641002655029297
0.5428281784057617,0.4641002655029297
0.5573307037353515,0.4886301040649414
0.5573307037353515,0.4886301040649414
0.5421581268310547,0.4781415939331055
0.5421581268310547,0.4781415939331055
0.5628530502319335,0.4903787612915039
0.5628530502319335,0.4903787612915039
0.5556953430175781,0.5035446166992187
0.5556953430175781,0.5035446166992187
0.5586215972900390,0.4928169250488281
0.5586215972900390,0.4928169250488281
0.5734359741210937,0.5197334289550781
0.5754878997802734,0.5197334289550781
0.5583875656127929,0.5086635589599610
0.5583875656127929,0.5086635589599610
0.5797960281372070,0.5210575103759766
0.5797960281372070,0.5210575103759766
0.5703008651733398,0.5317073822021484
0.5703008651733398,0.5317073822021484
0.5727024078369141,0.5178211212158202
0.5727024078369141,0.5178211212158202
0.5859403610229492,0.5419664382934570
0.5859403610229492,0.5419664382934570
0.5677030563354492,0.5264127731323242
0.5677030563354492,0.5264127731323242
0.5905019760131835,0.5393194198608399
0.5905019760131835,0.5393194198608399
0.5790338516235352,0.5502611160278320
0.5790338516235352,0.5502611160278320
0.5830101013183594,0.5364675521850586
0.5830101013183594,0.5364675521850586
0.5970582962036133,0.5632953643798828
0.5970582962036133,0.5632953643798828
0.5771146774291992,0.5443817138671875
0.5771146774291992,0.5443817138671875
0.6004034042358398,0.5561353683471679
0.6004034042358398,0.5561353683471679
0.5848348617553710,0.5623558044433593
0.5848348617553710,0.5623558044433593
0.5870527267456055,0.5423984527587891
0.5870527267456055,0.5423984527587891
0.5989803314208985,0.5655744552612304
0.5989803314208985,0.5655744552612304
0.5755445480346679,0.5410566329956055
0.5755445480346679,0.5410566329956055
0.5980093002319335,0.5501461029052734
0.5980093002319335,0.5501461029052734
0.5799654006958007,0.5538871765136718
0.5799654006958007,0.5538871765136718
0.5811218261718750,0.5300594329833984
0.5811218261718750,0.5300594329833984
0.5909877777099609,0.5494857788085937
0.5909877777099609,0.5494857788085937
0.5622699737548827,0.5140989303588867
0.5622699737548827,0.5140989303588867
0.5781234741210938,0.5098583221435546
0.5781234741210938,0.5098583221435546
0.5531032562255859,0.5012266159057617
0.5531032562255859,0.5012266159057617
0.5481382369995117,0.4673120498657226
0.5481382369995117,0.4673120498657226
0.5545406341552734,0.4821561813354492
0.5545406341552734,0.4821561813354492
0.5270805358886719,0.4516159057617187
0.5270805358886719,0.4516159057617187
0.5482990264892578,0.4590465545654296
0.5482990264892578,0.4590465545654296
0.5477600097656250,0.4672611236572266
0.5477600097656250,0.4632184982299805
0.5341272354125977,0.4401100158691406
0.5322498321533203,0.4414392471313476
0.5369493484497070,0.4651176452636718
0.5492317199707031,0.4570924758911132
0.5442083358764648,0.4528667449951171
0.5496997833251953,0.4595031738281250
0.5496997833251953,0.4595031738281250
0.5324649810791016,0.4424589157104492
0.5196086883544921,0.4424589157104492
0.5440567016601562,0.4645568847656250
0.5440567016601562,0.4645568847656250
0.5249942779541016,0.4467304229736328
0.5249942779541016,0.4467304229736328
0.5448686599731445,0.4556247711181640
0.5448686599731445,0.4556247711181640
0.5343675613403320,0.4636064529418945
0.5343675613403320,0.4636064529418945
0.5345523834228515,0.4481100082397461
0.5345523834228515,0.4481100082397461
0.5469949722290038,0.4693880081176758
0.5469949722290038,0.4693880081176758
0.5297315597534179,0.4546566009521484
0.5297315597534179,0.4546566009521484
0.5483264923095703,0.4628448486328125
0.5483264923095703,0.4628448486328125
0.5389366149902344,0.4717569351196289
0.5389366149902344,0.4717569351196289
0.5394218444824218,0.4563995361328125
0.5394218444824218,0.4563995361328125
0.5518924713134765,0.4780345916748047
0.5518924713134765,0.4780345916748047
0.5344562530517578,0.4630914688110351
0.5344562530517578,0.4630914688110351
0.5534265518188476,0.4716527938842773
0.5534265518188476,0.4716527938842773
0.5431892395019531,0.4804853439331054
0.5431892395019531,0.4804853439331054
0.5439863204956055,0.4641740798950195
0.5439863204956055,0.4641740798950195
0.5569101333618164,0.4869123458862304
0.5569101333618164,0.4869123458862304
0.5379570007324218,0.4699911117553711
0.5379570007324218,0.4699911117553711
0.5586948394775391,0.4797420501708984
0.5586948394775391,0.4797420501708984
0.5469692230224609,0.4886678695678711
0.5469692230224609,0.4886678695678711
0.5489353179931641,0.4731101989746094
0.5489353179931641,0.4731101989746094
0.5627580642700195,0.4986024856567383
0.5627580642700195,0.4986024856567383
0.5440246582031250,0.4821521759033203
0.5440246582031250,0.4821521759033203
0.5673940658569335,0.4963308334350586
0.5673940658569335,0.4963308334350586
0.5557725906372070,0.5073286056518554
0.5557725906372070,0.5073286056518554
0.5602014541625976,0.4941410064697265
0.5602014541625976,0.4941410064697265
0.5752813339233398,0.5231088638305664
0.5752813339233398,0.5231088638305664
0.5578365325927734,0.5086429595947265
0.5578365325927734,0.5086429595947265
0.5818656921386719,0.5238744735717773
0.5818656921386719,0.5238744735717773
0.5707717895507812,0.5360166549682617
0.5707717895507812,0.5360166549682617
0.5753620147705077,0.5220891952514648
0.5753620147705077,0.5220891952514648
0.5901037216186523,0.5505884170532226
0.5901037216186523,0.5505884170532226
0.5711254119873047,0.5341117858886718
0.5711254119873047,0.5341117858886718
0.5963258743286133,0.5497232437133789
0.5963258743286133,0.5497232437133789
0.5834873199462890,0.5612760543823242
0.5834873199462890,0.5612760543823242
0.5888528823852539,0.5471076965332031
0.5888528823852539,0.5471076965332031
0.6028902053833007,0.5732025146484375
0.6028902053833007,0.5732025146484375
0.5789257049560547,0.5457132339477538
0.5789257049560547,0.5457132339477538
0.5964603424072266,0.5445602416992187
0.5964603424072266,0.5445602416992187
0.5715677261352539,0.5344888687133789
0.5715677261352539,0.5344888687133789
0.5650972366333008,0.4971782684326171
0.5650972366333008,0.4971782684326171
0.5689888000488281,0.5070608139038085
0.5689888000488281,0.5070608139038085
0.5391111373901367,0.4716945648193359
0.5391111373901367,0.4716945648193359
0.5580631256103515,0.4751712799072265
0.5580631256103515,0.4751712799072265
0.5376646041870117,0.4758104324340820
0.5376646041870117,0.4758104324340820
0.5386419296264648,0.4521274566650391
0.5386419296264648,0.4521274566650391
0.5499172210693359,0.4753761291503906
0.5499172210693359,0.4753761291503906
0.5256368637084960,0.4500675201416016
0.5256368637084960,0.4500675201416016
0.5497180938720703,0.4612878799438476
0.5262971878051758,0.4612878799438476
0.5327047348022461,0.4673057556152344
0.5327047348022461,0.4673057556152344
0.5362844467163086,0.4485511779785156
0.5362844467163086,0.4485511779785156
0.5493593215942383,0.4747495651245117
0.5493593215942383,0.4747495651245117
0.5282375335693359,0.4537588119506836
0.5282375335693359,0.4537588119506836
0.5525659561157227,0.4678150177001953
0.5525659561157227,0.4678150177001953
0.5387071609497071,0.4762092590332031
0.5387071609497071,0.4762092590332031
0.5428390502929688,0.4611654281616211
0.5428390502929688,0.4611654281616211
0.5563716888427734,0.4878221511840820
0.5563716888427734,0.4878221511840820
0.5385915756225585,0.4718421936035156
0.5385915756225585,0.4718421936035156
0.5608354568481445,0.4849330902099609
0.5608354568481445,0.4849330902099609
0.5504951477050781,0.4952596664428711
0.5504951477050781,0.4952596664428711
0.5541790008544921,0.4826808929443359
0.5541790008544921,0.4826808929443359
0.5671829223632813,0.5078092575073242
0.5671829223632813,0.5078092575073242
0.5503555297851562,0.4930887222290039
0.5503555297851562,0.4930887222290039
0.5717897415161133,0.5055965423583985
0.5717897415161133,0.5055965423583985
0.5611038208007812,0.5146631240844727
0.5611038208007812,0.5146631240844727
0.5639545440673828,0.5008358001708985
0.5639545440673828,0.5008358001708985
0.5761053085327148,0.5244237899780273
0.5761053085327148,0.5244237899780273
0.5586267471313476,0.5081502914428710
0.5586267471313476,0.5081502914428710
0.5787300109863281,0.5187274932861328
0.5787300109863281,0.5187274932861328
0.5671497344970703,0.5254171371459960
0.5671497344970703,0.5254171371459960
0.5689607620239258,0.5099550247192383
0.5689607620239258,0.5099550247192383
0.5800214767456054,0.5317308425903320
0.5800214767456054,0.5317308425903320
0.5752658843994141,0.5334548950195312
0.5869440078735352,0.5334548950195312
0.5655693054199219,0.5140233993530273
0.5655693054199219,0.5140233993530273
0.5846694946289063,0.5338571548461913
0.5846694946289063,0.5338571548461913
0.5657684326171875,0.5276578903198242
0.5657684326171875,0.5276578903198242
0.5800363540649414,0.5243659973144531
0.5800363540649414,0.5243659973144531
0.5796867370605469,0.5420053482055663
0.5796867370605469,0.5420053482055663
0.5699707031250000,0.5226036071777344
0.5699707031250000,0.5226036071777344
0.5889627456665039,0.5420774459838867
0.5889627456665039,0.5420774459838867
0.5696508407592773,0.5352006912231445
0.5696508407592773,0.5352006912231445
0.5837013244628906,0.5315649032592773
0.5837013244628906,0.5315649032592773
0.5825254440307617,0.5464868545532227
0.5825254440307617,0.5464868545532227
0.5694986343383789,0.5196985244750977
0.5694986343383789,0.5196985244750977
0.5811149597167968,0.5243379592895507
0.5811149597167968,0.5243379592895507
0.5526105880737304,0.4990207672119140
0.5526105880737304,0.4990207672119140
0.5559619903564453,0.4774332046508789
0.5559619903564453,0.4774332046508789
0.5479545593261719,0.4817287445068359
0.5479545593261719,0.4817287445068359
0.5331247329711913,0.4542989730834961
0.5331247329711913,0.4542989730834961
0.5488317489624023,0.4686275482177734
0.5488317489624023,0.4686275482177734
0.5279485702514648,0.4586500167846679
0.5279485702514648,0.4586500167846679
0.5404895782470703,0.4521514892578125
0.5404895782470703,0.4521514892578125
0.5387752532958984,0.4673097610473633
0.5387752532958984,0.4673097610473633
0.5284029006958008,0.4460374832153320
0.5284029006958008,0.4460374832153320
0.5466756820678711,0.4639205932617188
0.5466756820678711,0.4639205932617188
0.5269517898559570,0.4559400558471680
0.5269517898559570,0.4559400558471680
0.5401977539062500,0.4511175155639648
0.5401977539062500,0.4511175155639648
0.5397010803222656,0.4675638198852539
0.5397010803222656,0.4675638198852539
0.5293470382690429,0.4471195220947266
0.5293470382690429,0.4471195220947266
0.5491115570068359,0.4676759719848633
0.5491115570068359,0.4676759719848633
0.5288681030273438,0.4603792190551758
0.5264739990234375,0.4575113296508789
0.5442987442016601,0.4771574020385742
0.5442987442016601,0.4771574020385742
0.5349014282226562,0.4575159072875976
0.5349014282226562,0.4575159072875976
0.5568912506103515,0.4815147399902344
0.5568912506103515,0.4815147399902344
0.5365127563476563,0.4756513595581054
0.5365127563476563,0.4756513595581054
0.5545475006103515,0.4748096466064453
0.5545475006103515,0.4748096466064453
0.5543809890747070,0.4963743209838867
0.5543809890747070,0.4963743209838867
0.5450557708740235,0.4755455017089844
0.5450557708740235,0.4755455017089844
0.5670175552368164,0.4992816925048828
0.5670175552368164,0.4992816925048828
0.5446638107299805,0.4905864715576171
0.5446638107299805,0.4905864715576171
0.5621458053588867,0.4876499176025391
0.5621458053588867,0.4876499176025391
0.5605264663696289,0.5073434829711914
0.5605264663696289,0.5073434829711914
0.5500511169433594,0.4848192214965820
0.5500511169433594,0.4848192214965820
0.5721393585205078,0.5082887649536133
0.5721393585205078,0.5082887649536133
0.5492414474487305,0.4994396209716797
0.5492414474487305,0.4994396209716797
0.5671176910400391,0.4969968795776367
0.5671176910400391,0.4969968795776367
0.5656860351562499,0.5173004150390624
0.5656860351562499,0.5173004150390624
0.5552793502807617,0.4944986343383789
0.5552793502807617,0.4944986343383789
0.5772903442382812,0.5184259414672852
0.5772903442382812,0.5184259414672852
0.5557399749755859,0.5109254837036132
0.5557399749755859,0.5109254837036132
0.5729238510131835,0.5090103149414062
0.5729238510131835,0.5090103149414062
0.5726394653320312,0.5292228698730469
0.5726394653320312,0.5292228698730469
0.5633468627929688,0.5101999282836914
0.5633468627929688,0.5101999282836914
0.5842546463012696,0.5326292037963867
0.5842546463012696,0.5326292037963867
0.5657924652099610,0.5279319763183593
0.5657924652099610,0.5279319763183593
0.5816974639892578,0.5276670455932617
0.5816974639892578,0.5276670455932617
0.5825214385986328,0.5474773406982422
0.5825214385986328,0.5474773406982422
0.5742450714111328,0.5309429168701172
0.5742450714111328,0.5309429168701172
0.5946475982666015,0.5535083770751953
0.5946475982666015,0.5535083770751953
0.5771587371826171,0.5489210128784180
0.5771587371826171,0.5489210128784180
0.5909603118896484,0.5442924499511719
0.5909603118896484,0.5442924499511719
0.5864925384521484,0.5517436981201171
0.5864925384521484,0.5517436981201171
0.5678318023681640,0.5134323120117187
0.5678318023681640,0.5134323120117187
0.5744853973388672,0.5104934692382812
0.5744853973388672,0.5104934692382812
0.5430370330810547,0.4820886611938476
0.5430370330810547,0.4820886611938476
0.5481754302978515,0.4636098861694335
0.5481754302978515,0.4636098861694335
0.5412803649902344,0.4716482162475586
0.5412803649902344,0.4716482162475586
0.5286478042602539,0.4466920852661133
0.5286478042602539,0.4466920852661133
0.5459535598754882,0.4637203216552734
0.5459535598754882,0.4637203216552734
0.5251476287841796,0.4536518096923828
0.5251476287841796,0.4536518096923828
0.5387540817260742,0.4487125396728516
0.5387540817260742,0.4487125396728516
0.5367902755737305,0.4640510559082031
0.5367902755737305,0.4640510559082031
0.5267097473144531,0.4429510116577148
0.5267097473144531,0.4429510116577148
0.5454780578613281,0.4622594833374023
0.5454780578613281,0.4622594833374023
0.5258537292480469,0.4541822433471679
0.5258537292480469,0.4541822433471679
0.5402263641357422,0.4511981964111328
0.5402263641357422,0.4511981964111328
0.5396524429321289,0.4686573028564453
0.5396524429321289,0.4686573028564453
0.5307317733764648,0.4498546600341797
0.5307317733764648,0.4498546600341797
0.5501340866088867,0.4706783294677734
0.5501340866088867,0.4706783294677734
0.5321187973022461,0.4655399322509766
0.5321187973022461,0.4655399322509766
0.5471986770629883,0.4645219802856445
0.5471986770629883,0.4645219802856445
0.5482944488525391,0.4848037719726562
0.5482944488525391,0.4848037719726562
0.5410245895385742,0.4689926147460937
0.5410245895385742,0.4689926147460937
0.5622001647949219,0.4927808761596679
0.5622001647949219,0.4927808761596679
0.5453739166259766,0.4902248382568359
0.5453739166259766,0.4902248382568359
0.5619609832763671,0.4913984298706054
0.5619609832763671,0.4913984298706054
0.5635316848754882,0.5126163482666015
0.5635316848754882,0.5126163482666015
0.5560598373413086,0.4965625762939453
0.5560598373413086,0.4965625762939453
0.5764108657836914,0.5187458038330078
0.5764108657836914,0.5187458038330078
0.5583595275878906,0.5129539489746093
0.5583595275878906,0.5129539489746093
0.5731229782104492,0.5101129531860351
0.5731229782104492,0.5101129531860351
0.5721233367919921,0.5278839111328125
0.5721233367919921,0.5278839111328125
0.5616743087768554,0.5060640335083008
0.5616743087768554,0.5060640335083008
0.5816791534423827,0.5267532348632812
0.5816791534423827,0.5267532348632812
0.5603839874267578,0.5177867889404296
0.5603839874267578,0.5177867889404296
0.5758432388305664,0.5136537551879883
0.5758432388305664,0.5136537551879883
0.5738096237182617,0.5316003799438477
0.5738096237182617,0.5316003799438477
0.5632976531982422,0.5091442108154297
0.5632976531982422,0.5091442108154297
0.5840166091918945,0.5311677932739257
0.5840166091918945,0.5311677932739257
0.5621252059936523,0.5223724365234375
0.5837717056274414,0.5223724365234375
0.5783031463623046,0.5187784194946289
0.5783031463623046,0.5187784194946289
0.5766391754150391,0.5375352859497070
0.5766391754150391,0.5375352859497070
0.5663251876831055,0.5158166885375977
0.5663251876831055,0.5158166885375977
0.5873554229736327,0.5383827209472656
0.5873554229736327,0.5383827209472656
0.5665718078613281,0.5307329177856445
0.5665718078613281,0.5307329177856445
0.5824241638183594,0.5280944824218750
0.5824241638183594,0.5280944824218750
0.5818078994750976,0.5468650817871094
0.5818078994750976,0.5468650817871094
0.5718904495239258,0.5263212203979492
0.5718904495239258,0.5263212203979492
0.5904802322387696,0.5438861846923828
0.5904802322387696,0.5438861846923828
0.5671628952026367,0.5277986526489258
0.5671628952026367,0.5277986526489258
0.5739246368408203,0.5096357345581054
0.5739246368408203,0.5096357345581054
0.5634046554565429,0.5084747314453125
0.5634046554565429,0.5084747314453125
0.5440572738647461,0.4711767196655273
0.5440572738647461,0.4711767196655273
0.5546373367309571,0.4773193359375000
0.5546373367309571,0.4773193359375000
0.5299947738647460,0.4612627029418945
0.5299947738647460,0.4612627029418945
0.5409393310546875,0.4529331207275391
0.5409393310546875,0.4529331207275391
0.5378053665161132,0.4662174224853515
0.5378053665161132,0.4662174224853515
0.5269769668579102,0.4438619613647461
0.5269769668579102,0.4438619613647461
0.5448228836059570,0.4617982864379883
0.5448228836059570,0.4617982864379883
0.5247940063476563,0.4525348663330078
0.5247940063476563,0.4525348663330078
0.5382602691650390,0.4485420227050781
0.5382602691650390,0.4485420227050781
0.5370723724365234,0.4648859024047851
0.5370723724365234,0.4648859024047851
0.5278438568115235,0.4450567245483398
0.5278438568115235,0.4450567245483398
0.5469091415405273,0.4653923034667968
0.5469091415405273,0.4653923034667968
0.5282209396362304,0.4583873748779297
0.5282209396362304,0.4583873748779297
0.5429878234863281,0.4566890716552734
