REDsignal,IRsignal
0.3086168289184570,0.2442455291748047
0.3086168289184570,0.2442455291748047
0.3064023971557617,0.2498302459716797
0.3108352661132812,0.2498302459716797
0.3058330535888672,0.2444812774658203
0.3051939010620117,0.2444812774658203
0.3126743316650391,0.2528944015502930
0.3126743316650391,0.2528944015502930
0.3070552825927734,0.2498891830444336
0.3070552825927734,0.2498891830444336
0.3142049789428711,0.2526918411254883
0.3142049789428711,0.2526918411254883
0.3126663208007812,0.2590816497802734
0.3126663208007812,0.2590816497802734
0.3125667572021484,0.2544107437133789
0.3125667572021484,0.2544107437133789
0.3195396423339844,0.2631179809570313
0.3169870376586914,0.2631179809570313
0.3138393402099609,0.2600154876708984
0.3206291198730469,0.2600154876708984
0.3209009170532227,0.2620548248291015
0.3151639938354492,0.2620548248291015
0.3187671661376953,0.2679027557373047
0.3231788635253906,0.2679027557373047
0.3178968429565430,0.2619747161865234
0.3170162200927734,0.2619747161865234
0.3240571975708008,0.2695077896118164
0.3240571975708008,0.2695077896118164
0.3173629760742188,0.2648677825927734
0.3235456466674805,0.2648677825927734
0.3234781265258789,0.2658531188964844
0.3173171997070313,0.2658531188964844
0.3204734802246094,0.2701154708862304
0.3244382858276367,0.2701154708862304
0.3189142227172851,0.2632976531982422
0.3176548004150391,0.2632976531982422
0.3244989395141601,0.2699701309204102
0.3212888717651367,0.2699701309204102
0.3175317764282227,0.2648431777954102
0.3235216140747070,0.2648431777954102
0.3234558105468750,0.2656751632690429
0.3234558105468750,0.2656751632690429
0.3204465866088867,0.2701011657714844
0.3245103836059570,0.2701011657714844
0.3190269470214844,0.2635047912597656
0.3179718017578125,0.2635047912597656
0.3248691558837891,0.2706201553344726
0.3248691558837891,0.2706201553344726
0.3182458877563477,0.2658742904663086
0.3243307113647461,0.2658742904663086
0.3244256973266602,0.2673522949218750
0.3184015274047852,0.2673522949218750
0.3217786788940429,0.2721771240234375
0.3217786788940429,0.2721771240234375
0.3207241058349609,0.2661317825317382
0.3197376251220703,0.2661317825317382
0.3269044876098633,0.2737220764160156
0.3239690780639649,0.2737220764160156
0.3262115478515625,0.2756315231323242
0.3262115478515625,0.2756315231323242
0.3288053512573242,0.2753248214721680
0.3288053512573242,0.2754032135009766
0.3236200332641602,0.2707111358642578
0.3237195968627929,0.2707180023193359
0.3235805511474609,0.2744247436523438
0.3235805511474609,0.2743492126464844
0.3300350189208984,0.2762117385864258
0.3242597579956055,0.2762117385864258
0.3277215957641602,0.2814577102661133
0.3277215957641602,0.2814577102661133
0.3268821716308594,0.2756687164306640
0.3258636474609375,0.2756687164306640
0.3330831527709961,0.2835697174072265
0.3302804946899414,0.2835697174072265
0.3267757415771484,0.2794034957885742
0.3267757415771484,0.2794034957885742
0.3333864212036133,0.2814136505126953
0.3275573730468750,0.2814136505126953
0.3309957504272461,0.2867757797241211
0.3354560852050781,0.2867757797241211
0.3302936553955078,0.2811441421508789
0.3293237686157227,0.2811441421508789
0.3366468429565430,0.2892139434814453
0.3338499069213867,0.2892139434814453
0.3304447174072265,0.2851816177368164
0.3367040634155273,0.2851816177368164
0.3369638442993164,0.2873491287231445
0.3311857223510742,0.2873491287231445
0.3346406936645508,0.2924818038940429
0.3390644073486328,0.2924818038940429
0.3336290359497070,0.2862173080444336
0.3322242736816406,0.2862173080444336
0.3389528274536133,0.2923685073852539
0.3353467941284179,0.2923685073852539
0.3307748794555664,0.2846351623535156
0.3353576660156250,0.2846351623535156
0.3338510513305664,0.2808156967163086
0.3256135940551758,0.2808156967163086
0.3264690399169922,0.2781738281250000
0.3280271530151367,0.2781738281250000
0.3200529098510742,0.2636758804321289
0.3159507751464843,0.2636758804321289
0.3202177047729492,0.2629600524902344
0.3145912170410156,0.2629600524902344
0.3088045120239258,0.2514266967773438
0.3128402709960937,0.2514266967773438
0.3113525390625000,0.2481782913208008
0.3039773941040039,0.2481782913208008
0.3061082839965820,0.2493970870971680
0.3095060348510742,0.2493970870971680
0.3035224914550781,0.2410022735595703
0.3016302108764649,0.2410022735595703
0.3083410263061523,0.2469177246093750
0.3083410263061523,0.2469177246093750
0.3011392593383789,0.2413021087646484
0.3069265365600586,0.2413021087646484
0.3070095062255859,0.2424762725830078
0.3009784698486328,0.2424762725830078
0.3041404724121093,0.2467506408691406
0.3084577560424804,0.2467506408691406
0.3032100677490234,0.2404489517211914
0.3020685195922851,0.2404489517211914
0.3091587066650390,0.2480340957641601
0.3062604904174804,0.2480340957641601
0.3027849197387695,0.2434312820434570
0.3089275360107422,0.2434312820434570
0.3040254592895508,0.2434833526611328
0.3040254592895508,0.2434833526611328
0.3118251800537109,0.2503875732421875
0.3118251800537109,0.2503875732421875
0.3063428878784180,0.2515691757202148
0.3063428878784180,0.2515691757202148
0.3113496780395508,0.2497117996215820
0.3113496780395508,0.2497117996215820
0.3143005371093750,0.2583927154541015
0.3155639648437500,0.2583927154541015
0.3105686187744141,0.2530809402465820
0.3105686187744141,0.2530809402465820
0.3188621520996094,0.2607645034790039
0.3188621520996094,0.2607645034790039
0.3136791229248047,0.2621950149536132
0.3136791229248047,0.2621950149536132
0.3186664581298828,0.2604183197021484
0.3186664581298828,0.2604183197021484
0.3214181900024414,0.2686569213867188
0.3214181900024414,0.2686569213867188
0.3170831680297851,0.2625761032104492
0.3170831680297851,0.2625761032104492
0.3247947692871094,0.2692268371582031
0.3247947692871094,0.2692268371582031
0.3187042236328125,0.2694768905639648
0.3187042236328125,0.2694768905639648
0.3228281021118164,0.2662965774536133
0.3228281021118164,0.2662965774536133
0.3246162414550781,0.2731859207153320
0.3246162414550781,0.2731859207153320
0.3194486618041992,0.2657587051391602
0.3194486618041992,0.2657587051391602
0.3263225555419922,0.2713348388671875
0.3263225555419922,0.2713348388671875
0.3197753906250000,0.2706756591796875
0.3197753906250000,0.2706756591796875
0.3233779907226562,0.2669374465942383
0.3233779907226562,0.2669374465942383
0.3249332427978516,0.2736013412475586
0.3249332427978516,0.2736013412475586
0.3197153091430664,0.2662044525146484
0.3197153091430664,0.2662044525146484
0.3267974853515625,0.2720558166503906
0.3267974853515625,0.2720558166503906
0.3202852249145507,0.2716827392578125
0.3202852249145507,0.2716827392578125
0.3243799209594727,0.2685573577880859
0.3243799209594727,0.2685573577880859
0.3262807846069336,0.2757116317749023
0.3262807846069336,0.2757116317749023
0.3214319229125976,0.2689178466796875
0.3214319229125976,0.2689178466796875
0.3288082122802734,0.2753808975219726
0.3288082122802734,0.2753808975219726
0.3228315353393554,0.2755880355834961
0.3228315353393554,0.2755880355834961
0.3271614074707031,0.2729455947875977
0.3271614074707031,0.2729455947875977
0.3292997360229492,0.2806428909301757
0.3292997360229492,0.2806428909301757
0.3248136520385742,0.2742685317993164
0.3248136520385742,0.2742685317993164
0.3324571609497070,0.2810903549194336
0.3324571609497070,0.2810903549194336
0.3265399932861328,0.2815034866333008
0.3265399932861328,0.2815034866333008
0.3310134887695312,0.2790704727172851
0.3310134887695312,0.2790704727172851
0.3332015991210938,0.2868101119995117
0.3332015991210938,0.2868101119995117
0.3287252426147461,0.2804918289184570
0.3287252426147461,0.2804918289184570
0.3362880706787109,0.2871271133422851
0.3362880706787109,0.2871271133422851
0.3304063796997070,0.2874052047729492
0.3304063796997070,0.2874052047729492
0.3347448348999023,0.2849658966064453
0.3347448348999023,0.2849658966064453
0.3370119094848633,0.2925498962402344
0.3370119094848633,0.2925498962402344
0.3322757720947265,0.2861389160156250
0.3322757720947265,0.2861389160156250
0.3399044036865234,0.2929121017456054
0.3399044036865234,0.2929121017456054
0.3339900970458984,0.2931907653808594
0.3339900970458984,0.2931907653808594
0.3383989334106445,0.2907136917114257
0.3383989334106445,0.2907136917114257
0.3404634475708008,0.2983749389648437
0.3404634475708008,0.2983749389648437
0.3359779357910156,0.2919404983520508
0.3359779357910156,0.2919404983520508
0.3434669494628906,0.2987812042236328
0.3434669494628906,0.2987812042236328
0.3374582290649414,0.2986867904663086
0.3374582290649414,0.2986867904663086
0.3417142868041992,0.2958492279052734
0.3417142868041992,0.2958492279052734
0.3430120468139649,0.3018865585327148
0.3430120468139649,0.3018865585327148
0.3368860244750976,0.2925567626953125
0.3368860244750976,0.2925567626953125
0.3414030075073242,0.2941915512084961
0.3414030075073242,0.2941915512084961
0.3311113357543945,0.2869485855102539
0.3311113357543945,0.2869485855102539
0.3298404693603516,0.2754758834838867
0.3298404693603516,0.2754758834838867
0.3256553649902343,0.2736293792724609
0.3256553649902343,0.2736293792724609
0.3149648666381836,0.2580408096313476
0.3149648666381836,0.2580408096313476
0.3171878814697265,0.2573558807373047
0.3171878814697265,0.2573558807373047
0.3071399688720703,0.2517700195312500
0.3071399688720703,0.2517700195312500
0.3088308334350586,0.2457263946533203
0.3088308334350586,0.2457263946533203
0.3090442657470703,0.2507944107055664
0.3090442657470703,0.2507944107055664
0.3033622741699218,0.2426124572753906
0.3033622741699218,0.2426124572753906
0.3102470397949219,0.2483299255371094
0.3102470397949219,0.2483299255371094
0.3037897109985351,0.2475111007690430
0.3037897109985351,0.2475111007690430
0.3079679489135742,0.2446855545043945
0.3079679489135742,0.2446855545043945
0.3099111557006836,0.2519720077514648
0.3099111557006836,0.2519720077514648
0.3054491043090820,0.2454517364501953
0.3054491043090820,0.2454517364501953
0.3131355285644531,0.2524995803833008
0.3131355285644531,0.2524995803833008
0.3076492309570312,0.2529762268066406
0.3076492309570312,0.2529762268066406
0.3126823425292969,0.2516235351562500
0.3126823425292969,0.2516235351562500
0.3154838562011719,0.2602804183959961
0.3154838562011719,0.2602804183959961
0.3118835449218750,0.2550830841064453
0.3118835449218750,0.2550830841064453
0.3204265594482422,0.2632976531982422
0.3204265594482422,0.2632976531982422
0.3154695510864258,0.2644947052001953
0.3154695510864258,0.2644947052001953
0.3208539962768555,0.2634670257568359
0.3208539962768555,0.2634670257568359
0.3235256195068359,0.2722618103027344
0.3235256195068359,0.2722618103027344
0.3198371887207031,0.2666221618652344
0.3198371887207031,0.2666221618652344
0.3277799606323242,0.2740447998046875
0.3277799606323242,0.2740447998046875
0.3221614837646484,0.2742267608642578
0.3221614837646484,0.2742267608642578
0.3266395568847656,0.2719945907592773
0.3266395568847656,0.2719945907592773
0.3283315658569336,0.2791625976562500
0.3283315658569336,0.2791625976562500
0.3236640930175781,0.2720220565795898
0.3236640930175781,0.2720220565795898
0.3306730270385742,0.2779987335205078
0.3306730270385742,0.2779987335205078
0.3239925384521484,0.2766620635986328
0.3239925384521484,0.2766620635986328
0.3277616500854492,0.2733655929565429
0.3277616500854492,0.2733655929565429
0.3289867401123047,0.2797805786132813
0.3289867401123047,0.2797805786132813
0.3238677978515625,0.2722589492797852
0.3238677978515625,0.2722589492797852
0.3307365417480468,0.2781183242797852
0.3307365417480468,0.2781183242797852
0.3241401672363281,0.2767971038818359
0.3241401672363281,0.2767971038818359
0.3281124114990234,0.2738674163818359
0.3281124114990234,0.2738674163818359
0.3294616699218750,0.2806022644042969
0.3294616699218750,0.2806022644042969
0.3246814727783203,0.2735366821289062
0.3246814727783203,0.2735366821289062
0.3319004058837891,0.2798189163208007
0.3319004058837891,0.2798189163208007
0.3255266189575195,0.2791185379028320
0.3255266189575195,0.2791185379028320
0.3298381805419922,0.2767021179199219
0.3298381805419922,0.2767021179199219
0.3315021514892578,0.2839656829833984
0.3315021514892578,0.2839656829833984
0.3270000457763672,0.2773206710815430
0.3270000457763672,0.2773206710815430
0.3341840744018554,0.2838180541992187
0.3341840744018554,0.2838180541992187
0.3280551910400391,0.2831388473510742
0.3280551910400391,0.2831388473510742
0.3324926376342773,0.2810010910034180
0.3324926376342773,0.2810010910034180
0.3342819213867188,0.2883167266845703
0.3342819213867188,0.2883167266845703
0.3297317504882812,0.2817358016967773
0.3297317504882812,0.2817358016967773
0.3372482299804687,0.2885587692260742
0.3372482299804687,0.2885587692260742
0.3310609817504883,0.2878377914428711
0.3310609817504883,0.2878377914428711
0.3354469299316406,0.2856782913208007
0.3354469299316406,0.2856782913208007
0.3371864318847656,0.2930276870727539
0.3371864318847656,0.2930276870727539
0.3327644348144531,0.2865039825439453
0.3327644348144531,0.2865039825439453
0.3402225494384766,0.2933057785034179
0.3402225494384766,0.2933057785034179
0.3340690612792969,0.2926380157470703
0.3414173126220703,0.2926380157470703
0.3385196685791015,0.2905511856079102
0.3385196685791015,0.2905511856079102
0.3402299880981445,0.2979017257690429
0.3402299880981445,0.2979017257690429
0.3357925415039062,0.2913694381713867
0.3357925415039062,0.2913694381713867
0.3433078765869140,0.2980979919433593
0.3433078765869140,0.2980979919433593
0.3369993209838867,0.2972270965576172
0.3369993209838867,0.2972270965576172
0.3410390853881836,0.2943294525146484
0.3410390853881836,0.2943294525146484
0.3416662216186523,0.2996858596801757
0.3416662216186523,0.2996858596801757
0.3351671218872070,0.2893398284912109
0.3351671218872070,0.2893398284912109
0.3390403747558594,0.2901517868041992
0.3316646575927734,0.2901517868041992
0.3278217315673828,0.2811155319213867
0.3278217315673828,0.2811155319213867
0.3264192581176757,0.2700851440429687
0.3264192581176757,0.2700851440429687
0.3219137191772461,0.2682220458984375
0.3219137191772461,0.2682220458984375
0.3118818283081055,0.2535982131958008
0.3118818283081055,0.2535982131958008
0.3148778915405273,0.2543661117553711
0.3148778915405273,0.2543661117553711
0.3055315017700195,0.2493101119995117
0.3055315017700195,0.2493101119995117
0.3079267501831054,0.2443468093872070
0.3079267501831054,0.2443468093872070
0.3080812454223633,0.2496059417724609
0.3080812454223633,0.2496059417724609
0.3029005050659180,0.2417135238647461
0.3029005050659180,0.2417135238647461
0.3097068786621094,0.2476673126220703
0.3097068786621094,0.2476673126220703
0.3031356811523437,0.2460725784301758
0.3031356811523437,0.2460725784301758
0.3075336456298828,0.2437133789062500
0.3075336456298828,0.2437133789062500
0.3089721679687500,0.2507280349731445
0.3089721679687500,0.2507280349731445
0.3046417236328125,0.2442249298095703
0.3046417236328125,0.2442249298095703
0.3122600555419922,0.2511623382568359
0.3122600555419922,0.2511623382568359
0.3063886642456055,0.2506553649902344
0.3063886642456055,0.2506553649902344
0.3114612579345703,0.2494800567626953
0.3114612579345703,0.2494800567626953
0.3136419296264648,0.2576831817626953
0.3136419296264648,0.2576831817626953
0.3101909637451172,0.2522855758666992
0.3101909637451172,0.2522855758666992
0.3184209823608398,0.2604532241821289
0.3184209823608398,0.2604532241821289
0.3131641387939453,0.2606128692626953
0.3131641387939453,0.2606128692626953
0.3186481475830078,0.2600612640380859
0.3186481475830078,0.2600612640380859
0.3210124969482422,0.2683364868164063
0.3210124969482422,0.2683364868164063
0.3172885894775391,0.2626888275146484
0.3172885894775391,0.2626888275146484
0.3252468109130859,0.2702751159667969
0.3252468109130859,0.2702751159667969
0.3193227767944336,0.2695295333862305
0.3193227767944336,0.2695295333862305
0.3241453170776367,0.2678112030029297
0.3241453170776367,0.2678112030029297
0.3255277633666992,0.2748418807983398
0.3255277633666992,0.2748418807983398
0.3209850311279297,0.2677831649780273
0.3209850311279297,0.2677831649780273
0.3279613494873047,0.2739732742309570
0.3279613494873047,0.2739732742309570
0.3212602615356445,0.2720037460327148
0.3212602615356445,0.2720037460327148
0.3253314971923828,0.2693653106689453
0.3253314971923828,0.2693653106689453
0.3270584106445312,0.2717439651489258
0.3210302352905273,0.2717439651489258
0.3233848571777344,0.2746290206909179
0.3282188415527343,0.2746290206909179
0.3231239318847656,0.2686128616333008
0.3211469650268555,0.2686128616333008
0.3281541824340820,0.2757390975952148
0.3256902694702148,0.2757390975952148
0.3213340759277344,0.2697835922241211
0.3269222259521484,0.2697835922241211
0.3278612136840820,0.2730417251586914
0.3219360351562500,0.2730417251586914
0.3244422912597656,0.2763719558715820
0.3294799804687500,0.2763719558715820
0.3244291305541992,0.2708679199218750
0.3227050781250000,0.2708679199218750
0.3298004150390625,0.2784685134887695
0.3275362014770508,0.2784685134887695
0.3233081817626953,0.2728975296020508
0.3290657043457031,0.2728975296020508
0.3302078247070312,0.2767112731933594
0.3244279861450195,0.2767112731933594
0.3269594192504883,0.2802652359008789
0.3321601867675781,0.2802652359008789
0.3271293640136719,0.2750501632690430
0.3254133224487304,0.2750501632690430
0.3327398300170898,0.2829654693603516
0.3305036544799805,0.2829654693603516
0.3262338638305664,0.2775524139404297
0.3319953918457031,0.2775524139404297
0.3331592559814453,0.2813650131225586
0.3273880004882813,0.2813650131225586
0.3300006866455078,0.2850254058837891
0.3352352142333984,0.2850254058837891
0.3302404403686524,0.2799316406250000
0.3285421371459961,0.2799316406250000
0.3359041213989258,0.2879453659057617
0.3336936950683594,0.2879453659057617
0.3295320510864257,0.2827245712280274
0.3353931427001953,0.2827245712280274
0.3366033554077149,0.2867483139038086
0.3309402465820312,0.2867483139038086
0.3335597991943359,0.2906696319580078
0.3388641357421875,0.2906696319580078
0.3338968276977539,0.2857280731201172
0.3321979522705078,0.2857280731201172
0.3396554946899414,0.2939088821411133
0.3375589370727539,0.2939088821411133
0.3333475112915039,0.2886754989624024
0.3391250610351562,0.2886754989624024
0.3403512954711914,0.2927341461181641
0.3346040725708008,0.2927341461181641
0.3371435165405273,0.2963687896728516
0.3423122406005859,0.2963687896728516
0.3371738433837890,0.2905380249023438
0.3349960327148437,0.2905380249023438
0.3417297363281250,0.2966686248779297
0.3387153625488281,0.2966686248779297
0.3333515167236328,0.2877502441406250
0.3375640869140625,0.2877502441406250
0.3369461059570312,0.2860736846923828
0.3288499832153320,0.2860736846923828
0.3288482666015625,0.2818422317504883
0.3313459396362304,0.2818422317504883
0.3235879898071289,0.2680509567260742
0.3186252593994141,0.2680509567260742
0.3230701446533203,0.2670856475830078
0.3180175781250000,0.2670856475830078
0.3111986160278320,0.2539129257202148
0.3145814895629883,0.2539129257202148
0.3137729644775391,0.2519531250000000
0.3062988281250000,0.2519531250000000
0.3073768615722656,0.2512092590332031
0.3114377975463867,0.2512092590332031
0.3055664062500000,0.2430067062377930
0.3028799057006836,0.2430067062377930
0.3095191955566406,0.2487791061401367
0.3068447113037109,0.2487791061401367
0.3021308898925781,0.2417690277099609
0.3074941635131836,0.2417690277099609
0.3084056854248047,0.2447885513305664
0.3023488998413086,0.2447885513305664
0.3046142578125000,0.2475706100463867
0.3097995758056640,0.2475706100463867
0.3047876358032227,0.2418891906738281
0.3027917861938477,0.2418891906738281
0.3099786758422852,0.2494016647338867
0.3079147338867188,0.2494016647338867
0.3036077499389648,0.2437574386596680
0.3093023300170898,0.2437574386596680
0.3106567382812500,0.2479625701904297
0.3050085067749023,0.2479625701904297
0.3075244903564453,0.2517013549804688
0.3131069183349609,0.2517013549804688
0.3085155487060547,0.2472959518432617
0.3069110870361328,0.2472959518432617
0.3145763397216797,0.2560163497924804
0.3128465652465820,0.2560163497924804
0.3089315414428711,0.2516218185424804
0.3150615692138672,0.2516218185424804
0.3167570114135742,0.2569393157958984
0.3114343643188476,0.2569393157958984
0.3142175674438477,0.2615243911743164
0.3200935363769531,0.2615243911743164
0.3155645370483398,0.2576145172119140
0.3140493392944336,0.2576145172119140
0.3217815399169922,0.2666061401367187
0.3200820922851562,0.2666061401367187
0.3160881042480468,0.2619598388671875
0.3220556259155273,0.2619598388671875
0.3236217498779297,0.2668207168579101
0.3180816650390625,0.2668207168579101
0.3205324172973633,0.2706550598144531
0.3259637832641601,0.2706550598144531
0.3211217880249023,0.2655229568481445
0.3191253662109375,0.2655229568481445
0.3264656066894531,0.2732254028320312
0.3243467330932617,0.2732254028320312
0.3198097229003906,0.2672023773193359
0.3252290725708007,0.2672023773193359
0.3264238357543945,0.2706447601318359
0.3224401473999023,0.2730772018432617
0.3223731994628906,0.2671005249023438
0.3199808120727539,0.2671005249023438
0.3270698547363281,0.2739961624145508
0.3247444152832031,0.2739961624145508
0.3201032638549804,0.2674592971801757
0.3252954483032227,0.2674592971801757
0.3265817642211914,0.2706968307495117
0.3204849243164062,0.2706968307495117
0.3224206924438476,0.2732442855834961
0.3276100158691406,0.2732442855834961
0.3225975036621094,0.2674358367919922
0.3203739166259765,0.2674358367919922
0.3275053024291992,0.2746953964233398
0.3253778457641601,0.2746953964233398
0.3208133697509766,0.2687141418457031
0.3263311386108398,0.2687141418457031
0.3276712417602539,0.2724672317504883
0.3216836929321289,0.2724672317504883
0.3238872528076172,0.2754072189331054
0.3292665481567383,0.2754072189331054
0.3243810653686524,0.2701578140258789
0.3221797943115234,0.2701578140258789
0.3295572280883789,0.2779077529907226
0.3275922775268554,0.2779077529907226
0.3231382369995117,0.2722709655761719
0.3288064956665039,0.2722709655761719
0.3302764892578125,0.2764995574951172
0.3244686126708984,0.2764995574951172
0.3266561508178711,0.2798080444335938
0.3321195602416992,0.2798080444335938
0.3273096084594727,0.2747777938842773
0.3252616882324219,0.2747777938842773
0.3326803207397461,0.2828624725341797
0.3307319641113281,0.2828624725341797
0.3262933731079101,0.2772508621215820
0.3319902420043945,0.2772508621215820
0.3335025787353516,0.2815555572509765
0.3276683807373047,0.2815555572509765
0.3298444747924805,0.2847999572753906
0.3354846954345703,0.2847999572753906
0.3306198120117188,0.2799579620361328
0.3285020828247070,0.2799579620361328
0.3359853744506836,0.2878561019897461
0.3341691970825195,0.2878561019897461
0.3296453475952149,0.2823858261108398
0.3353181838989258,0.2823858261108398
0.3369140625000000,0.2869148254394531
0.3311313629150390,0.2869148254394531
0.3332473754882813,0.2903577804565430
0.3388887405395508,0.2903577804565430
0.3341503143310547,0.2854631423950195
0.3321441650390625,0.2854631423950195
0.3395713806152343,0.2936101913452148
0.3377174377441406,0.2936101913452148
0.3333057403564453,0.2884265899658203
0.3389642715454101,0.2884265899658203
0.3403970718383789,0.2925624847412109
0.3346876144409179,0.2925624847412109
0.3366640090942383,0.2956792831420899
0.3422842025756836,0.2956792831420899
0.3371520996093750,0.2901163101196289
0.3346361160278320,0.2901163101196289
0.3415254592895507,0.2961839675903320
0.3387702941894531,0.2961839675903320
0.3331815719604492,0.2870841979980469
0.3371726989746094,0.2870841979980469
0.3369781494140625,0.2856147766113281
0.3288265228271484,0.2856147766113281
0.3282171249389648,0.2808700561523437
0.3309688568115234,0.2808700561523437
0.3233539581298828,0.2672521591186524
0.3181468963623047,0.2672521591186524
0.3226896286010742,0.2665134429931640
0.3179105758666992,0.2665134429931640
0.3108072280883789,0.2531484603881836
0.3140201568603516,0.2531484603881836
0.3137563705444336,0.2516304016113281
0.3061626434326172,0.2516304016113281
0.3067554473876953,0.2504636764526367
0.3111951828002930,0.2504636764526367
0.3054244995117187,0.2425775527954102
0.3022893905639648,0.2425775527954102
0.3091341018676758,0.2483419418334961
0.3067691802978516,0.2483419418334961
0.3018007278442383,0.2412832260131836
0.3069328308105468,0.2412832260131836
0.3084262847900390,0.2445041656494140
0.3023042678833008,0.2445041656494140
0.3039413452148437,0.2467849731445312
0.3094974517822265,0.2467849731445312
0.3046091079711914,0.2413175582885742
0.3022333145141601,0.2413175582885742
0.3095901489257812,0.2489021301269531
0.3077270507812500,0.2489021301269531
0.3031562805175781,0.2430084228515625
0.3086643218994141,0.2430084228515625
0.3105686187744141,0.2475053787231445
0.3048505783081055,0.2475053787231445
0.3067571640014649,0.2508441925048828
0.3127876281738281,0.2508441925048828
0.3082151412963867,0.2464822769165039
0.3061849594116211,0.2464822769165039
0.3140058517456055,0.2553234100341797
0.3125701904296875,0.2553234100341797
0.3082923889160156,0.2506061553955078
0.3142684936523437,0.2506061553955078
0.3164703369140625,0.2561742782592774
0.3111757278442382,0.2561742782592774
0.3133014678955078,0.2603857040405274
0.3195688247680664,0.2603857040405274
0.3151794433593750,0.2566383361816406
0.3132184982299804,0.2566383361816406
0.3209547042846679,0.2654977798461914
0.3195894241333008,0.2654977798461914
0.3153573989868164,0.2606288909912109
0.3211177825927734,0.2606288909912109
0.3231285095214844,0.2657089233398438
0.3174482345581054,0.2657089233398438
0.3192689895629883,0.2689956665039062
0.3252101898193359,0.2689956665039062
0.3205244064331055,0.2642955780029297
0.3180816650390625,0.2642955780029297
0.3255466461181640,0.2720151901245117
0.3237899780273437,0.2720151901245117
0.3190561294555664,0.2658319473266602
0.3243209838867188,0.2658319473266602
0.3260147094726563,0.2697011947631836
0.3199487686157226,0.2697011947631836
0.3213037490844726,0.2718881607055664
0.3269571304321289,0.2718881607055664
0.3220413208007812,0.2662342071533203
0.3193262100219726,0.2662342071533203
0.3266017913818359,0.2732740402221679
0.3245647430419922,0.2732740402221679
0.3196964263916016,0.2667114257812500
0.3248542785644531,0.2667114257812500
0.3266086578369141,0.2705314636230469
0.3205049514770508,0.2705314636230469
0.3219675064086914,0.2727991104125976
0.3276226043701172,0.2727991104125976
0.3227743148803711,0.2674266815185547
0.3201204299926758,0.2674266815185547
0.3275430679321289,0.2749963760375976
0.3256999969482422,0.2749963760375976
0.3210348129272461,0.2688663482666016
0.3263214111328125,0.2688663482666016
0.3282508850097656,0.2731126785278320
0.3223634719848633,0.2731126785278320
0.3235582351684570,0.2757802963256836
0.3299303054809570,0.2757802963256836
0.3251895904541016,0.2709148406982422
0.3222719192504883,0.2709148406982422
0.3300567626953125,0.2792129516601562
0.3286428451538086,0.2792129516601562
0.3236509323120117,0.2730091094970703
0.3290456771850586,0.2730091094970703
0.3316257476806641,0.2781744003295898
0.3254167556762695,0.2781744003295898
0.3268152236938476,0.2809925079345703
0.3334602355957031,0.2809925079345703
0.3288156509399414,0.2766952514648438
0.3259128570556640,0.2766952514648438
0.3339557647705078,0.2852554321289062
0.3326694488525391,0.2852554321289062
0.3277616500854492,0.2792724609375000
0.3331106185913086,0.2792724609375000
0.3357759475708008,0.2846500396728516
0.3296253204345703,0.2846500396728516
0.3309499740600586,0.2873977661132812
0.3375188827514649,0.2873977661132812
0.3329246520996094,0.2828104019165039
0.3299543380737305,0.2828104019165039
0.3378152847290039,0.2913059234619140
0.3365404129028320,0.2913059234619140
0.3315587997436523,0.2852210998535156
0.3368797302246094,0.2852210998535156
0.3395696640014648,0.2905431747436523
0.3332822799682617,0.2905431747436523
0.3412525177001953,0.2930471420288086
0.3411375045776367,0.2930471420288086
0.3366205215454102,0.2884403228759765
0.3333366394042969,0.2884403228759765
0.3413475036621094,0.2970136642456054
0.3402042388916016,0.2970136642456054
0.3348598480224609,0.2906719207763672
0.3403638839721679,0.2906719207763672
0.3432952880859375,0.2962720870971680
0.3369152069091797,0.2962720870971680
0.3378524780273438,0.2986610412597656
0.3447870254516601,0.2986610412597656
0.3400777816772461,0.2939500808715820
0.3367904663085937,0.2939500808715820
0.3448116302490234,0.3024793624877929
0.3435453414916992,0.3024793624877929
0.3381649017333984,0.2957279205322266
0.3434715270996094,0.2957279205322266
0.3460750579833984,0.3005109786987304
0.3392412185668945,0.3005109786987304
0.3397190093994141,0.3010751724243164
0.3458587646484375,0.3010751724243164
0.3402305603027344,0.2931341171264648
0.3353954315185547,0.2931341171264648
0.3416336059570312,0.2963081359863281
0.3383674621582031,0.2963081359863281
0.3305665969848633,0.2822004318237304
0.3330482482910156,0.2822004318237304
0.3331518173217773,0.2786802291870117
0.3235124588012695,0.2786802291870117
0.3214302062988281,0.2717210769653320
0.3252656936645508,0.2717210769653320
0.3178396224975586,0.2583452224731445
0.3115648269653320,0.2583452224731445
0.3170751571655273,0.2594678878784180
0.3137449264526367,0.2594678878784180
0.3066370010375977,0.2474361419677734
0.3102636337280273,0.2474361419677734
0.3119161605834961,0.2491355895996094
0.3045330047607422,0.2491355895996094
0.3045524597167968,0.2486200332641602
0.3108312606811524,0.2486200332641602
0.3056413650512695,0.2424316406250000
0.3020233154296875,0.2424316406250000
0.3095672607421875,0.2495447158813476
0.3081682205200195,0.2495447158813476
0.3026716232299805,0.2425186157226562
0.3076492309570312,0.2425186157226562
0.3104450225830078,0.2472410202026367
0.3041908264160156,0.2472410202026367
0.3050050735473633,0.2491985321044922
0.3116832733154297,0.2491985321044922
0.3072996139526367,0.2445470809936523
0.3040821075439453,0.2445470809936523
0.3119871139526367,0.2531129837036133
0.3110933303833008,0.2531129837036133
0.3060619354248047,0.2471895217895508
0.3114635467529297,0.2471895217895508
0.3146266937255859,0.2531370162963867
0.3087844848632812,0.2531370162963867
0.3099277496337891,0.2564489364624024
0.3172273635864258,0.2564489364624024
0.3131767272949219,0.2531450271606445
0.3102985382080078,0.2531450271606445
0.3185468673706054,0.2626379013061523
0.3180438995361328,0.2626379013061523
0.3132659912109375,0.2576396942138672
0.3187980651855469,0.2576396942138672
0.3220722198486328,0.2641027450561523
0.3164257049560547,0.2641027450561523
0.3175661087036133,0.2674764633178711
0.3247100830078125,0.2674764633178711
0.3206863403320312,0.2638189315795899
0.3176668167114258,0.2638189315795899
0.3255151748657226,0.2726440429687500
0.3246688842773438,0.2726440429687500
0.3196987152099609,0.2670633316040039
0.3248416900634766,0.2670633316040039
0.3275939941406250,0.2719476699829101
0.3215028762817383,0.2719476699829101
0.3221700668334961,0.2739057540893555
0.3289346694946289,0.2739057540893555
0.3243690490722656,0.2688846588134766
0.3208070755004883,0.2688846588134766
0.3282531738281250,0.2763971328735351
0.3270738601684570,0.2763971328735351
0.3215354919433593,0.2692600250244140
0.3262361526489257,0.2692600250244140
0.3288780212402344,0.2733850479125977
0.3224704742431641,0.2733850479125977
0.3227193832397461,0.2745449066162109
0.3293031692504882,0.2745449066162109
0.3246883392333984,0.2691724777221680
0.3209861755371093,0.2691724777221680
0.3282840728759766,0.2764657974243164
0.3271081924438476,0.2764657974243164
0.3216327667236328,0.2693830490112304
0.3263397216796875,0.2693830490112304
0.3291194915771484,0.2737913131713867
0.3226781845092773,0.2737913131713867
0.3230798721313476,0.2751737594604492
0.3298072814941406,0.2751737594604492
0.3254476547241211,0.2702802658081054
0.3217941284179687,0.2702802658081054
0.3293003082275390,0.2780124664306641
0.3282995223999023,0.2780124664306641
0.3228143692016601,0.2713239669799805
0.3276082992553711,0.2713239669799805
0.3306123733520508,0.2761922836303711
0.3244022369384765,0.2761922836303711
0.3248079299926758,0.2779558181762695
0.3315971374511719,0.2779558181762695
0.3273839950561523,0.2734096527099609
0.3238660812377930,0.2734096527099609
0.3313482284545898,0.2813713073730469
0.3304790496826172,0.2813713073730469
0.3250556945800781,0.2747663497924804
0.3297346115112305,0.2747663497924804
0.3331380844116211,0.2799224853515625
0.3267940521240234,0.2799224853515625
0.3270818710327149,0.2816127777099609
0.3342081069946289,0.2816127777099609
0.3298862457275391,0.2771163940429687
0.3261257171630859,0.2771163940429687
0.3338247299194336,0.2852331161499023
0.3330654144287109,0.2852331161499023
0.3274177551269531,0.2785852432250976
0.3322071075439453,0.2785852432250976
0.3356037139892578,0.2838884353637695
0.3292957305908203,0.2838884353637695
0.3295406341552734,0.2856365203857422
0.3367704391479492,0.2856365203857422
0.3325155258178711,0.2812082290649414
0.3288230895996094,0.2812082290649414
0.3365037918090820,0.2895315170288086
0.3358663558959961,0.2895315170288086
0.3302564620971680,0.2829259872436523
0.3350664138793945,0.2829259872436523
0.3384899139404297,0.2883728027343750
0.3321081161499023,0.2883728027343750
0.3323656082153320,0.2901254653930664
0.3396795272827148,0.2901254653930664
0.3355127334594726,0.2857898712158203
0.3316143035888672,0.2857898712158203
0.3392612457275391,0.2939477920532226
0.3386341094970703,0.2939477920532226
0.3328176498413086,0.2866693496704101
0.3372608184814453,0.2866693496704101
0.3402814865112305,0.2908378601074219
0.3332582473754883,0.2908378601074219
0.3324422836303711,0.2896551132202148
0.3385746002197266,0.2896551132202148
0.3328142166137695,0.2803430557250977
0.3268255233764648,0.2803430557250977
0.3322614669799804,0.2818159103393554
0.3291223526000976,0.2818159103393554
0.3208883285522461,0.2670490264892578
0.3226650238037109,0.2670490264892578
0.3234066009521484,0.2643699645996094
0.3142215728759766,0.2643699645996094
0.3117444992065430,0.2582862854003906
0.3167781829833984,0.2582862854003906
0.3105554580688477,0.2478172302246094
0.3047332763671875,0.2478172302246094
0.3108507156372070,0.2516006469726562
0.3090917587280274,0.2516006469726562
0.3022304534912109,0.2415967941284179
0.3059675216674805,0.2415967941284179
0.3088457107543945,0.2447805404663086
0.3019002914428711,0.2447805404663086
0.3013275146484375,0.2446306228637695
0.3083925247192383,0.2446306228637695
0.3039733886718750,0.2392581939697266
0.2996652603149414,0.2392581939697266
0.3070295333862305,0.2467254638671875
0.3064298629760742,0.2467254638671875
0.3005310058593750,0.2393789291381836
0.3050828933715820,0.2393789291381836
0.3086448669433594,0.2445676803588867
0.3022573471069336,0.2445676803588867
0.3021852493286133,0.2457984924316406
0.3096445083618164,0.2457984924316406
0.3056877136230469,0.2414113998413086
0.3017269134521484,0.2414113998413086
0.3093795776367188,0.2498382568359375
0.3092153549194336,0.2498382568359375
0.3035482406616211,0.2435096740722656
0.3082946777343750,0.2435096740722656
0.3123830795288086,0.2497552871704102
0.3063720703125000,0.2497552871704102
0.3066020965576172,0.2521545410156250
0.3144653320312500,0.2521545410156250
0.3108318328857422,0.2488889694213867
0.3072074890136718,0.2488889694213867
0.3152978897094726,0.2582571029663086
0.3153047561645508,0.2582571029663086
0.3098808288574219,0.2524692535400391
0.3148590087890625,0.2524692535400391
0.3189496994018555,0.2592264175415039
0.3129667282104492,0.2592264175415039
0.3131435394287109,0.2613618850708008
0.3210090637207031,0.2613618850708008
0.3172370910644531,0.2577970504760742
0.3133867263793945,0.2577970504760742
0.3211263656616211,0.2664813995361328
0.3208820343017578,0.2664813995361328
0.3150255203247070,0.2598066329956055
0.3195882797241211,0.2598066329956055
0.3233070373535156,0.2651865005493164
0.3169298171997070,0.2651865005493164
0.3166688919067382,0.2662576675415039
0.3240056991577148,0.2662576675415039
0.3198886871337890,0.2613418579101562
0.3155508041381836,0.2613418579101562
0.3229207992553711,0.2688503265380859
0.3224161148071289,0.2688503265380859
0.3162603378295898,0.2612411499023438
0.3204774856567383,0.2612411499023438
0.3238872528076172,0.2659498214721679
0.3174104690551758,0.2659498214721679
0.3168891906738281,0.2666233062744141
0.3243026733398438,0.2666233062744141
0.3201398849487305,0.2616228103637695
0.3158100128173828,0.2616228103637695
0.3230964660644531,0.2692697525024414
0.3227697372436523,0.2692697525024414
0.3166231155395507,0.2618162155151367
0.3208385467529297,0.2618162155151367
0.3245504379272461,0.2670021057128906
0.3181171417236328,0.2670021057128906
0.3177858352661133,0.2680400848388672
0.3253870010375977,0.2680400848388672
0.3213764190673828,0.2635282516479492
0.3172439575195312,0.2635282516479492
0.3246065139770508,0.2715723037719727
0.3243289947509765,0.2715723037719727
0.3184827804565429,0.2648488998413086
0.3228183746337890,0.2648488998413086
0.3265789031982422,0.2702442169189453
0.3204231262207031,0.2702442169189453
0.3203121185302734,0.2717079162597656
0.3279396057128906,0.2717079162597656
0.3239479064941406,0.2676309585571289
0.3199493408203125,0.2676309585571289
0.3273731231689453,0.2758255004882812
0.3272008895874023,0.2758255004882812
0.3215251922607422,0.2693298339843750
0.3259168624877929,0.2693298339843750
0.3295909881591797,0.2748235702514648
0.3235765457153320,0.2748235702514648
0.3232572555541992,0.2763336181640625
0.3309345245361328,0.2763336181640625
0.3272684097290039,0.2722984313964844
0.3230558395385742,0.2722984313964844
0.3305723190307617,0.2807813644409179
0.3305253982543945,0.2807813644409179
0.3247117996215820,0.2741277694702148
0.3291629791259765,0.2741277694702148
0.3331094741821289,0.2801897048950195
0.3268947601318359,0.2801897048950195
0.3266973495483398,0.2816757202148437
0.3346120834350586,0.2816757202148437
0.3308555603027344,0.2778917312622070
0.3267299652099609,0.2778917312622070
0.3342653274536133,0.2864450454711914
0.3343402862548828,0.2864450454711914
0.3284929275512695,0.2800392150878906
0.3329080581665039,0.2800392150878906
0.3368293762207031,0.2859758377075195
0.3308074951171875,0.2859758377075195
0.3305402755737304,0.2875139236450195
0.3381511688232422,0.2875139236450195
0.3345016479492187,0.2835359573364258
0.3303857803344726,0.2835359573364258
0.3374124526977539,0.2910129547119141
0.3369501113891601,0.2910129547119141
0.3305368423461914,0.2826164245605469
0.3337818145751953,0.2826164245605469
0.3364608764648437,0.2845676422119141
0.3287435531616211,0.2845676422119141
0.3263299942016601,0.2799837112426758
0.3319656372070313,0.2799837112426758
0.3257085800170899,0.2685390472412109
0.3186996459960937,0.2685390472412109
0.3233585357666016,0.2686998367309570
0.3204814910888672,0.2686998367309570
0.3117015838623047,0.2538579940795898
0.3132081985473633,0.2538579940795898
0.3149751663208007,0.2527278900146484
0.3066827774047852,0.2527278900146484
0.3045358657836914,0.2487327575683594
0.3108535766601562,0.2487327575683594
0.3063503265380859,0.2411516189575195
0.3002025604248047,0.2411516189575195
0.3067897796630859,0.2467615127563476
0.3067268371582031,0.2467615127563476
0.2994781494140625,0.2372840881347656
0.3027030944824219,0.2372840881347656
0.3070827484130859,0.2423698425292969
0.3004400253295899,0.2362026214599609
0.2988830566406250,0.2417804718017578
0.3069694519042969,0.2417804718017578
0.3033594131469726,0.2374837875366211
0.2986759185791015,0.2374837875366211
0.3056385040283203,0.2448663711547852
0.3057203292846680,0.2448663711547852
0.2997104644775391,0.2377704620361328
0.3035448074340820,0.2377704620361328
0.3075714111328125,0.2431526184082031
0.3016038894653320,0.2431526184082031
0.3010208129882813,0.2443084716796875
0.3087873458862305,0.2443084716796875
0.3053546905517578,0.2405668258666992
0.3013366699218750,0.2405668258666992
0.3086631774902344,0.2490440368652344
0.3091266632080078,0.2490440368652344
0.3034126281738281,0.2430496215820312
0.3077064514160156,0.2430496215820312
0.3120861053466797,0.2496854782104492
0.3065082550048828,0.2496854782104492
0.3063480377197266,0.2517568588256836
0.3145368576049805,0.2517568588256836
0.3113891601562500,0.2491001129150391
0.3075313568115234,0.2491001129150391
0.3150403976440430,0.2582519531250000
0.3157436370849609,0.2582519531250000
0.3102075576782227,0.2526603698730469
0.3144046783447266,0.2526603698730469
0.3188043594360351,0.2592412948608399
0.3132505416870117,0.2592412948608399
0.3128534317016601,0.2609241485595703
0.3207206726074219,0.2609241485595703
0.3173892974853516,0.2574245452880859
0.3132162094116211,0.2574245452880859
0.3203001022338867,0.2655687332153320
0.3205718994140625,0.2655687332153320
0.3145957946777344,0.2586650848388672
0.3184272766113281,0.2586650848388672
0.3223537445068359,0.2639339447021484
0.3161075592041016,0.2639339447021484
0.3153625488281250,0.2642429351806641
0.3228961944580078,0.2642429351806641
0.3190721511840820,0.2596178054809570
0.3146455764770508,0.2596178054809570
0.3213054656982422,0.2667881011962890
0.3212837219238281,0.2667881011962890
0.3150547027587891,0.2590662002563476
0.3189205169677734,0.2590662002563476
0.3222129821777344,0.2638189315795899
0.3162059783935547,0.2638189315795899
0.3156589508056640,0.2644517898559570
0.3226787567138672,0.2644517898559570
0.3188924789428711,0.2598735809326172
0.3148876190185547,0.2598735809326172
0.3215629577636719,0.2671508789062500
0.3217048645019531,0.2671508789062500
0.3155714035034179,0.2599668502807617
0.3192581176757812,0.2599668502807617
0.3233356475830078,0.2654823303222656
0.3173046112060547,0.2654823303222656
0.3165607452392578,0.2662279129028320
0.3242677688598632,0.2662279129028320
0.3207492828369141,0.2622322082519531
0.3165349960327148,0.2622322082519531
0.3234724044799804,0.2702190399169922
0.3238100051879882,0.2702190399169922
0.3178539276123047,0.2635688781738281
0.3216648101806641,0.2635688781738281
0.3258796691894531,0.2694934844970703
0.3200580596923828,0.2694934844970703
0.3193153381347656,0.2705766677856445
0.3271854400634766,0.2705766677856445
0.3238237380981445,0.2668235778808594
0.3195985794067382,0.2668235778808594
0.3266435623168945,0.2750661849975586
0.3270406723022461,0.2750661849975586
0.3210720062255859,0.2683456420898437
0.3249338150024414,0.2683456420898437
0.3291360855102539,0.2744241714477539
0.3233562469482422,0.2744241714477539
0.3227136611938476,0.2754535675048828
0.3305671691894531,0.2754535675048828
0.3271574020385742,0.2718795776367187
0.3229150772094727,0.2718795776367187
0.3298782348632812,0.2800397872924805
0.3304040908813476,0.2800397872924805
0.3244846343994141,0.2735223770141602
0.3281719207763672,0.2735223770141602
0.3325733184814453,0.2796518325805664
0.3268323898315429,0.2796518325805664
0.3260656356811523,0.2808214187622070
0.3341039657592773,0.2808214187622070
0.3307519912719726,0.2773893356323242
0.3266052246093750,0.2773893356323242
0.3335123062133789,0.2856571197509766
0.3341125488281250,0.2856571197509766
0.3282073974609375,0.2792100906372070
0.3319959640502930,0.2792100906372070
0.3362400054931641,0.2854465484619140
0.3305265426635742,0.2854465484619140
0.3298192977905273,0.2865806579589844
0.3377969741821289,0.2865806579589844
0.3343156814575195,0.2828744888305664
0.3300367355346679,0.2828744888305664
0.3366451263427734,0.2902381896972656
0.3368488311767578,0.2902381896972656
0.3302335739135742,0.2816310882568359
0.3330064773559570,0.2816310882568359
0.3361043930053711,0.2841922760009766
0.3287961959838867,0.2841922760009766
0.3260553359985351,0.2793926239013672
0.3316091537475586,0.2793926239013672
0.3257812500000000,0.2684148788452148
0.3187551498413086,0.2684148788452148
0.3228870391845703,0.2682729721069336
0.3204414367675781,0.2682729721069336
0.3117410659790039,0.2533830642700195
0.3126354217529297,0.2533830642700195
0.3145242691040039,0.2524749755859375
0.3065351486206054,0.2524749755859375
0.3039333343505859,0.2478572845458984
0.3100696563720703,0.2478572845458984
0.3055137634277343,0.2404071807861328
0.3001607894897461,0.2404071807861328
0.3059291839599609,0.2454694747924805
0.3057197570800781,0.2454694747924805
0.2990552902221680,0.2366930007934570
0.3020954132080078,0.2366930007934570
0.3059251785278320,0.2412763595581054
0.2997556686401367,0.2412763595581054
0.2986410140991211,0.2409708023071289
0.3061878204345703,0.2409708023071289
0.3027734756469727,0.2367204666137695
0.2983308792114258,0.2367204666137695
0.3049301147460937,0.2440212249755859
0.3053089141845703,0.2440212249755859
0.2992532730102539,0.2368726730346680
0.3030338287353516,0.2368726730346680
0.3068841934204101,0.2425294876098633
0.3013006210327148,0.2425294876098633
0.3009040832519531,0.2436475753784180
0.3083639144897461,0.2436475753784180
0.3050107955932617,0.2401817321777344
0.3014190673828125,0.2401817321777344
0.3081138610839844,0.2484283447265625
0.3087238311767578,0.2484283447265625
0.3033765792846679,0.2428041458129883
0.3072858810424804,0.2428041458129883
0.3116197586059570,0.2493942260742187
0.3065151214599609,0.2493942260742187
0.3064556121826172,0.2516349792480468
0.3142009735107422,0.2516349792480468
0.3112197875976562,0.2490663528442383
0.3078741073608398,0.2490663528442383
0.3147937774658203,0.2579635620117187
0.3155731201171875,0.2579635620117187
0.3102647781372070,0.2526151657104492
0.3142364501953125,0.2526151657104492
0.3183837890625000,0.2591119766235351
0.3132230758666992,0.2591119766235351
0.3129901885986328,0.2609802246093750
0.3204637527465820,0.2609802246093750
0.3173366546630859,0.2577672958374023
0.3137123107910156,0.2577672958374023
0.3202234268188476,0.2654525756835938
0.3205541610717773,0.2654525756835938
0.3148710250854492,0.2589048385620117
0.3182962417602539,0.2589048385620117
0.3220962524414062,0.2641874313354492
0.3164354324340820,0.2641874313354492
0.3158460617065429,0.2647195816040039
0.3229145050048828,0.2647195816040039
0.3193405151367187,0.2603450775146484
0.3153791427612305,0.2603450775146484
0.3214954376220703,0.2671583175659180
0.3215595245361328,0.2671583175659180
0.3158506393432617,0.2603055953979492
0.3191808700561523,0.2603055953979492
0.3225563049316406,0.2649713516235351
0.3169424057006836,0.2649713516235351
0.3161075592041016,0.2653095245361328
0.3234363555908203,0.2653095245361328
0.3200923919677734,0.2612314224243164
0.3156990051269531,0.2612314224243164
0.3220619201660156,0.2685064315795898
0.3226432800292969,0.2685064315795898
0.3165859222412109,0.2613710403442382
0.3199447631835937,0.2613710403442382
0.3241910934448242,0.2672109603881836
0.3185171127319336,0.2672109603881836
0.3175060272216797,0.2677179336547851
0.3252880096435547,0.2677179336547851
0.3220756530761719,0.2642566680908203
0.3179283142089844,0.2642566680908203
0.3243747711181640,0.2721502304077149
0.3251546859741211,0.2721502304077149
0.3192592620849609,0.2654800415039062
0.3227874755859375,0.2654800415039062
0.3272684097290039,0.2719362258911133
0.3216281890869140,0.2719362258911133
0.3208127975463867,0.2728414535522461
0.3288288116455078,0.2728414535522461
0.3257148742675781,0.2697652816772461
0.3216419219970703,0.2697652816772461
0.3282205581665039,0.2779129028320312
0.3291189193725586,0.2779129028320312
0.3232057571411133,0.2713651657104492
0.3266801834106445,0.2713651657104492
0.3313556671142578,0.2781280517578125
0.3257440567016601,0.2781280517578125
0.3248640060424804,0.2790224075317383
0.3328113555908203,0.2790224075317383
0.3297351837158203,0.2759181976318359
0.3256822586059570,0.2759181976318359
0.3322031021118164,0.2840675354003906
0.3329938888549804,0.2840675354003906
0.3271213531494140,0.2772811889648437
0.3305906295776367,0.2772811889648437
0.3351402282714844,0.2839422225952148
0.3295463562011718,0.2839422225952148
0.3285409927368164,0.2845104217529297
0.3365455627441406,0.2845104217529297
0.3332508087158203,0.2812402725219726
0.3290548324584961,0.2812402725219726
0.3355567932128906,0.2891859054565429
0.3363819122314453,0.2891859054565429
0.3303537368774414,0.2823617935180664
0.3336811065673828,0.2823617935180664
0.3383874893188477,0.2889055252075195
0.3327323913574219,0.2889055252075195
0.3317424774169922,0.2893913269042969
0.3396337509155273,0.2893913269042969
0.3364969253540039,0.2862533569335937
0.3322134017944336,0.2862533569335937
0.3386907577514648,0.2941371917724609
0.3395605087280273,0.2941371917724609
0.3336210250854492,0.2870841979980469
0.3369220733642578,0.2870841979980469
0.3414041519165039,0.2937469482421875
0.3358451843261719,0.2937469482421875
0.3348226547241211,0.2940496444702148
0.3426910400390625,0.2940496444702148
0.3392898559570313,0.2903469085693359
0.3347150802612305,0.2903469085693359
0.3406900405883789,0.2968626022338867
0.3409852981567383,0.2968626022338867
0.3339443206787109,0.2870161056518555
0.3358949661254882,0.2870161056518555
0.3390151977539063,0.2888751983642578
0.3313985824584961,0.2888751983642578
0.3281450271606445,0.2825082778930664
0.3334957122802734,0.2825082778930664
0.3275562286376953,0.2707798004150391
0.3203235626220703,0.2707798004150391
0.3237962722778320,0.2700256347656250
0.3215566635131836,0.2700256347656250
0.3128196716308594,0.2544942855834961
0.3132333755493164,0.2544942855834961
0.3154352188110351,0.2540920257568359
0.3075702667236328,0.2540920257568359
0.3047235488891601,0.2489593505859375
0.3111064910888672,0.2489593505859375
0.3066701889038086,0.2419990539550781
0.3011999130249023,0.2419990539550781
0.3066913604736328,0.2472003936767578
0.3069757461547851,0.2472003936767578
0.3003719329833984,0.2383100509643555
0.3031362533569336,0.2383100509643555
0.3074953079223633,0.2438140869140625
0.3016611099243164,0.2438140869140625
0.3002059936523437,0.2431663513183594
0.3080200195312500,0.2431663513183594
0.3047407150268555,0.2395923614501953
0.3003427505493164,0.2395923614501953
0.3065906524658203,0.2470315933227539
0.3075473785400391,0.2470315933227539
0.3015855789184570,0.2399179458618164
0.3048265457153320,0.2399179458618164
0.3093423843383789,0.2463769912719727
0.3040500640869140,0.2463769912719727
0.3034864425659179,0.2472547531127930
0.3110052108764648,0.2472547531127930
0.3081510543823242,0.2448463439941406
0.3047389984130859,0.2448463439941406
0.3109199523925781,0.2529132843017578
0.3120065689086914,0.2529132843017578
0.3069053649902344,0.2472799301147461
0.3102310180664062,0.2472799301147461
0.3152320861816406,0.2550447463989258
0.3103654861450195,0.2550447463989258
0.3095901489257812,0.2562486648559570
0.3176490783691406,0.2562486648559570
0.3151525497436523,0.2544679641723633
0.3116735458374023,0.2544679641723633
0.3177669525146484,0.2628021240234375
0.3188323974609375,0.2628021240234375
0.3138359069824219,0.2573032379150391
0.3170888900756836,0.2573032379150391
0.3166940689086914,0.2596029281616211
0.3166940689086914,0.2596029281616211
0.3166940689086914,0.2595920562744141
0.3227039337158203,0.2671388626098632
0.3227039337158203,0.2671388626098632
0.3167095184326172,0.2628999710083008
0.3167095184326172,0.2628999710083008
0.3226409912109375,0.2643310546875000
0.3226409912109375,0.2643310546875000
0.3197010040283203,0.2684423446655274
0.3197010040283203,0.2684423446655274
0.3185932159423828,0.2620393753051758
0.3185932159423828,0.2620393753051758
0.3237630844116211,0.2685636520385742
0.3237630844116211,0.2685636520385742
0.3172239303588867,0.2634160995483398
0.3172239303588867,0.2634160995483398
0.3226455688476562,0.2643997192382813
0.3226455688476562,0.2643997192382813
0.3197141647338867,0.2679885864257812
0.3197141647338867,0.2679885864257812
0.3184473037719727,0.2620119094848632
0.3184473037719727,0.2620119094848632
0.3236045837402344,0.2684154510498047
0.3236045837402344,0.2684154510498047
0.3175094604492187,0.2638784408569336
0.3175094604492187,0.2638784408569336
0.3231307983398438,0.2652631759643554
0.3231307983398438,0.2652631759643554
0.3205169677734375,0.2693567276000977
0.3205169677734375,0.2693567276000977
0.3196998596191406,0.2638584136962890
0.3196998596191406,0.2638584136962890
0.3250963211059570,0.2708061218261719
0.3250963211059570,0.2708061218261719
0.3192844390869141,0.2664281845092774
0.3192844390869141,0.2664281845092774
0.3251832962036132,0.2684326171875000
0.3251832962036132,0.2684326171875000
0.3226907730102539,0.2728363037109375
0.3226907730102539,0.2728363037109375
0.3221082687377930,0.2674667358398438
0.3221082687377930,0.2674667358398438
0.3277656555175781,0.2748029708862305
0.3251970291137695,0.2748029708862305
0.3219331741333007,0.2705549240112304
0.3219331741333007,0.2705549240112304
0.3280660629272461,0.2726440429687500
0.3280660629272461,0.2726440429687500
0.3256067276000976,0.2771020889282226
0.3256067276000976,0.2771020889282226
0.3251140594482422,0.2717599868774414
0.3251140594482422,0.2717599868774414
0.3305356979370117,0.2789972305297851
0.3280517578125000,0.2789972305297851
0.3248102188110352,0.2747125625610352
0.3248102188110352,0.2747125625610352
0.3308933258056641,0.2770660400390625
0.3308933258056641,0.2770660400390625
0.3283704757690429,0.2813661575317383
0.3283704757690429,0.2813661575317383
0.3279750823974609,0.2762998580932617
0.3279750823974609,0.2762998580932617
0.3334482192993164,0.2835565567016601
0.3334482192993164,0.2835565567016601
0.3278818130493164,0.2794538497924804
0.3278818130493164,0.2794538497924804
0.3340101242065430,0.2818548202514649
0.3340101242065430,0.2818548202514649
0.3315347671508789,0.2862138748168945
0.3315347671508789,0.2862138748168945
0.3312223434448242,0.2811355590820312
0.3312223434448242,0.2811355590820312
0.3365467071533203,0.2884323120117188
0.3365467071533203,0.2884323120117188
0.3308612823486328,0.2841161727905273
0.3308612823486328,0.2841161727905273
0.3366056442260742,0.2858968734741211
0.3366056442260742,0.2858968734741211
0.3333240509033203,0.2884157180786133
0.3333240509033203,0.2884157180786133
0.3311759948730469,0.2804134368896484
0.3311759948730469,0.2804134368896484
0.3334350585937500,0.2826295852661133
0.3334350585937500,0.2826295852661133
0.3233779907226562,0.2712776184082031
0.3233779907226562,0.2712776184082031
0.3242168426513672,0.2659458160400390
0.3242168426513672,0.2659458160400390
0.3159954071044922,0.2619924545288086
0.3159954071044922,0.2619924545288086
0.3106504440307617,0.2496843338012695
0.3106504440307617,0.2496843338012695
0.3115362167358398,0.2511337280273437
0.3115362167358398,0.2511337280273437
0.3026533126831055,0.2423572540283203
0.3026533126831055,0.2423572540283203
0.3065282821655274,0.2418542861938476
0.3065282821655274,0.2418542861938476
0.3021423339843750,0.2434490203857422
0.3021423339843750,0.2434490203857422
0.3010070800781250,0.2370374679565430
0.3010070800781250,0.2370374679565430
0.3053318023681640,0.2430828094482422
0.3053318023681640,0.2430828094482422
0.2990964889526367,0.2375261306762695
0.2990964889526367,0.2375261306762695
0.3051361083984375,0.2398847579956055
0.3051361083984375,0.2398847579956055
0.3018550872802734,0.2431692123413086
0.3018550872802734,0.2431692123413086
0.3018716812133789,0.2379867553710937
0.3018716812133789,0.2379867553710937
0.3069894790649414,0.2451101303100586
0.3069894790649414,0.2451101303100586
0.3014585494995117,0.2408552169799805
0.3014585494995117,0.2408552169799805
0.3077373504638672,0.2437952041625976
0.3077373504638672,0.2437952041625976
0.3057111740112304,0.2483608245849609
0.3057111740112304,0.2483608245849609
0.3060773849487304,0.2442707061767578
0.3060773849487304,0.2442707061767578
0.3121301651000977,0.2524417877197265
0.3121301651000977,0.2524417877197265
0.3071228027343750,0.2490428924560547
0.3071228027343750,0.2490428924560547
0.3139686584472656,0.2525688171386719
0.3139686584472656,0.2525688171386719
0.3121713638305664,0.2575590133666992
0.3121713638305664,0.2575590133666992
0.3126188278198242,0.2533035278320312
0.3126188278198242,0.2533035278320312
0.3182847976684570,0.2612760543823242
0.3182847976684570,0.2612760543823242
0.3129667282104492,0.2570159912109375
0.3129667282104492,0.2570159912109375
0.3191476821899414,0.2597047805786133
0.3191476821899414,0.2597047805786133
0.3165819168090820,0.2635711669921875
0.3165819168090820,0.2635711669921875
0.3160211563110352,0.2580957412719727
0.3160211563110352,0.2580957412719727
0.3209157943725586,0.2646915435791016
0.3184444427490234,0.2646915435791016
0.3147216796875000,0.2593711853027343
0.3147216796875000,0.2593711853027343
0.3203121185302734,0.2611719131469726
0.3203121185302734,0.2611719131469726
0.3170837402343750,0.2642354965209961
0.3170837402343750,0.2642354965209961
0.3162185668945313,0.2582880020141601
0.3162185668945313,0.2582880020141601
0.3209592819213867,0.2648529052734375
0.3209592819213867,0.2648529052734375
0.3148744583129883,0.2595657348632812
0.3148744583129883,0.2595657348632812
0.3204734802246094,0.2616399765014648
0.3204734802246094,0.2616399765014648
0.3175901412963867,0.2650772094726562
0.3175901412963867,0.2650772094726562
0.3172765731811523,0.2597339630126953
0.3172765731811523,0.2597339630126953
0.3221780776977539,0.2666318893432617
0.3221780776977539,0.2666318893432617
0.3163272857666016,0.2618980407714844
0.3163272857666016,0.2618980407714844
0.3224819183349609,0.2645599365234375
0.3224819183349609,0.2645599365234375
0.3197181701660156,0.2684200286865234
0.3197181701660156,0.2684200286865234
0.3197748184204102,0.2635631561279297
0.3197748184204102,0.2635631561279297
0.3248754501342773,0.2709165573120117
0.3248754501342773,0.2709165573120117
0.3192964553833008,0.2662851333618164
0.3192964553833008,0.2662851333618164
0.3255443572998047,0.2693269729614258
0.3255443572998047,0.2693269729614258
0.3229425430297851,0.2732128143310547
0.3229425430297851,0.2732128143310547
0.3229047775268555,0.2684148788452148
0.3229047775268555,0.2684148788452148
0.3282073974609375,0.2757574081420898
0.3261045455932617,0.2757574081420898
0.3224023818969726,0.2709926605224609
0.3224023818969726,0.2709926605224609
0.3288133621215820,0.2741558074951172
0.3288133621215820,0.2741558074951172
0.3260850906372070,0.2779701232910156
0.3308034896850586,0.2779701232910156
0.3260787963867187,0.2730640411376953
0.3260787963867187,0.2730640411376953
0.3314821243286133,0.2807338714599609
0.3314821243286133,0.2807338714599609
0.3256748199462891,0.2760412216186524
0.3256748199462891,0.2760412216186524
0.3322299957275390,0.2795454025268554
0.3322299957275390,0.2795454025268554
0.3296430587768555,0.2834175109863281
0.3296430587768555,0.2834175109863281
0.3298015594482422,0.2788187026977539
0.3298015594482422,0.2788187026977539
0.3352804183959961,0.2866464614868164
0.3352804183959961,0.2866464614868164
0.3295228958129883,0.2821649551391601
0.3295228958129883,0.2821649551391601
0.3360843658447266,0.2854242324829102
0.3360843658447266,0.2854242324829102
0.3333103179931641,0.2889701843261719
0.3333103179931641,0.2889701843261719
0.3326986312866211,0.2827285766601562
0.3326986312866211,0.2827285766601562
0.3364196777343750,0.2876626968383789
0.3364196777343750,0.2876626968383789
0.3278057098388672,0.2781600952148438
0.3278057098388672,0.2781600952148438
0.3298547744750976,0.2745460510253906
0.3298547744750976,0.2745460510253906
0.3219423294067383,0.2704645156860351
0.3219423294067383,0.2704645156860351
0.3162128448486328,0.2572431564331055
0.3162128448486328,0.2572431564331055
0.3160938262939453,0.2569627761840820
0.3160938262939453,0.2569627761840820
0.3054874420166016,0.2457487106323242
0.3054874420166016,0.2457487106323242
0.3083581924438477,0.2440675735473633
0.3083581924438477,0.2440675735473633
0.3029262542724609,0.2443874359130859
0.3029262542724609,0.2443874359130859
0.3010311126708984,0.2367136001586914
0.3010311126708984,0.2367136001586914
0.3051252365112305,0.2424488067626953
0.3051252365112305,0.2424488067626953
0.2982118606567383,0.2363290786743164
0.3033748626708984,0.2363290786743164
0.3040758132934570,0.2385297775268554
0.3040758132934570,0.2385297775268554
0.3008829116821289,0.2415418624877930
0.3008829116821289,0.2415418624877930
0.3005310058593750,0.2359451293945312
0.3005310058593750,0.2359451293945312
0.3057970046997070,0.2432052612304687
0.3057970046997070,0.2432052612304687
0.2995880126953125,0.2381464004516601
0.2995880126953125,0.2381464004516601
0.3062547683715820,0.2414205551147461
0.3035619735717773,0.2454591751098633
0.3039791107177734,0.2408746719360352
0.3039791107177734,0.2408746719360352
0.3099683761596679,0.2493398666381836
0.3099683761596679,0.2493398666381836
0.3045003890991211,0.2451456069946289
0.3045003890991211,0.2451456069946289
0.3120311737060547,0.2496013641357422
0.3120311737060547,0.2496013641357422
0.3098104476928711,0.2544485092163086
0.3098104476928711,0.2544485092163086
0.3106487274169922,0.2503492355346680
0.3095746994018554,0.2503492355346680
0.3168880462646484,0.2590198516845703
0.3168880462646484,0.2590198516845703
0.3111728668212890,0.2547529220581055
0.3111728668212890,0.2547529220581055
0.3184009552001953,0.2586662292480469
0.3184009552001953,0.2586662292480469
0.3156274795532226,0.2626482009887695
0.3206027984619140,0.2626482009887695
0.3156469345092773,0.2572763442993164
0.3156469345092773,0.2572763442993164
0.3209775924682617,0.2648019790649414
0.3209775924682617,0.2648019790649414
0.3144338607788086,0.2588665008544922
0.3144338607788086,0.2588665008544922
0.3206932067871094,0.2618522644042969
0.3206932067871094,0.2618522644042969
0.3170494079589843,0.2642452239990234
0.3170494079589843,0.2642452239990234
0.3167203903198242,0.2584218978881836
0.3167203903198242,0.2584218978881836
0.3214651107788086,0.2654937744140625
0.3214651107788086,0.2654937744140625
0.3145631790161132,0.2590719223022461
0.3145631790161132,0.2590719223022461
0.3212293624877929,0.2624547958374023
0.3150747299194336,0.2624547958374023
0.3171335220336914,0.2649496078491211
0.3171335220336914,0.2649496078491211
0.3175374984741211,0.2593282699584961
0.3175374984741211,0.2593282699584961
0.3223394393920898,0.2671108245849609
0.3223394393920898,0.2671108245849609
0.3158420562744140,0.2609739303588867
0.3158420562744140,0.2609739303588867
0.3227188110351563,0.2649112701416015
0.3227188110351563,0.2649112701416015
0.3193685531616211,0.2681699752807617
0.3193685531616211,0.2681699752807617
0.3181188583374023,0.2671491622924805
0.3181188583374023,0.2671491622924805
0.3181188583374023,0.2670289993286133
0.3228435516357422,0.2653684616088867
0.3228435516357422,0.2653684616088867
0.3243015289306641,0.2725639343261719
0.3243015289306641,0.2725639343261719
0.3201456069946289,0.2661426544189453
0.3201456069946289,0.2661426544189453
0.3277399063110352,0.2731721878051758
0.3228687286376953,0.2731721878051758
0.3215223312377929,0.2722846984863281
0.3215223312377929,0.2722846984863281
0.3263551712036133,0.2708072662353516
0.3263551712036133,0.2708072662353516
0.3278961181640625,0.2781194686889648
0.3293163299560547,0.2781194686889648
0.3238414764404297,0.2718097686767578
0.3238414764404297,0.2718097686767578
0.3315307617187500,0.2789651870727539
0.3315307617187500,0.2789651870727539
0.3253635406494140,0.2779037475585938
0.3253635406494140,0.2779037475585938
0.3301551818847656,0.2764165878295898
0.3301551818847656,0.2764165878295898
0.3316274642944336,0.2836910247802734
0.3316274642944336,0.2836910247802734
0.3274417877197265,0.2772640228271484
0.3274417877197265,0.2772640228271484
0.3349588394165039,0.2842466354370117
0.3349588394165039,0.2842466354370117
0.3286708831787109,0.2829929351806640
0.3286708831787109,0.2829929351806640
0.3333669662475586,0.2814205169677734
0.3333669662475586,0.2814205169677734
0.3347568511962891,0.2885433197021484
0.3361473083496094,0.2885433197021484
0.3306026458740234,0.2820545196533203
0.3329463958740234,0.2820545196533203
0.3380184173583984,0.2890422821044922
0.3380184173583984,0.2890422821044922
0.3317974090576172,0.2876998901367188
0.3317974090576172,0.2876998901367188
0.3365489959716797,0.2862670898437500
0.3365489959716797,0.2862670898437500
0.3378232955932617,0.2933423995971680
0.3378232955932617,0.2933423995971680
0.3336982727050781,0.2868656158447265
0.3336982727050781,0.2868656158447265
0.3410814285278320,0.2936239242553711
0.3360179901123047,0.2936239242553711
0.3343145370483399,0.2915405273437500
0.3413131713867187,0.2915405273437500
0.3381494522094726,0.2881032943725586
0.3328937530517578,0.2881032943725586
0.3372985839843750,0.2916870117187500
0.3370765686035156,0.2916870117187500
0.3297695159912109,0.2796695709228516
0.3297695159912109,0.2796695709228516
0.3325252532958984,0.2792295455932617
0.3325252532958984,0.2792295455932617
0.3206308364868164,0.2692703247070312
0.3206308364868164,0.2692703247070312
0.3196374893188477,0.2593603134155273
0.3196374893188477,0.2593603134155273
0.3153860092163086,0.2585523605346680
0.3153860092163086,0.2585523605346680
0.3067296981811523,0.2456708908081054
0.3067296981811523,0.2456708908081054
0.3105932235717773,0.2477502822875977
0.3105932235717773,0.2477502822875977
0.3017629623413086,0.2429220199584961
0.3017629623413086,0.2429220199584961
0.3049736022949219,0.2391443252563477
0.3049736022949219,0.2391443252563477
0.3049564361572266,0.2444601058959961
0.3049564361572266,0.2444601058959961
0.3001161575317383,0.2368423461914062
0.3001161575317383,0.2368423461914062
0.3069980621337891,0.2429855346679687
0.3069980621337891,0.2429855346679687
0.3002912521362305,0.2409421920776367
0.3002912521362305,0.2409421920776367
0.3051023483276367,0.2392936706542969
0.3051023483276367,0.2392936706542969
0.3062484741210937,0.2460788726806641
0.3062484741210937,0.2460788726806641
0.3021738052368164,0.2397439956665039
0.3021738052368164,0.2397439956665039
0.3098791122436523,0.2470882415771484
0.3098791122436523,0.2470882415771484
0.3039304733276367,0.2460920333862305
0.3039304733276367,0.2460920333862305
0.3095071792602539,0.2456697463989258
0.3095071792602539,0.2456697463989258
0.3114389419555664,0.2536909103393555
0.3114389419555664,0.2536909103393555
0.3080692291259766,0.2485118865966797
0.3080692291259766,0.2485118865966797
0.3164886474609375,0.2567893981933594
0.3164886474609375,0.2567893981933594
0.3109445571899414,0.2563613891601562
0.3109445571899414,0.2563613891601562
0.3167472839355469,0.2562166213989258
0.3167472839355469,0.2562166213989258
0.3187053680419922,0.2642160415649414
0.3187053680419922,0.2642160415649414
0.3151033401489258,0.2585718154907227
0.3151033401489258,0.2585718154907227
0.3229883193969726,0.2660310745239258
0.3229883193969726,0.2660310745239258
0.3166763305664063,0.2645072937011719
0.3166763305664063,0.2645072937011719
0.3217077255249023,0.2631031036376953
0.3217077255249023,0.2631031036376953
0.3225648880004883,0.2697395324707031
0.3225648880004883,0.2697395324707031
0.3182144165039062,0.2627111434936523
0.3182144165039062,0.2627111434936523
0.3251535415649414,0.2689292907714844
0.3200729370117187,0.2631231307983398
0.3201129913330078,0.2631231307983398
0.3178882598876953,0.2635723114013672
0.3231004714965820,0.2635723114013672
0.3203990936279297,0.2695043563842773
0.3203990936279297,0.2695043563842773
0.3255237579345703,0.2710659027099609
0.3255237579345703,0.2710659027099609
0.3255237579345703,0.2711374282836914
0.3200037002563477,0.2651636123657227
0.3200037002563477,0.2651636123657227
0.3200037002563477,0.2654434204101562
0.3273353576660156,0.2724128723144531
0.3273353576660156,0.2724128723144531
0.3207698822021484,0.2704696655273438
0.3207698822021484,0.2704696655273438
0.3258647918701172,0.2693733215332031
0.3258647918701172,0.2693733215332031
0.3268758773803711,0.2763301849365234
0.3268758773803711,0.2763301849365234
0.3230403900146484,0.2700897216796875
0.3230403900146484,0.2700897216796875
0.3305700302124023,0.2773870468139648
0.3305700302124023,0.2773870468139648
0.3241847991943359,0.2758249282836914
0.3241847991943359,0.2758249282836914
0.3295932769775390,0.2750341415405274
0.3295932769775390,0.2750341415405274
0.3307107925415039,0.2822175979614258
0.3307107925415039,0.2822175979614258
0.3269411087036133,0.2761482238769531
0.3269411087036133,0.2761482238769531
0.3345113754272461,0.2834712982177734
0.3345113754272461,0.2834712982177734
0.3280597686767578,0.2817626953125000
0.3357078552246094,0.2817626953125000
0.3333732604980469,0.2809633255004882
0.3333732604980469,0.2809633255004882
0.3343660354614258,0.2878383636474609
0.3343660354614258,0.2878383636474609
0.3304452896118164,0.2815515518188477
0.3304452896118164,0.2815515518188477
0.3379915237426758,0.2886789321899414
0.3379915237426758,0.2886789321899414
0.3313533782958984,0.2867683410644531
0.3313533782958984,0.2867683410644531
0.3365427017211914,0.2857423782348633
0.3319656372070313,0.2857423782348633
0.3374038696289062,0.2925161361694336
0.3374038696289062,0.2925161361694336
0.3334928512573242,0.2863946914672851
0.3334928512573242,0.2863946914672851
0.3406969070434570,0.2931890487670898
0.3406969070434570,0.2931890487670898
0.3342184066772461,0.2912641525268554
0.3342184066772461,0.2912641525268554
0.3394672393798828,0.2902936935424805
0.3394672393798828,0.2902936935424805
0.3403038024902343,0.2971813201904297
0.3403038024902343,0.2971813201904297
0.3363950729370117,0.2907920837402344
0.3363950729370117,0.2907920837402344
0.3436969757080078,0.2978170394897461
0.3436969757080078,0.2978170394897461
0.3370628356933594,0.2957118988037109
0.3370628356933594,0.2957118988037109
0.3422470092773438,0.2944736480712891
0.3422470092773438,0.2944736480712891
0.3426160812377930,0.3005304336547852
0.3426160812377930,0.3005304336547852
0.3377254486083984,0.2923021316528320
0.3377254486083984,0.2923021316528320
0.3430343627929687,0.2959373474121094
0.3430343627929687,0.2959373474121094
0.3332370758056640,0.2886217117309570
0.3332370758056640,0.2886217117309570
0.3342132568359375,0.2807041168212890
0.3342132568359375,0.2807041168212890
0.3296636581420898,0.2789823532104492
0.3296636581420898,0.2789823532104492
0.3199287414550781,0.2639825820922851
0.3199287414550781,0.2639825820922851
0.3218135833740234,0.2629737854003906
0.3218135833740234,0.2629737854003906
0.3102327346801758,0.2539970397949219
0.3102327346801758,0.2539970397949219
0.3116191864013672,0.2474172592163086
0.3116191864013672,0.2474172592163086
0.3094722747802734,0.2501913070678711
0.3094722747802734,0.2501913070678711
0.3036495208740234,0.2412242889404297
0.3036495208740234,0.2412242889404297
0.3097658157348633,0.2463947296142578
0.3097658157348633,0.2463947296142578
0.3023809432983398,0.2432178497314453
0.3023809432983398,0.2432178497314453
0.3073202133178711,0.2416574478149414
0.3073202133178711,0.2416574478149414
0.3079021453857422,0.2480506896972656
0.3079021453857422,0.2480506896972656
0.3038452148437500,0.2415761947631836
0.3038452148437500,0.2415761947631836
0.3113044738769531,0.2485868453979492
0.3113044738769531,0.2485868453979492
0.3048545837402344,0.2468055725097656
0.3048545837402344,0.2468055725097656
0.3106573104858398,0.2465234756469726
0.3106573104858398,0.2465234756469726
0.3119876861572266,0.2541269302368164
0.3119876861572266,0.2541269302368164
0.3088411331176757,0.2488494873046875
0.3088411331176757,0.2488494873046875
0.3170248031616211,0.2570417404174805
0.3170248031616211,0.2570417404174805
0.3111499786376953,0.2562166213989258
0.3111499786376953,0.2562166213989258
0.3174282073974609,0.2566034317016602
0.3174282073974609,0.2566034317016602
0.3189462661743164,0.2643087387084961
0.3189462661743164,0.2643087387084961
0.3157608032226563,0.2589866638183594
0.3157608032226563,0.2589866638183594
0.3235628128051758,0.2666730880737305
0.3235628128051758,0.2666730880737305
0.3170934677124023,0.2647264480590820
0.3170934677124023,0.2647264480590820
0.3227697372436523,0.2641382217407227
0.3227697372436523,0.2641382217407227
0.3231027603149414,0.2703117370605468
0.3231027603149414,0.2703117370605468
0.3191802978515625,0.2635728836059570
0.3191802978515625,0.2635728836059570
0.3258613586425781,0.2697532653808594
0.3258613586425781,0.2697532653808594
0.3186120986938477,0.2666971206665039
0.3258069992065429,0.2666971206665039
0.3234008789062500,0.2648889541625977
0.3234008789062500,0.2648889541625977
0.3234764099121094,0.2704851150512695
0.3234764099121094,0.2704851150512695
0.3189348220825195,0.2634098052978516
0.3189348220825195,0.2634098052978516
0.3256021499633789,0.2692502975463867
0.3256021499633789,0.2692502975463867
0.3182876586914062,0.2663045883178711
0.3182876586914062,0.2663045883178711
0.3232686996459961,0.2647224426269531
0.3232686996459961,0.2647224426269531
0.3235055923461914,0.2706756591796875
0.3235055923461914,0.2706756591796875
0.3193851470947265,0.2639425277709961
0.3193851470947265,0.2639425277709961
0.3264095306396484,0.2704656600952148
0.3264095306396484,0.2704656600952148
0.3194801330566406,0.2680349349975586
0.3194801330566406,0.2680349349975586
0.3248296737670898,0.2670238494873047
0.3248296737670898,0.2670238494873047
0.3253332138061523,0.2734989166259765
0.3253332138061523,0.2734989166259765
0.3215354919433593,0.2671503067016601
0.3215354919433593,0.2671503067016601
0.3285661697387695,0.2739875793457031
0.3285661697387695,0.2739875793457031
0.3218593597412109,0.2719882965087890
0.3218593597412109,0.2719882965087890
0.3274520874023437,0.2711076736450195
0.3274520874023437,0.2711076736450195
0.3280660629272461,0.2778356552124023
0.3280660629272461,0.2778356552124023
0.3244119644165039,0.2717943191528320
0.3244119644165039,0.2717943191528320
0.3270847320556641,0.2732013702392578
0.3270847320556641,0.2732013702392578
0.3320005416870117,0.2810514450073242
0.3304544448852539,0.2810514450073242
0.3257863998413086,0.2751594543457031
0.3311170578002929,0.2751594543457031
0.3329217910766601,0.2795648574829102
0.3272169113159180,0.2795648574829102
0.3288963317871094,0.2823829650878906
0.3288963317871094,0.2823829650878906
0.3300458908081055,0.2776330947875976
0.3275505065917969,0.2776330947875976
0.3349496841430664,0.2856033325195312
0.3349496841430664,0.2856033325195312
0.3287538528442382,0.2798303604125976
0.3287538528442382,0.2798303604125976
0.3360820770263672,0.2843845367431641
0.3360820770263672,0.2843845367431641
0.3320068359375000,0.2872289657592773
0.3320068359375000,0.2872289657592773
0.3330745697021484,0.2825483322143554
0.3307273864746094,0.2825483322143554
0.3380493164062500,0.2903560638427734
0.3380493164062500,0.2903560638427734
0.3319175720214844,0.2846694946289062
0.3371555328369141,0.2846694946289062
0.3390638351440430,0.2889942169189453
0.3390638351440430,0.2889942169189453
0.3347190856933593,0.2914466857910156
0.3403249740600586,0.2914466857910156
0.3354154586791992,0.2856136322021484
0.3354154586791992,0.2856136322021484
0.3390214920043945,0.2913219451904297
0.3364219665527344,0.2913219451904297
0.3305694580078125,0.2815858840942383
0.3305694580078125,0.2815858840942383
0.3342166900634765,0.2802543640136719
0.3260341644287109,0.2802543640136719
0.3253211975097656,0.2754472732543945
0.3253211975097656,0.2754472732543945
0.3213146209716797,0.2627586364746093
0.3213146209716797,0.2627586364746093
0.3209203720092773,0.2626813888549804
0.3209203720092773,0.2626813888549804
0.3098213195800781,0.2499675750732422
0.3128780364990234,0.2499675750732422
0.3130125045776367,0.2486658096313477
0.3054634094238281,0.2486658096313477
0.3056882858276367,0.2471529006958008
0.3056882858276367,0.2471529006958008
0.3048179626464844,0.2393920898437500
0.3013618469238281,0.2393920898437500
0.3079902648925781,0.2449499130249023
0.3058868408203125,0.2449499130249023
0.3008028030395508,0.2375364303588867
0.3008028030395508,0.2375364303588867
0.3074100494384766,0.2408998489379883
0.3012256622314453,0.2408998489379883
0.3024787902832031,0.2427698135375976
0.3082260131835937,0.2427698135375976
0.3035425186157226,0.2375633239746094
0.3007787704467773,0.2375633239746094
0.3081172943115234,0.2449235916137695
0.3081172943115234,0.2449235916137695
0.3018550872802734,0.2388444900512695
0.3018550872802734,0.2388444900512695
0.3093137741088867,0.2434850692749023
0.3034532546997070,0.2434850692749023
0.3049707412719727,0.2463043212890625
0.3111248016357422,0.2463043212890625
0.3067491531372070,0.2421592712402344
0.3043441772460938,0.2421592712402344
0.3120815277099609,0.2507795333862304
0.3120815277099609,0.2507795333862304
0.3065952301025390,0.2456708908081054
0.3121101379394531,0.2456708908081054
0.3146936416625977,0.2514650344848633
0.3092250823974609,0.2514650344848633
0.3110727310180664,0.2550138473510742
0.3110727310180664,0.2550138473510742
0.3131910324096679,0.2515159606933594
0.3108535766601562,0.2515159606933594
0.3186286926269531,0.2603748321533203
0.3186286926269531,0.2603748321533203
0.3129690170288086,0.2551883697509765
0.3183465957641601,0.2551883697509765
0.3208711624145508,0.2603250503540039
0.3151737213134765,0.2603250503540039
0.3165996551513672,0.2631551742553711
0.3226192474365234,0.2631551742553711
0.3181663513183594,0.2584985733032226
0.3153270721435547,0.2584985733032226
0.3226953506469726,0.2660413742065429
0.3212413787841797,0.2660413742065429
0.3162117004394531,0.2596097946166992
0.3210680007934570,0.2596097946166992
0.3232011795043945,0.2634704589843750
0.3232011795043945,0.2634704589843750
0.3182481765747070,0.2652757644653320
0.3239542007446289,0.2652757644653320
0.3190979003906250,0.2597826004028320
0.3161190032958984,0.2597826004028320
0.3231840133666992,0.2668401718139649
0.3216081619262695,0.2668401718139649
0.3166288375854492,0.2601202011108398
0.3214948654174805,0.2601202011108398
0.3235290527343750,0.2639425277709961
0.3173486709594727,0.2639425277709961
0.3184782028198242,0.2658611297607422
0.3244005203247070,0.2658611297607422
0.3197490692138672,0.2606248855590820
0.3168714523315430,0.2606248855590820
0.3240949630737305,0.2680841445922851
0.3240949630737305,0.2680841445922851
0.3177778244018555,0.2619066238403320
0.3226987838745117,0.2619066238403320
0.3249446868896484,0.2662731170654297
0.3191001892089844,0.2662731170654297
0.3203670501708984,0.2686780929565429
0.3264072418212891,0.2686780929565429
0.3218988418579101,0.2641136169433594
0.3191253662109375,0.2641136169433594
0.3265514373779297,0.2719396591186523
0.3251998901367187,0.2719396591186523
0.3204442977905274,0.2661643981933594
0.3255374908447266,0.2661643981933594
0.3279682159423828,0.2709131240844727
0.3221288681030273,0.2709131240844727
0.3235141754150391,0.2735624313354492
0.3296710968017578,0.2735624313354492
0.3252124786376953,0.2692016601562500
0.3224847793579101,0.2692016601562500
0.3299531936645508,0.2772783279418945
0.3287178039550781,0.2772783279418945
0.3239616394042968,0.2715408325195313
0.3291309356689453,0.2715408325195313
0.3315422058105469,0.2763570785522461
0.3257257461547852,0.2763570785522461
0.3269783020019531,0.2789531707763672
0.3330247879028320,0.2789531707763672
0.3287343978881836,0.2746519088745117
0.3259649276733398,0.2746519088745117
0.3333858489990234,0.2824773788452148
0.3321081161499023,0.2824773788452148
0.3272838592529297,0.2766912460327148
0.3323226928710937,0.2766912460327148
0.3347105026245117,0.2813787460327148
0.3289524078369140,0.2813787460327148
0.3300836563110351,0.2837968826293945
0.3361473083496094,0.2837968826293945
0.3317922592163086,0.2792661666870117
0.3289867401123047,0.2792661666870117
0.3363721847534180,0.2871414184570312
0.3350521087646484,0.2871414184570312
0.3303234100341797,0.2813106536865234
0.3352741241455078,0.2813106536865234
0.3376447677612305,0.2860456466674804
0.3319232940673828,0.2860456466674804
0.3332433700561523,0.2886222839355468
0.3392023086547851,0.2886222839355468
0.3348129272460937,0.2842763900756836
0.3322025299072265,0.2842763900756836
0.3395256042480468,0.2920806884765625
0.3381786346435547,0.2920806884765625
0.3335477828979492,0.2865308761596679
0.3386421203613281,0.2865308761596679
0.3408313751220703,0.2910261154174805
0.3351299285888672,0.2910261154174805
0.3363441467285156,0.2934053421020508
0.3420845031738281,0.2934053421020508
0.3374456405639648,0.2878984451293945
0.3341566085815429,0.2878984451293945
0.3408010482788086,0.2937349319458007
0.3387119293212891,0.2937349319458007
0.3328090667724609,0.2844560623168945
0.3362388610839844,0.2844560623168945
0.3368705749511718,0.2835176467895508
0.3289146423339844,0.2835176467895508
0.3278841018676757,0.2787929534912109
0.3311450958251953,0.2787929534912109
0.3241138458251953,0.2658725738525390
0.3185548782348633,0.2658725738525390
0.3231903076171875,0.2653495788574219
0.3190538406372070,0.2653495788574219
0.3118761062622070,0.2518712997436524
0.3143228530883789,0.2518712997436524
0.3146032333374023,0.2498353958129883
0.3069059371948242,0.2498353958129883
0.3065563201904297,0.2475339889526367
0.3112169265747070,0.2475339889526367
0.3057300567626953,0.2395751953125000
0.3020341873168945,0.2395751953125000
0.3084480285644531,0.2447942733764648
0.3065488815307617,0.2447942733764648
0.3013126373291016,0.2372709274291992
0.3057243347167969,0.2372709274291992
0.3076978683471679,0.2404809951782226
0.3016113281250000,0.2404809951782226
0.3025114059448242,0.2420007705688476
0.3083038330078125,0.2420007705688476
0.3038412094116211,0.2369178771972656
0.3009578704833984,0.2369178771972656
0.3080955505371094,0.2441659927368164
0.3067211151123047,0.2441659927368164
0.3020124435424805,0.2382505416870117
0.3068904876708984,0.2382505416870117
0.3092966079711914,0.2425775527954102
0.3035928726196289,0.2425775527954102
0.3047372817993164,0.2452497482299805
0.3047372817993164,0.2452497482299805
0.3068773269653320,0.2411710739135742
0.3042440414428711,0.2411710739135742
0.3116775512695312,0.2495161056518554
0.3108146667480469,0.2495161056518554
0.3063611984252930,0.2446380615234375
0.3116844177246094,0.2446380615234375
0.3144407272338867,0.2501180648803711
0.3091060638427734,0.2501180648803711
0.3104593276977539,0.2535907745361328
0.3168445587158203,0.2535907745361328
0.3130302429199219,0.2502977371215820
0.3105606079101562,0.2502977371215820
0.3181863784790039,0.2589242935180664
0.3173126220703125,0.2589242935180664
0.3128236770629882,0.2540737152099609
0.3179958343505859,0.2540737152099609
0.3206462860107422,0.2591588973999023
0.3150747299194336,0.2591588973999023
0.3161933898925781,0.2619260787963867
0.3223194122314453,0.2619260787963867
0.3180730819702148,0.2575223922729492
0.3152984619140625,0.2575223922729492
0.3224779129028320,0.2651018142700195
0.3210668563842773,0.2651018142700195
0.3163244247436524,0.2588418960571289
0.3209615707397461,0.2588418960571289
0.3231605529785156,0.2627048492431641
0.3231605529785156,0.2627048492431641
0.3180908203125000,0.2643350601196289
0.3237653732299804,0.2643350601196289
0.3194097518920898,0.2592098236083984
0.3164136886596680,0.2592098236083984
0.3231925964355469,0.2659601211547851
0.3216894149780273,0.2659601211547851
0.3168537139892578,0.2595462799072266
0.3213724136352539,0.2595462799072266
0.3235244750976562,0.2632146835327148
0.3177343368530273,0.2632146835327148
0.3184741973876953,0.2649536132812500
0.3242626190185547,0.2649536132812500
0.3200408935546875,0.2602003097534180
0.3170608520507812,0.2602003097534180
0.3240503311157226,0.2673877716064453
0.3228830337524414,0.2673877716064453
0.3181491851806640,0.2615324020385742
0.3227863311767578,0.2615324020385742
0.3252490997314453,0.2659160614013672
0.3196540832519531,0.2659160614013672
0.3205478668212891,0.2682746887207031
0.3265811920166016,0.2682746887207031
0.3225099563598633,0.2641639709472656
0.3198348999023438,0.2641639709472656
0.3269388198852539,0.2718847274780273
0.3258865356445312,0.2718847274780273
0.3213563919067383,0.2666685104370117
0.3261766433715820,0.2666685104370117
0.3287961959838867,0.2714469909667969
0.3232767105102539,0.2714469909667969
0.3243753433227539,0.2743303298950195
0.3306226730346680,0.2743303298950195
0.3266515731811523,0.2705280303955078
0.3239891052246094,0.2705280303955078
0.3312406539916992,0.2786207199096680
0.3303651809692383,0.2786207199096680
0.3258321762084961,0.2735773086547851
0.3306730270385742,0.2735773086547851
0.3332462310791016,0.2786458969116211
0.3278875350952148,0.2786458969116211
0.3290227890014648,0.2813306808471679
0.3350486755371094,0.2813306808471679
0.3312480926513672,0.2777400970458984
0.3285449981689453,0.2777400970458984
0.3357421875000000,0.2857555389404297
0.3348129272460937,0.2857555389404297
0.3303033828735352,0.2806835174560547
0.3350864410400390,0.2806835174560547
0.3377191543579102,0.2854373931884766
0.3322128295898437,0.2854373931884766
0.3330808639526367,0.2880523681640625
0.3392932891845703,0.2880523681640625
0.3353851318359375,0.2840332031250000
0.3325721740722656,0.2840332031250000
0.3396011352539062,0.2917350769042968
0.3385751724243164,0.2917350769042968
0.3338665008544922,0.2862716674804687
0.3385374069213867,0.2862716674804687
0.3411437988281250,0.2907691955566406
0.3355058670043945,0.2907691955566406
0.3362771987915039,0.2929738998413086
0.3423791885375976,0.2929738998413086
0.3429531097412109,0.2918369293212891
0.3425943374633789,0.2918369293212891
0.3416049957275391,0.2916669845581055
0.3416049957275391,0.2916669845581055
0.3413349151611328,0.2978073120117187
0.3413349151611328,0.2978073120117187
0.3384824752807617,0.2921333312988281
0.3384824752807617,0.2921333312988281
0.3452116012573242,0.2986919403076172
0.3452116012573242,0.2986919403076172
0.3385803222656250,0.2965599060058594
0.3385803222656250,0.2965599060058594
0.3445501327514648,0.2961902618408203
0.3445501327514648,0.2961902618408203
0.3440443038940429,0.3020696640014648
0.3440443038940429,0.3020696640014648
0.3408897399902344,0.2956123352050781
0.3408897399902344,0.2956123352050781
0.3468126296997070,0.3005470275878906
0.3468126296997070,0.3005470275878906
0.3383131027221680,0.2951208114624023
0.3383131027221680,0.2951208114624023
0.3412158966064453,0.2899686813354492
0.3412158966064453,0.2899686813354492
0.3368047714233398,0.2892774581909179
0.3368047714233398,0.2892774581909179
0.3290021896362305,0.2755622863769531
0.3290021896362305,0.2755622863769531
0.3303039550781250,0.2733770370483398
0.3303039550781250,0.2733770370483398
0.3181331634521484,0.2631282806396484
0.3181331634521484,0.2631282806396484
0.3192707061767578,0.2556306838989258
0.3192707061767578,0.2556306838989258
0.3144836425781250,0.2554801940917968
0.3144836425781250,0.2554801940917968
0.3084165573120117,0.2450798034667969
0.3084165573120117,0.2450798034667969
0.3128580093383789,0.2484363555908203
0.3128580093383789,0.2484363555908203
0.3046016693115234,0.2440870285034180
0.3046016693115234,0.2440870285034180
0.3096588134765625,0.2424808502197265
0.3096588134765625,0.2424808502197265
0.3085287094116211,0.2474985122680664
0.3085287094116211,0.2474985122680664
0.3054971694946289,0.2412506103515625
0.3054971694946289,0.2412506103515625
0.3122783660888672,0.2478429794311523
0.3122783660888672,0.2478429794311523
0.3056436538696289,0.2455604553222656
0.3056436538696289,0.2455604553222656
0.3118320465087890,0.2455919265747070
0.3118320465087890,0.2455919265747070
0.3117238998413086,0.2521688461303711
0.3117238998413086,0.2521688461303711
0.3095483779907227,0.2472427368164062
0.3095483779907227,0.2472427368164062
0.3169836044311523,0.2548759460449219
0.3169836044311523,0.2548759460449219
0.3111104965209961,0.2537406921386718
0.3111104965209961,0.2537406921386718
0.3179878234863281,0.2548456192016602
0.3179878234863281,0.2548456192016602
0.3183168411254882,0.2621166229248047
0.3183168411254882,0.2621166229248047
0.3164691925048828,0.2575744628906250
0.3164691925048828,0.2575744628906250
0.3240182876586914,0.2653009414672852
0.3240182876586914,0.2653009414672852
0.3180416107177734,0.2639745712280273
0.3254053115844727,0.2639745712280273
0.3244714736938477,0.2643928527832031
0.3196832656860352,0.2643928527832031
0.3242105484008789,0.2706687927246094
0.3242105484008789,0.2706687927246094
0.3215904235839844,0.2648466110229492
0.3215904235839844,0.2648466110229492
0.3282039642333984,0.2712209701538086
0.3282039642333984,0.2712209701538086
0.3212785720825195,0.2684823989868164
0.3212785720825195,0.2684823989868164
0.3268083572387695,0.2676383972167969
0.3268083572387695,0.2676383972167969
0.3256999969482422,0.2727161407470703
0.3256999969482422,0.2727161407470703
0.3225025177001953,0.2660665512084961
0.3225025177001953,0.2660665512084961
0.3287258148193359,0.2718143463134766
0.3287258148193359,0.2718143463134766
0.3215400695800781,0.2688028335571289
0.3215400695800781,0.2688028335571289
0.3271677017211914,0.2678329467773438
0.3271677017211914,0.2678329467773438
0.3260118484497070,0.2731121063232422
0.3260118484497070,0.2731121063232422
0.3229757308959961,0.2666994094848633
0.3229757308959961,0.2666994094848633
0.3293724060058594,0.2728036880493164
0.3293724060058594,0.2728036880493164
0.3224241256713867,0.2701606750488281
0.3224241256713867,0.2701606750488281
0.3282503128051757,0.2696599960327148
0.3282503128051757,0.2696599960327148
0.3272815704345703,0.2752927780151367
0.3272815704345703,0.2752927780151367
0.3245967864990234,0.2693161010742187
0.3245967864990234,0.2693161010742187
0.3312223434448242,0.2758077621459961
0.3312223434448242,0.2758077621459961
0.3244560241699219,0.2733655929565429
0.3244560241699219,0.2733655929565429
0.3305139541625977,0.2732654571533203
0.3305139541625977,0.2732654571533203
0.3296728134155273,0.2791568756103516
0.3296728134155273,0.2791568756103516
0.3272020339965820,0.2733884811401367
0.3272020339965820,0.2733884811401367
0.3338396072387695,0.2800289154052734
0.3338396072387695,0.2800289154052734
0.3271934509277344,0.2777463912963867
0.3343059539794922,0.2777463912963867
0.3333143234252929,0.2777881622314453
0.3333143234252929,0.2777881622314453
0.3325967788696289,0.2836263656616211
0.3325967788696289,0.2836263656616211
0.3300607681274414,0.2778316497802734
0.3300607681274414,0.2778316497802734
0.3367681503295898,0.2845378875732422
0.3367681503295898,0.2845378875732422
0.3299509048461914,0.2820854187011719
0.3299509048461914,0.2820854187011719
0.3359012603759766,0.2819658279418945
0.3359012603759766,0.2819658279418945
0.3350847244262695,0.2876546859741211
0.3350847244262695,0.2876546859741211
0.3325063705444336,0.2816905975341797
0.3325063705444336,0.2816905975341797
0.3390832901000976,0.2883596420288086
0.3390832901000976,0.2883596420288086
0.3324056625366211,0.2858505249023438
0.3324056625366211,0.2858505249023438
0.3385385513305664,0.2858007431030273
0.3385385513305664,0.2858007431030273
0.3375308990478516,0.2915954589843750
0.3375308990478516,0.2915954589843750
0.3349628448486328,0.2856439590454101
0.3349628448486328,0.2856439590454101
0.3415935516357422,0.2921590805053711
0.3415935516357422,0.2921590805053711
0.3348100662231445,0.2897157669067383
0.3348100662231445,0.2897157669067383
0.3408771514892578,0.2895046234130859
0.3408771514892578,0.2895046234130859
0.3398111343383789,0.2950750350952148
0.3398111343383789,0.2950750350952148
0.3370101928710937,0.2885301589965820
0.3370101928710937,0.2885301589965820
0.3427425384521484,0.2935981750488281
0.3427425384521484,0.2935981750488281
0.3344455718994140,0.2882617950439453
0.3344455718994140,0.2882617950439453
0.3375263214111328,0.2833665847778320
0.3375263214111328,0.2833665847778320
0.3326917648315429,0.2827028274536132
0.3326917648315429,0.2827028274536132
0.3253595352172852,0.2688892364501953
0.3253595352172852,0.2688892364501953
0.3266378402709961,0.2674278259277343
0.3266378402709961,0.2674278259277343
0.3149099349975586,0.2575475692749024
0.3149099349975586,0.2575475692749024
0.3163084030151367,0.2507732391357422
0.3163084030151367,0.2507732391357422
0.3115236282348633,0.2511863708496094
0.3115236282348633,0.2511863708496094
0.3063720703125000,0.2416608810424805
0.3057197570800781,0.2416608810424805
0.3108078002929687,0.2451765060424805
0.3108078002929687,0.2451765060424805
0.3028982162475586,0.2408821105957031
0.3028982162475586,0.2408821105957031
0.3080514907836914,0.2394830703735351
0.3080514907836914,0.2394830703735351
0.3064785003662109,0.2443954467773437
0.3064785003662109,0.2443954467773437
0.3037284851074218,0.2379226684570312
0.3037284851074218,0.2379226684570312
0.3101497650146484,0.2442089080810547
0.3101497650146484,0.2442089080810547
0.3034727096557617,0.2416551589965820
0.3034727096557617,0.2416551589965820
0.3096359252929687,0.2417278289794922
0.3096359252929687,0.2417278289794922
0.3087152481079101,0.2476930618286133
0.3087152481079101,0.2476930618286133
0.3068578720092773,0.2423606872558594
0.3068578720092773,0.2423606872558594
0.3139657974243164,0.2497203826904297
0.3139657974243164,0.2497203826904297
0.3079765319824219,0.2482652664184570
0.3079765319824219,0.2482652664184570
0.3147960662841797,0.2494073867797851
0.3147960662841797,0.2494073867797851
0.3145809173583984,0.2562046051025391
0.3145809173583984,0.2562046051025391
0.3129495620727539,0.2513631820678711
0.3129495620727539,0.2513631820678711
0.3203510284423828,0.2590393066406250
0.3203510284423828,0.2590393066406250
0.3142541885375976,0.2574090957641602
0.3142541885375976,0.2574090957641602
0.3208288192749023,0.2580385208129883
0.3208288192749023,0.2580385208129883
0.3200214385986328,0.2641033172607422
0.3200214385986328,0.2641033172607422
0.3177629470825195,0.2581827163696289
0.3177629470825195,0.2581827163696289
0.3243095397949219,0.2647584915161132
0.3243095397949219,0.2647584915161132
0.3173852920532226,0.2618488311767578
0.3173852920532226,0.2618488311767578
0.3231840133666992,0.2612943649291992
0.3231840133666992,0.2612943649291992
0.3216871261596679,0.2664350509643554
0.3216871261596679,0.2664350509643554
0.3189119338989257,0.2597963333129883
0.3189119338989257,0.2597963333129883
0.3250453948974609,0.2656923294067383
0.3250453948974609,0.2656923294067383
0.3179431915283203,0.2624519348144531
0.3179431915283203,0.2624519348144531
0.3235685348510742,0.2617950439453125
0.3235685348510742,0.2617950439453125
0.3220733642578125,0.2670278549194336
0.3220733642578125,0.2670278549194336
0.3194869995117187,0.2605905532836914
0.3194869995117187,0.2605905532836914
0.3257343292236328,0.2668201446533203
0.3257343292236328,0.2668201446533203
0.3189210891723633,0.2640987396240234
0.3189210891723633,0.2640987396240234
0.3248199462890625,0.2640392303466797
0.3248199462890625,0.2640392303466797
0.3237207412719726,0.2696371078491211
0.3237207412719726,0.2696371078491211
0.3214679718017578,0.2637594223022461
0.3214679718017578,0.2637594223022461
0.3280437469482422,0.2704902648925781
0.3280437469482422,0.2704902648925781
0.3215818405151367,0.2682060241699218
0.3215818405151367,0.2682060241699218
0.3277822494506836,0.2684715270996094
0.3277822494506836,0.2684715270996094
0.3267917633056641,0.2743875503540039
0.3267917633056641,0.2743875503540039
0.3247364044189453,0.2687925338745117
0.3247364044189453,0.2687925338745117
0.3312440872192383,0.2755634307861328
0.3312440872192383,0.2755634307861328
0.3248800277709961,0.2733947753906250
0.3248800277709961,0.2733947753906250
0.3311925888061523,0.2737615585327148
0.3311925888061523,0.2737615585327148
0.3301031112670899,0.2797725677490234
0.3301031112670899,0.2797725677490234
0.3280574798583984,0.2740922927856445
0.3280574798583984,0.2740922927856445
0.3347820281982422,0.2808963775634766
0.3347820281982422,0.2808963775634766
0.3282657623291015,0.2785274505615234
0.3282657623291015,0.2785274505615234
0.3344490051269531,0.2788524627685547
0.3292985916137695,0.2788524627685547
0.3332382202148437,0.2847164154052734
0.3332382202148437,0.2847164154052734
0.3312074661254883,0.2788993835449219
0.3312074661254883,0.2788993835449219
0.3378639221191406,0.2858453750610351
0.3378639221191406,0.2858453750610351
0.3313379287719727,0.2834140777587891
0.3313379287719727,0.2834140777587891
0.3375434875488281,0.2837310791015625
0.3375434875488281,0.2837310791015625
0.3364179611206055,0.2895566940307617
0.3364179611206055,0.2895566940307617
0.3343568801879883,0.2838804244995117
0.3343568801879883,0.2838804244995117
0.3409847259521484,0.2907571792602539
0.3409847259521484,0.2907571792602539
0.3344181060791016,0.2883579254150391
0.3344181060791016,0.2883579254150391
0.3405361175537109,0.2883207321166992
0.3405361175537109,0.2883207321166992
0.3389751434326172,0.2933835983276367
0.3389751434326172,0.2933835983276367
0.3359802246093750,0.2858585357666015
0.3359802246093750,0.2858585357666015
0.3357690811157226,0.2819051742553711
0.3307245254516601,0.2819051742553711
0.3328199386596680,0.2834650039672851
0.3330339431762695,0.2834650039672851
0.3254253387451172,0.2703575134277343
0.3267568588256836,0.2703575134277343
0.3273101806640625,0.2667222976684570
0.3192003250122070,0.2667222976684570
0.3167879104614258,0.2607398986816406
0.3207544326782226,0.2607398986816406
0.3149236679077148,0.2498308181762695
0.3093761444091797,0.2498308181762695
0.3140138626098632,0.2514650344848633
0.3119184494018555,0.2514650344848633
0.3054880142211914,0.2413387298583984
0.3082300186157226,0.2413387298583984
0.3103511810302734,0.2427549362182617
0.3040409088134766,0.2427549362182617
0.3033857345581055,0.2422582626342773
0.3092903137207031,0.2422582626342773
0.3053300857543945,0.2367061614990234
0.3015941619873047,0.2367061614990234
0.3077436447143554,0.2429758071899414
0.3071136474609375,0.2429758071899414
0.3018167495727539,0.2364669799804687
0.3056207656860351,0.2364669799804687
0.3086317062377930,0.2404151916503906
0.3031826019287109,0.2404151916503906
0.3030641555786133,0.2418851852416992
0.3095512390136719,0.2418851852416992
0.3060029983520507,0.2377109527587891
0.3027133941650391,0.2377109527587891
0.3092800140380859,0.2450889587402344
0.3089246749877930,0.2450889587402344
0.3040643692016601,0.2394859313964844
0.3080904006958008,0.2394859313964844
0.3114177703857422,0.2446352005004883
0.3062765121459961,0.2446352005004883
0.3065952301025390,0.2469039916992187
0.3134490966796875,0.2469039916992187
0.3101669311523437,0.2438472747802734
0.3072544097900390,0.2438472747802734
0.3141489028930664,0.2522500991821289
0.3140996932983398,0.2522500991821289
0.3094110488891602,0.2474510192871094
0.3137123107910156,0.2474510192871094
0.3172119140625000,0.2530128479003906
0.3122205734252930,0.2530128479003906
0.3125335693359375,0.2557073593139648
0.3193634033203125,0.2557073593139648
0.3161367416381836,0.2523376464843750
0.3130617141723633,0.2523376464843750
0.3196483612060547,0.2602569580078125
0.3194652557373047,0.2602569580078125
0.3145448684692383,0.2546333312988281
0.3183952331542969,0.2546333312988281
0.3215818405151367,0.2592687606811523
0.3161481857299804,0.2592687606811523
0.3160675048828125,0.2606540679931640
0.3225345611572266,0.2606540679931640
0.3187900543212890,0.2561502456665039
0.3153556823730468,0.2561502456665039
0.3215578079223633,0.2628112792968750
0.3210474014282226,0.2628112792968750
0.3157293319702149,0.2562938690185547
0.3193468093872070,0.2562938690185547
0.3222770690917969,0.2600904464721679
0.3165813446044922,0.2600904464721679
0.3164108276367187,0.2609304428100586
0.3227050781250000,0.2609304428100586
0.3189788818359375,0.2562658309936524
0.3154026031494140,0.2562658309936524
0.3216625213623047,0.2629165649414062
0.3211721420288086,0.2629165649414062
0.3159473419189453,0.2565914154052734
0.3195734024047852,0.2565914154052734
0.3225969314575195,0.2607627868652344
0.3171592712402344,0.2607627868652344
0.3171020507812500,0.2618865966796875
0.3234283447265625,0.2618865966796875
0.3199922561645508,0.2578657150268555
0.3166179656982422,0.2578657150268555
0.3229734420776367,0.2650068283081055
0.3226638793945312,0.2650068283081055
0.3175317764282227,0.2592693328857422
0.3247089385986328,0.2639436721801758
0.3193737030029297,0.2639436721801758
0.3192747116088867,0.2657215118408203
0.3259660720825195,0.2657215118408203
0.3226661682128906,0.2619695663452148
0.3192975997924805,0.2619695663452148
0.3257440567016601,0.2695352554321289
0.3256153106689453,0.2695352554321289
0.3206560134887695,0.2639619827270508
0.3245721817016601,0.2639619827270508
0.3278795242309570,0.2689550399780273
0.3226730346679688,0.2689550399780273
0.3226243972778320,0.2708164215087890
0.3293437957763672,0.2708164215087890
0.3260387420654297,0.2673036575317383
0.3227560043334961,0.2673036575317383
0.3292865753173828,0.2749145507812500
0.3291320800781250,0.2749145507812500
0.3241436004638672,0.2692365646362305
0.3279790878295898,0.2692365646362305
0.3313831329345703,0.2742341995239257
0.3260501861572265,0.2742341995239257
0.3259763717651367,0.2759542465209961
0.3326963424682617,0.2759542465209961
0.3293014526367187,0.2722297668457031
0.3259592056274414,0.2722297668457031
0.3324028015136719,0.2797050476074219
0.3322477340698242,0.2797050476074219
0.3272048950195313,0.2740802764892578
0.3309871673583984,0.2740802764892578
0.3344003677368164,0.2791397094726563
0.3292184829711914,0.2791397094726563
0.3291017532348633,0.2808208465576172
0.3358675003051758,0.2808208465576172
0.3325658798217773,0.2774110794067383
0.3292436599731445,0.2774110794067383
0.3357919692993164,0.2850809097290039
0.3356866836547852,0.2850809097290039
0.3306610107421875,0.2795688629150391
0.3345016479492187,0.2795688629150391
0.3378828048706055,0.2846866607666015
0.3326860427856445,0.2846866607666015
0.3326076507568359,0.2866178512573242
0.3393745422363281,0.2866178512573242
0.3361055374145508,0.2829940795898437
0.3327484130859375,0.2829940795898437
0.3391788482666016,0.2905448913574218
0.3389900207519531,0.2905448913574218
0.3336656570434570,0.2840869903564453
0.3370725631713867,0.2840869903564453
0.3399347305297851,0.2873588562011719
0.3338018417358398,0.2873588562011719
0.3326671600341797,0.2857452392578125
0.3379405975341797,0.2857452392578125
0.3329629898071289,0.2768857955932617
0.3276557922363281,0.2768857955932617
0.3317962646484375,0.2776594161987305
0.3292842864990234,0.2776594161987305
0.3216470718383789,0.2640260696411132
0.3226919174194336,0.2640260696411132
0.3235965728759765,0.2611490249633789
0.3157018661499023,0.2611490249633789
0.3131532669067383,0.2554738998413086
0.3175260543823242,0.2554738998413086
0.3122085571289062,0.2454986572265625
0.3068241119384765,0.2454986572265625
0.3115911483764648,0.2480644226074219
0.3101875305175781,0.2480644226074219
0.3039001464843750,0.2388393402099609
0.3065992355346679,0.2388393402099609
0.3092227935791015,0.2412460327148437
0.3032838821411133,0.2412460327148437
0.3024948120117187,0.2409959793090820
0.3088188171386719,0.2409959793090820
0.3051664352416992,0.2360744476318359
0.3014030456542969,0.2360744476318359
0.3075061798095703,0.2425924301147461
0.3073230743408203,0.2425924301147461
0.3019975662231445,0.2362987518310547
0.3056362152099609,0.2362987518310547
0.3090391159057617,0.2408689498901367
0.3037279129028320,0.2408689498901367
0.3034618377685547,0.2423566818237305
0.3102842330932617,0.2423566818237305
0.3071199417114258,0.2386556625366211
0.3036449432373047,0.2386556625366211
0.3100450515747070,0.2463020324707031
0.3102436065673828,0.2463020324707031
0.3053363800048828,0.2408769607543945
0.3092073440551757,0.2408769607543945
0.3129787445068359,0.2467557907104492
0.3080549240112305,0.2467557907104492
0.3080806732177734,0.2490737915039062
0.3152521133422851,0.2490737915039062
0.3123802185058593,0.2464834213256836
0.3093418121337890,0.2464834213256836
0.3160240173339844,0.2550006866455078
0.3164680480957031,0.2550006866455078
0.3116003036499023,0.2501787185668945
0.3156114578247070,0.2501787185668945
0.3195699691772461,0.2562629699707031
0.3145437240600586,0.2562629699707031
0.3145351409912109,0.2585861206054688
0.3216545104980469,0.2585861206054688
0.3185686111450195,0.2555002212524414
0.3153230667114258,0.2555002212524414
0.3217695236206055,0.2632976531982422
0.3218255996704101,0.2632976531982422
0.3167078018188477,0.2573055267333984
0.3202228546142578,0.2573055267333984
0.3237121582031250,0.2622419357299804
0.3183826446533203,0.2622419357299804
0.3179443359375000,0.2632358551025391
0.3245229721069336,0.2632358551025391
0.3210634231567382,0.2588619232177734
0.3174207687377930,0.2588619232177734
0.3234661102294922,0.2655933380126953
0.3233407974243164,0.2655933380126953
0.3177291870117188,0.2588104248046875
0.3210943222045898,0.2588104248046875
0.3243936538696289,0.2630664825439453
0.3188535690307617,0.2630664825439453
0.3182544708251953,0.2637668609619140
0.3248725891113281,0.2637668609619140
0.3214164733886719,0.2591920852661133
0.3176319122314453,0.2591920852661133
0.3237218856811523,0.2661323547363281
0.3236698150634765,0.2661323547363281
0.3182636260986328,0.2595531463623047
0.3217002868652344,0.2595531463623047
0.3251100540161133,0.2643602371215820
0.3197713851928711,0.2643602371215820
0.3193565368652344,0.2654371261596680
0.3260942459106445,0.2654371261596680
0.3227743148803711,0.2615478515625000
0.3192129135131836,0.2615478515625000
0.3254756927490234,0.2688755035400390
0.3255872726440430,0.2688755035400390
0.3203241348266602,0.2628490447998047
0.3239181518554687,0.2628490447998047
0.3275173187255859,0.2681219100952149
0.3223114013671875,0.2681219100952149
0.3219898223876953,0.2695890426635742
0.3289575576782227,0.2695890426635742
0.3256765365600586,0.2660888671875000
0.3222267150878906,0.2660888671875000
0.3284957885742187,0.2736574172973633
0.3287790298461914,0.2736574172973633
0.3236137390136719,0.2679050445556641
0.3271505355834961,0.2679050445556641
0.3308704376220703,0.2734336853027344
0.3257268905639648,0.2734336853027344
0.3254070281982422,0.2749483108520508
0.3324005126953125,0.2749483108520508
0.3291595458984375,0.2715385437011719
0.3256839752197265,0.2715385437011719
0.3320480346679687,0.2790807723999023
0.3322523117065430,0.2790807723999023
0.3270195007324219,0.2732872009277343
0.3306118011474609,0.2732872009277343
0.3343030929565430,0.2786939620971680
0.3291578292846680,0.2786939620971680
0.3287275314331055,0.2801261901855469
0.3356924057006836,0.2801261901855469
0.3325160980224609,0.2766586303710937
0.3289106369018555,0.2766586303710937
0.3351968765258789,0.2842409133911133
0.3353828430175781,0.2842409133911133
0.3301912307739258,0.2781898498535156
0.3337228775024414,0.2781898498535156
0.3374942779541015,0.2836984634399414
0.3322431564331055,0.2836984634399414
0.3317876815795898,0.2849927902221679
0.3387096405029297,0.2849927902221679
0.3355316162109375,0.2815338134765625
0.3320869445800781,0.2815338134765625
0.3381792068481445,0.2889135360717773
0.3384504318237305,0.2889135360717773
0.3331581115722656,0.2828670501708984
0.3366365432739258,0.2828670501708984
0.3404062271118164,0.2882423400878906
0.3351436614990234,0.2882423400878906
0.3345417022705078,0.2893718719482422
0.3414722442626953,0.2893718719482422
0.3380355834960938,0.2851844787597656
0.3341102600097656,0.2851844787597656
0.3398775100708007,0.2911428451538086
0.3394060134887695,0.2911428451538086
0.3333194732666016,0.2821392059326172
0.3353622436523437,0.2821392059326172
0.3376459121704101,0.2830083847045898
0.3305900573730469,0.2830083847045898
0.3280105590820312,0.2778030395507812
0.3326036453247070,0.2778030395507812
0.3267940521240234,0.2664367675781250
0.3204940795898437,0.2664367675781250
0.3241413116455078,0.2656557083129883
0.3216545104980469,0.2656557083129883
0.3138250350952148,0.2518381118774414
0.3146707534790039,0.2518381118774414
0.3162591934204101,0.2504430770874023
0.3088462829589844,0.2504430770874023
0.3065093994140625,0.2461280822753906
0.3118652343750000,0.2461280822753906
0.3073848724365234,0.2386259078979492
0.3026201248168945,0.2386259078979492
0.3079032897949219,0.2432184219360352
0.3074626922607422,0.2432184219360352
0.3015827178955078,0.2350193023681640
0.3044294357299804,0.2350193023681640
0.3078638076782226,0.2391666412353516
0.3022447586059570,0.2391666412353516
0.3014699935913086,0.2394350051879883
0.3082414627075195,0.2394350051879883
0.3048191070556641,0.2351829528808594
0.3013778686523437,0.2368783950805664
0.3071994781494141,0.2421901702880859
0.3073865890502930,0.2421901702880859
0.3020359039306640,0.2357791900634766
0.3054691314697265,0.2357791900634766
0.3092479705810547,0.2411602020263672
0.3040946960449218,0.2411602020263672
0.3036661148071289,0.2424064636230469
0.3107706069946289,0.2424064636230469
0.3076406478881836,0.2391706466674804
0.3042480468750000,0.2391706466674804
0.3105669021606445,0.2470916748046875
0.3112215042114257,0.2470916748046875
0.3061460494995117,0.2416025161743164
0.3097852706909179,0.2416025161743164
0.3139068603515625,0.2480993270874023
0.3090717315673828,0.2480993270874023
0.3088411331176757,0.2500471115112304
0.3162700653076172,0.2500471115112304
0.3133975982666016,0.2476049423217773
0.3101715087890625,0.2476049423217773
0.3165246963500977,0.2558429718017578
0.3172239303588867,0.2558429718017578
0.3120855331420898,0.2502662658691406
0.3157316207885742,0.2502662658691406
0.3197341918945312,0.2564437866210937
0.3147085189819336,0.2564437866210937
0.3142175674438477,0.2577146530151367
0.3213151931762695,0.2577146530151367
0.3181337356567382,0.2543180465698242
0.3144945144653320,0.2543180465698242
0.3204700469970703,0.2614877700805664
0.3208087921142578,0.2614877700805664
0.3152841567993164,0.2547637939453125
0.3184570312500000,0.2547637939453125
0.3221294403076172,0.2597660064697265
0.3167438507080078,0.2597660064697265
0.3158889770507812,0.2598592758178711
0.3225608825683594,0.2598592758178711
0.3191133499145508,0.2557107925415039
0.3153179168701172,0.2557107925415039
0.3210010528564453,0.2621686935424805
0.3212162017822265,0.2621686935424805
0.3156148910522461,0.2551614761352539
0.3187110900878906,0.2551614761352539
0.3223056793212891,0.2599708557128906
0.3170803070068359,0.2599708557128906
0.3162168502807617,0.2602415084838867
0.3226730346679688,0.2602415084838867
0.3195579528808594,0.2565793991088867
0.3161092758178711,0.2565793991088867
0.3215417861938477,0.2629835128784180
0.3218421936035156,0.2629835128784180
0.3168977737426757,0.2569616317749023
0.3199172973632812,0.2569616317749023
0.3233665466308593,0.2620410919189453
0.3186395645141601,0.2620410919189453
0.3179626464843750,0.2627975463867188
0.3244834899902344,0.2627975463867188
0.3215131759643555,0.2596870422363281
0.3182327270507813,0.2596870422363281
0.3239404678344727,0.2666770935058594
0.3242340087890625,0.2666770935058594
0.3194829940795899,0.2609939575195312
0.3225179672241211,0.2609939575195312
0.3260210037231445,0.2661861419677734
0.3214445114135742,0.2661861419677734
0.3209621429443359,0.2672962188720703
0.3274646759033203,0.2672962188720703
0.3245664596557617,0.2642875671386719
0.3212345123291016,0.2642875671386719
0.3269182205200195,0.2714733123779297
0.3273628234863281,0.2714733123779297
0.3224252700805664,0.2655424118041992
0.3256233215332031,0.2655424118041992
0.3293552398681641,0.2711174011230469
0.3243684768676758,0.2711174011230469
0.3239347457885742,0.2720346450805664
0.3306678771972656,0.2720346450805664
0.3276065826416015,0.2690328598022461
0.3242380142211914,0.2690328598022461
0.3300424575805664,0.2762117385864258
0.3305419921875000,0.2762117385864258
0.3254213333129883,0.2701812744140625
0.3286668777465820,0.2701812744140625
0.3324766159057617,0.2760412216186524
0.3273868560791016,0.2760412216186524
0.3269268035888672,0.2769641876220703
0.3337217330932617,0.2769641876220703
0.3308515548706055,0.2739973068237305
0.3276105880737304,0.2739973068237305
0.3331729888916016,0.2810840606689453
0.3336318969726562,0.2810840606689453
0.3287481307983398,0.2754117965698242
0.3318403244018555,0.2754117965698242
0.3355144500732422,0.2809341430664062
0.3306919097900390,0.2809341430664062
0.3302101135253906,0.2817501068115234
0.3368545532226562,0.2817501068115234
0.3338630676269531,0.2788049697875977
0.3305912017822266,0.2788049697875977
0.3360197067260742,0.2854196548461914
0.3361896514892578,0.2854196548461914
0.3309774398803711,0.2786087036132812
0.3335380554199219,0.2786087036132812
0.3365358352661132,0.2818382263183594
0.3307411193847656,0.2818382263183594
0.3289152145385742,0.2789222717285156
0.3339265823364257,0.2789222717285156
0.3291692733764648,0.2703540802001953
0.3237373352050781,0.2703540802001953
0.3268856048583984,0.2700754165649414
0.3247060775756836,0.2700754165649414
0.3174270629882812,0.2567098617553711
0.3179357528686523,0.2567098617553711
0.3191482543945313,0.2547769546508789
0.3119396209716797,0.2547769546508789
0.3091770172119140,0.2488403320312500
0.3134445190429687,0.2488403320312500
0.3088434219360351,0.2406681060791016
0.3040987014770508,0.2406681060791016
0.3081716537475586,0.2432968139648437
0.3073934555053711,0.2432968139648437
0.3017126083374023,0.2347354888916016
0.3038469314575195,0.2347354888916016
0.3067148208618164,0.2378025054931641
0.3014860153198242,0.2378025054931641
0.3003524780273437,0.2369939804077148
0.3063108444213867,0.2369939804077148
0.3031076431274414,0.2329719543457031
0.2997201919555664,0.2329719543457031
0.3047378540039062,0.2386653900146484
0.3049610137939453,0.2386653900146484
0.3000606536865234,0.2324626922607422
0.3028484344482422,0.2324626922607422
0.3063566207885742,0.2373487472534180
0.3016708374023437,0.2373487472534180
0.3010946273803711,0.2378122329711914
0.3073814392089844,0.2378122329711914
0.3045410156250000,0.2349197387695312
0.3014957427978516,0.2349197387695312
0.3068538665771484,0.2416002273559570
0.3073911666870117,0.2416002273559570
0.3027660369873047,0.2364063262939453
0.3059520721435547,0.2364063262939453
0.3096988677978516,0.2421998977661133
0.3053764343261718,0.2421998977661133
0.3051212310791016,0.2436355590820312
0.3117679595947265,0.2436355590820312
0.3092313766479492,0.2417055130004883
0.3064836502075195,0.2417055130004883
0.3120820999145508,0.2493146896362305
0.3128437042236328,0.2493146896362305
0.3084131240844726,0.2445499420166015
0.3117050170898437,0.2445499420166015
0.3154329299926757,0.2506690979003906
0.3111471176147461,0.2506690979003906
0.3109313964843750,0.2519056320190430
0.3174350738525391,0.2519056320190430
0.3146558761596679,0.2495796203613281
0.3117164611816406,0.2495796203613281
0.3170104980468750,0.2563213348388672
0.3174779891967773,0.2563213348388672
0.3127407073974609,0.2505603790283203
0.3156171798706054,0.2505603790283203
0.3191596984863281,0.2556329727172851
0.3143411636352539,0.2556329727172851
0.3136190414428711,0.2557147979736328
0.3198211669921875,0.2557147979736328
0.3167884826660156,0.2522163391113281
0.3133552551269531,0.2522163391113281
0.3182939529418945,0.2580854415893555
0.3185451507568359,0.2580854415893555
0.3136213302612305,0.2516332626342773
0.3161842346191406,0.2516332626342773
0.3195373535156250,0.2562458038330078
0.3147640228271484,0.2562458038330078
0.3138587951660156,0.2560329437255859
0.3200832366943359,0.2560329437255859
0.3169446945190429,0.2525848388671875
0.3135801315307617,0.2525848388671875
0.3187276840209961,0.2586868286132812
0.3190258026123047,0.2586868286132812
0.3140533447265625,0.2523965835571289
0.3168886184692383,0.2523965835571289
0.3204437255859375,0.2575664520263672
0.3156074523925781,0.2575664520263672
0.3148550033569336,0.2577913284301758
0.3213438034057617,0.2577913284301758
0.3184907913208008,0.2549182891845703
0.3151222229003906,0.2549182891845703
0.3203847885131836,0.2614809036254883
0.3209226608276367,0.2614809036254883
0.3161355972290039,0.2555992126464844
0.3190847396850586,0.2555992126464844
0.3228223800659180,0.2612291336059570
0.3181566238403320,0.2612291336059570
0.3175231933593750,0.2616800308227539
0.3240440368652344,0.2616800308227539
0.3212682723999024,0.2592029571533203
0.3180078506469726,0.2592029571533203
0.3233905792236328,0.2659669876098633
0.3239576339721680,0.2659669876098633
0.3191659927368164,0.2604417800903320
0.3221672058105469,0.2604417800903320
0.3259614944458007,0.2661306381225586
0.3214187622070312,0.2661306381225586
0.3207927703857422,0.2667720794677734
0.3272964477539063,0.2667720794677734
0.3245344161987305,0.2643630981445312
0.3213512420654297,0.2643630981445312
0.3267305374145508,0.2711551666259766
0.3272644042968750,0.2711551666259766
0.3226427078247070,0.2655715942382812
0.3255168914794922,0.2655715942382812
0.3292573928833007,0.2713056564331054
0.3247798919677734,0.2713056564331054
0.3240812301635742,0.2717708587646484
0.3305820465087890,0.2717708587646484
0.3277256011962891,0.2693212509155273
0.3246168136596679,0.2693212509155273
0.3299200057983399,0.2759473800659180
0.3304367065429688,0.2759473800659180
0.3256238937377929,0.2702791213989258
0.3284105300903320,0.2702791213989258
0.3321195602416992,0.2758501052856445
0.3276718139648437,0.2758501052856445
0.3270120620727539,0.2762901306152344
0.3334224700927734,0.2762901306152344
0.3306272506713867,0.2737890243530273
0.3274612426757812,0.2737890243530273
0.3327089309692383,0.2804906845092773
0.3332571029663086,0.2804906845092773
0.3286136627197265,0.2748556137084961
0.3314523696899414,0.2748556137084961
0.3351470947265625,0.2805089950561523
0.3306610107421875,0.2805089950561523
0.3300115585327149,0.2809467315673828
0.3364465713500976,0.2809467315673828
0.3336364746093750,0.2786092758178711
0.3304075241088867,0.2786092758178711
0.3356718063354492,0.2851610183715820
0.3363046646118164,0.2851610183715820
0.3314941406250000,0.2793348312377930
0.3341714859008789,0.2793348312377930
0.3377574920654297,0.2843822479248047
0.3328210830688477,0.2843822479248047
0.3315948486328125,0.2829380035400391
0.3372505187988281,0.2829380035400391
0.3333709716796875,0.2773853302001953
0.3287715911865234,0.2773853302001953
0.3323701858520507,0.2790149688720703
0.3309253692626953,0.2790149688720703
0.3241167068481445,0.2665683746337891
0.3243638992309570,0.2665683746337891
0.3256341934204102,0.2644906997680664
0.3183963775634766,0.2644906997680664
0.3152675628662109,0.2569507598876953
0.3190841674804688,0.2569507598876953
0.3138759613037109,0.2473508834838867
0.3081956863403320,0.2473508834838867
0.3114658355712890,0.2477079391479492
0.3100381851196289,0.2477079391479492
0.3038795471191406,0.2373418807983398
0.3052774429321289,0.2373418807983398
0.3079570770263672,0.2396038055419922
0.3024341583251953,0.2396038055419922
0.3009183883666992,0.2372137069702148
0.3066318511962891,0.2372137069702148
0.3032827377319336,0.2330263137817383
0.2994638442993164,0.2330263137817383
0.3043155670166016,0.2382808685302734
0.3045661926269531,0.2382808685302734
0.2995903015136719,0.2315637588500976
0.3021228790283203,0.2315637588500976
0.3056087493896484,0.2364801406860352
0.3009178161621094,0.2364801406860352
0.3001482009887695,0.2360572814941406
0.3064167022705078,0.2360572814941406
0.3035734176635742,0.2334554672241211
0.3001899719238281,0.2334554672241211
0.3054531097412109,0.2397188186645508
0.3059989929199219,0.2397188186645508
0.3013481140136718,0.2339452743530273
0.3041416168212890,0.2339452743530273
0.3081527709960937,0.2399024963378906
0.3036409378051758,0.2399024963378906
0.3030241012573242,0.2403619766235351
0.3096994400024414,0.2403619766235351
0.3072452545166016,0.2386419296264648
0.3041902542114258,0.2386419296264648
0.3097377777099609,0.2459884643554687
0.3106721878051757,0.2459884643554687
0.3062301635742187,0.2410451889038086
0.3092714309692383,0.2410451889038086
0.3134050369262695,0.2477851867675781
0.3092119216918945,0.2477851867675781
0.3088022232055664,0.2485816955566406
0.3155204772949219,0.2485816955566406
0.3101274490356445,0.2483190536499023
0.3101274490356445,0.2483190536499023
0.3101274490356445,0.2481279373168945
0.3161310195922851,0.2507898330688477
0.3161310195922851,0.2507898330688477
0.3140865325927734,0.2549760818481445
0.3140865325927734,0.2549760818481445
0.3135612487792969,0.2500070571899414
0.3135612487792969,0.2500070571899414
0.3186704635620117,0.2564723968505859
0.3186704635620117,0.2564723968505859
0.3127498626708984,0.2517580032348632
0.3127498626708984,0.2517580032348632
0.3180547714233398,0.2534317016601562
0.3180547714233398,0.2534317016601562
0.3153459548950195,0.2566331863403320
0.3153459548950195,0.2566331863403320
0.3142478942871094,0.2509048461914062
0.3142478942871094,0.2509048461914062
0.3189548492431640,0.2568889617919922
0.3189548492431640,0.2568889617919922
0.3129878997802734,0.2519622802734375
0.3129878997802734,0.2519622802734375
0.3181938171386718,0.2536663055419922
0.3181938171386718,0.2536663055419922
0.3155714035034179,0.2569684982299805
0.3155714035034179,0.2569684982299805
0.3147880554199219,0.2515588760375976
0.3147880554199219,0.2515588760375976
0.3197238922119141,0.2581192016601562
0.3197238922119141,0.2581192016601562
0.3139984130859375,0.2537029266357422
0.3139984130859375,0.2537029266357422
0.3195093154907226,0.2558847427368164
0.3195093154907226,0.2558847427368164
0.3173309326171875,0.2596372604370117
0.3173309326171875,0.2596372604370117
0.3167821884155274,0.2547660827636719
0.3167821884155274,0.2547660827636719
0.3220367431640625,0.2617137908935547
0.3220367431640625,0.2617137908935547
0.3166030883789062,0.2576866149902344
0.3166030883789062,0.2576866149902344
0.3223159790039062,0.2602581024169922
0.3223159790039062,0.2602581024169922
0.3204511642456054,0.2644289016723633
0.3204511642456054,0.2644289016723633
