REDsignal,IRsignal
0.3079072952270508,0.2099699020385742
0.3098476409912109,0.2139495849609375
0.3098476409912109,0.2139495849609375
0.3087427139282227,0.2110307693481445
0.3087427139282227,0.2110307693481445
0.3125232696533203,0.2148004531860352
0.3125232696533203,0.2148004531860352
0.3093074798583984,0.2155323028564453
0.3093074798583984,0.2155323028564453
0.3129289627075195,0.2151655197143555
0.3129289627075195,0.2151655197143555
0.3143302917480469,0.2196292877197266
0.3143302917480469,0.2196292877197266
0.3133317947387695,0.2170434951782227
0.3133317947387695,0.2170434951782227
0.3163169860839843,0.2207685470581055
0.3163169860839843,0.2207685470581055
0.3153854370117187,0.2218683242797851
0.3153854370117187,0.2218683242797851
0.3178785324096680,0.2210523605346680
0.3178785324096680,0.2210523605346680
0.3187236785888672,0.2251928329467773
0.3187236785888672,0.2251928329467773
0.3161979675292969,0.2218282699584961
0.3161979675292969,0.2218282699584961
0.3190795898437500,0.2251722335815430
0.3190795898437500,0.2213087081909180
0.3190795898437500,0.2226808547973633
0.3206560134887695,0.2278696060180664
0.3206560134887695,0.2278696060180664
0.3182579040527344,0.2246950149536133
0.3182579040527344,0.2246950149536133
0.3213827133178711,0.2251991271972656
0.3213827133178711,0.2251991271972656
0.3203464508056640,0.2264270782470703
0.3203464508056640,0.2264270782470703
0.3195796966552734,0.2247951507568359
0.3195796966552734,0.2247951507568359
0.3214714050292969,0.2281700134277344
0.3214714050292969,0.2281700134277344
0.3187574386596679,0.2258605957031250
0.3187574386596679,0.2258605957031250
0.3227622985839844,0.2265329360961914
0.3181932449340820,0.2265329360961914
0.3209564208984375,0.2286506652832031
0.3209564208984375,0.2286506652832031
0.3208494186401367,0.2257530212402344
0.3208494186401367,0.2257530212402344
0.3229110717773437,0.2301601409912109
0.3229110717773437,0.2301601409912109
0.3211996078491211,0.2281465530395508
0.3211996078491211,0.2281465530395508
0.3241361618041992,0.2297401428222656
0.3241361618041992,0.2297401428222656
0.3229946136474609,0.2304021835327148
0.3229946136474609,0.2304021835327148
0.3226146697998047,0.2284681320190430
0.3226146697998047,0.2284681320190430
0.3256387710571289,0.2331212997436523
0.3256387710571289,0.2331212997436523
0.3229917526245117,0.2318510055541992
0.3229917526245117,0.2318510055541992
0.3265668869018555,0.2319665908813476
0.3265668869018555,0.2319665908813476
0.3253503799438476,0.2336288452148437
0.3253503799438476,0.2336288452148437
0.3259271621704101,0.2318618774414062
0.3259271621704101,0.2318618774414062
0.3278074264526367,0.2373910903930664
0.3278074264526367,0.2373910903930664
0.3257829666137695,0.2346221923828125
0.3257829666137695,0.2346221923828125
0.3289455413818359,0.2355354309082031
0.3289455413818359,0.2355354309082031
0.3287275314331055,0.2373401641845703
0.3287275314331055,0.2373401641845703
0.3282594680786133,0.2362461090087891
0.3282594680786133,0.2362461090087891
0.3305751800537109,0.2400278091430664
0.3305751800537109,0.2400278091430664
0.3282514572143554,0.2378362655639648
0.3282514572143554,0.2378362655639648
0.3317167282104492,0.2378660202026367
0.3317167282104492,0.2378660202026367
0.3286909103393554,0.2380485534667969
0.3286909103393554,0.2380485534667969
0.3256513595581055,0.2312427520751953
0.3256513595581055,0.2312427520751953
0.3239776611328125,0.2309240341186523
0.3239776611328125,0.2309240341186523
0.3187208175659180,0.2241073608398438
0.3187208175659180,0.2241073608398438
0.3183191299438476,0.2215078353881836
0.3183191299438476,0.2215078353881836
0.3142490386962891,0.2186079025268555
0.3142490386962891,0.2186079025268555
0.3117742538452148,0.2135433197021484
0.3117742538452148,0.2135433197021484
0.3124929428100586,0.2155889511108398
0.3124929428100586,0.2155889511108398
0.3082340240478516,0.2122306823730469
0.3082340240478516,0.2122306823730469
0.3102447509765625,0.2104316711425781
0.3102447509765625,0.2104316711425781
0.3076738357543945,0.2105300903320312
0.3076738357543945,0.2105300903320312
0.3074398040771484,0.2073274612426758
0.3074398040771484,0.2073274612426758
0.3085458755493164,0.2115898132324219
0.3069957733154297,0.2115898132324219
0.3056322097778320,0.2080209732055664
0.3056322097778320,0.2080209732055664
0.3085762023925781,0.2080558776855469
0.3085762023925781,0.2080558776855469
0.3075279235839843,0.2092638015747070
0.3075279235839843,0.2092638015747070
0.3067314147949219,0.2075895309448242
0.3067314147949219,0.2075895309448242
0.3088171005249024,0.2110445022583008
0.3088171005249024,0.2110445022583008
0.3061243057250976,0.2088346481323242
0.3061243057250976,0.2088346481323242
0.3103134155273438,0.2096746444702148
0.3103134155273438,0.2096746444702148
0.3088766098022461,0.2121889114379883
0.3088766098022461,0.2121889114379883
0.3089378356933594,0.2096139907836914
0.3089378356933594,0.2096139907836914
0.3114898681640625,0.2144765853881836
0.3114898681640625,0.2144765853881836
0.3101812362670898,0.2131147384643555
0.3101812362670898,0.2131147384643555
0.3136064529418945,0.2151781082153320
0.3136064529418945,0.2151781082153320
0.3129970550537109,0.2165988922119141
0.3129970550537109,0.2165988922119141
0.3131229400634766,0.2151798248291016
0.3131229400634766,0.2151798248291016
0.3166534423828125,0.2204475402832031
0.3166534423828125,0.2204475402832031
0.3144126892089844,0.2197792053222656
0.3144126892089844,0.2197792053222656
0.3181531906127930,0.2200447082519531
0.3181531906127930,0.2200447082519531
0.3173475265502930,0.2220966339111328
0.3173475265502930,0.2220966339111328
0.3178316116333008,0.2202695846557617
0.3178316116333008,0.2202695846557617
0.3198612213134766,0.2255939483642578
0.3198612213134766,0.2255939483642578
0.3175071716308593,0.2227071762084961
0.3175071716308593,0.2227071762084961
0.3204671859741211,0.2232685089111328
0.3204671859741211,0.2232685089111328
0.3200746536254883,0.2248506546020508
0.3200746536254883,0.2248506546020508
0.3192541122436524,0.2233737945556641
0.3192541122436524,0.2233737945556641
0.3213369369506836,0.2267343521118164
0.3213369369506836,0.2267343521118164
0.3189250946044922,0.2245096206665039
0.3189250946044922,0.2245096206665039
0.3225814819335938,0.2251882553100586
0.3225814819335938,0.2251882553100586
0.3210313796997070,0.2275457382202148
0.3210313796997070,0.2275457382202148
0.3207178115844727,0.2244958877563477
0.3207178115844727,0.2244958877563477
0.3227342605590820,0.2289075851440430
0.3227342605590820,0.2289075851440430
0.3212322235107422,0.2270399093627929
0.3212322235107422,0.2270399093627929
0.3240955352783203,0.2286409378051758
0.3240955352783203,0.2286409378051758
0.3232664108276367,0.2296886444091797
0.3232664108276367,0.2296886444091797
0.3230787277221679,0.2277139663696289
0.3230787277221679,0.2277139663696289
0.3261234283447266,0.2325016021728515
0.3261234283447266,0.2325016021728515
0.3234672546386719,0.2315500259399414
0.3234672546386719,0.2315500259399414
0.3270360946655274,0.2316123962402344
0.3270360946655274,0.2316123962402344
0.3259958267211914,0.2336654663085938
0.3259958267211914,0.2336654663085938
0.3266796112060547,0.2318681716918945
0.3266796112060547,0.2318681716918945
0.3288785934448242,0.2375324249267578
0.3288785934448242,0.2375324249267578
0.3267957687377930,0.2350959777832031
0.3267957687377930,0.2350959777832031
0.3302810668945312,0.2360870361328125
0.3302810668945312,0.2360870361328125
0.3302455902099609,0.2383483886718750
0.3302455902099609,0.2383483886718750
0.3296894073486328,0.2374099731445312
0.3296894073486328,0.2374099731445312
0.3324108123779297,0.2412191390991211
0.3324108123779297,0.2412191390991211
0.3299531936645508,0.2396284103393554
0.3299531936645508,0.2396284103393554
0.3342664718627930,0.2407230377197266
0.3342664718627930,0.2407230377197266
0.3331243515014649,0.2437150955200195
0.3331243515014649,0.2437150955200195
0.3328639984130859,0.2405731201171875
0.3328639984130859,0.2405731201171875
0.3349033355712890,0.2443456649780273
0.3349033355712890,0.2443456649780273
0.3317596435546875,0.2404008865356445
0.3317596435546875,0.2404008865356445
0.3317218780517578,0.2377887725830078
0.3317218780517578,0.2377887725830078
0.3266881942749023,0.2332489013671875
0.3266881942749023,0.2332489013671875
0.3216939926147461,0.2255641937255859
0.3216939926147461,0.2255641937255859
0.3211166381835938,0.2251665115356445
0.3211166381835938,0.2251665115356445
0.3150203704833984,0.2200366973876953
0.3171815872192383,0.2200366973876953
0.3156669616699219,0.2163425445556641
0.3156669616699219,0.2163425445556641
0.3126703262329101,0.2156227111816406
0.3126703262329101,0.2156227111816406
0.3109571456909180,0.2112602233886719
0.3109571456909180,0.2112602233886719
0.3116867065429688,0.2145137786865234
0.3116867065429688,0.2145137786865234
0.3080652236938476,0.2103137969970703
0.3080652236938476,0.2103137969970703
0.3100364685058594,0.2095264434814453
0.3100364685058594,0.2095264434814453
0.3092697143554687,0.2106439590454101
0.3092697143554687,0.2106439590454101
0.3076984405517578,0.2083768844604492
0.3076984405517578,0.2083768844604492
0.3098138809204101,0.2111560821533203
0.3098138809204101,0.2111560821533203
0.3069786071777343,0.2088581085205078
0.3069786071777343,0.2088581085205078
0.3103775024414062,0.2090480804443359
0.3103775024414062,0.2090480804443359
0.3090162277221680,0.2116338729858398
0.3090162277221680,0.2116338729858398
0.3084772109985351,0.2084529876708984
0.3084772109985351,0.2084529876708984
0.3108100891113281,0.2127616882324219
0.3108100891113281,0.2127616882324219
0.3091741561889648,0.2111257553100586
0.3091741561889648,0.2111257553100586
0.3123126983642578,0.2127605438232422
0.3084983825683594,0.2127605438232422
0.3119121551513672,0.2145395278930664
0.3119121551513672,0.2145395278930664
0.3118303298950195,0.2128040313720703
0.3118303298950195,0.2128040313720703
0.3155645370483398,0.2179195404052734
0.3155645370483398,0.2179195404052734
0.3133123397827148,0.2177318572998047
0.3133123397827148,0.2177318572998047
0.3172491073608398,0.2182371139526367
0.3172491073608398,0.2182371139526367
0.3168794631958008,0.2211015701293945
0.3168794631958008,0.2211015701293945
0.3176353454589844,0.2197391510009765
0.3176353454589844,0.2197391510009765
0.3204677581787109,0.2254520416259765
0.3204677581787109,0.2254520416259765
0.3184267044067383,0.2233371734619141
0.3184267044067383,0.2233371734619141
0.3218753814697266,0.2240936279296875
0.3179700851440430,0.2240936279296875
0.3218954086303711,0.2264533996582031
0.3218954086303711,0.2264533996582031
0.3209192276000977,0.2250497817993164
0.3209192276000977,0.2250497817993164
0.3235794067382812,0.2282335281372070
0.3235794067382812,0.2282335281372070
0.3205078125000000,0.2261747360229492
0.3205078125000000,0.2261747360229492
0.3241802215576172,0.2264196395874023
0.3195877075195312,0.2264196395874023
0.3227657318115234,0.2290363311767578
0.3227657318115234,0.2290363311767578
0.3218799591064453,0.2254451751708984
0.3218799591064453,0.2254451751708984
0.3243272781372070,0.2293327331542969
0.3243272781372070,0.2293327331542969
0.3220212936401367,0.2273729324340820
0.3220212936401367,0.2273729324340820
0.3246231079101562,0.2284675598144531
0.3246231079101562,0.2284675598144531
0.3238821029663086,0.2295799255371094
0.3238821029663086,0.2295799255371094
0.3228567123413086,0.2271640777587891
0.3228567123413086,0.2271640777587891
0.3264204025268554,0.2314355850219726
0.3264204025268554,0.2314355850219726
0.3233860015869141,0.2306659698486328
0.3233860015869141,0.2306659698486328
0.3265262603759765,0.2301881790161133
0.3265262603759765,0.2301881790161133
0.3260536193847656,0.2324317932128906
0.3260536193847656,0.2324317932128906
0.3260004043579102,0.2303403854370117
0.3260004043579102,0.2303403854370117
0.3284706115722656,0.2355079650878906
0.3284706115722656,0.2355079650878906
0.3259872436523437,0.2330612182617187
0.3259872436523437,0.2330612182617187
0.3289873123168945,0.2336380004882812
0.3289873123168945,0.2336380004882812
0.3293586730957031,0.2362009048461914
0.3321161270141602,0.2362009048461914
0.3284002304077148,0.2349403381347656
0.3284002304077148,0.2349403381347656
0.3313127517700195,0.2384365081787109
0.3313127517700195,0.2384365081787109
0.3288345336914062,0.2369087219238281
0.3288345336914062,0.2369087219238281
0.3326168060302734,0.2375696182250976
0.3326168060302734,0.2375696182250976
0.3317384719848633,0.2408969879150391
0.3317384719848633,0.2408969879150391
0.3304132461547851,0.2417490005493164
0.3304132461547851,0.2408672332763672
0.3330791473388672,0.2391963958740234
0.3330791473388672,0.2391963958740234
0.3342298507690429,0.2431760787963867
0.3342298507690429,0.2431760787963867
0.3319221496582031,0.2397285461425781
0.3319221496582031,0.2397285461425781
0.3335615158081054,0.2406017303466797
0.3335615158081054,0.2406017303466797
0.3301706314086914,0.2383518218994141
0.3301706314086914,0.2383518218994141
0.3280368804931640,0.2314744949340820
0.3280368804931640,0.2314744949340820
0.3247541427612304,0.2300622940063476
0.3247541427612304,0.2300622940063476
0.3176725387573242,0.2218545913696289
0.3176725387573242,0.2218545913696289
0.3192947387695312,0.2204675674438477
0.3192947387695312,0.2204675674438477
0.3142707824707031,0.2180374145507812
0.3142707824707031,0.2180374145507812
0.3133123397827148,0.2132629394531250
0.3133123397827148,0.2132629394531250
0.3114858627319336,0.2148021697998047
0.3114858627319336,0.2148021697998047
0.3091489791870117,0.2101318359375000
0.3091489791870117,0.2101318359375000
0.3119876861572266,0.2111474990844726
0.3119876861572266,0.2111474990844726
0.3086780548095703,0.2110885620117187
0.3086780548095703,0.2110885620117187
0.3080171585083007,0.2078166961669922
0.3080171585083007,0.2078166961669922
0.3095260620117187,0.2110914230346680
0.3095260620117187,0.2110914230346680
0.3071502685546875,0.2075843811035156
0.3071502685546875,0.2075843811035156
0.3106716156005859,0.2097038269042969
0.3106716156005859,0.2097038269042969
0.3071725845336914,0.2102903366088867
0.3071725845336914,0.2102903366088867
0.3092782974243164,0.2081634521484375
0.3092782974243164,0.2081634521484375
0.3104438781738281,0.2120584487915039
0.3104438781738281,0.2120584487915039
0.3084114074707031,0.2092288970947266
0.3084114074707031,0.2092288970947266
0.3113548278808594,0.2118432998657226
0.3113548278808594,0.2118432998657226
0.3105010986328125,0.2132921218872070
0.3105010986328125,0.2132921218872070
0.3120609283447265,0.2116899490356445
0.3120609283447265,0.2116899490356445
0.3135852813720703,0.2162635803222656
0.3135852813720703,0.2162635803222656
0.3110647201538086,0.2138940811157226
0.3110647201538086,0.2138940811157226
0.3167438507080078,0.2173862457275391
0.3167438507080078,0.2173862457275391
0.3152360916137695,0.2191761016845703
0.3152360916137695,0.2191761016845703
0.3168714523315430,0.2178680419921875
0.3168714523315430,0.2178680419921875
0.3174236297607422,0.2223764419555664
0.3174236297607422,0.2223764419555664
0.3169956207275391,0.2202140808105469
0.3169956207275391,0.2202140808105469
0.3213712692260742,0.2231700897216797
0.3213712692260742,0.2231700897216797
0.3194503784179688,0.2246091842651367
0.3194503784179688,0.2246091842651367
0.3195550918579101,0.2225641250610352
0.3195550918579101,0.2225641250610352
0.3218770980834961,0.2267154693603516
0.3218770980834961,0.2267154693603516
0.3200317382812500,0.2237926483154297
0.3200317382812500,0.2237926483154297
0.3236680984497070,0.2261632919311523
0.3236680984497070,0.2261632919311523
0.3201902389526367,0.2267578125000000
0.3201902389526367,0.2267578125000000
0.3221809387207031,0.2246120452880859
0.3221809387207031,0.2246120452880859
0.3230827331542969,0.2282798767089844
0.3230827331542969,0.2282798767089844
0.3208917617797851,0.2252202987670898
0.3208917617797851,0.2252202987670898
0.3235319137573242,0.2274044036865234
0.3193033218383789,0.2274044036865234
0.3223228454589844,0.2283771514892578
0.3223228454589844,0.2283771514892578
0.3235324859619140,0.2262010574340820
0.3235324859619140,0.2262010574340820
0.3243593215942382,0.2301349639892578
0.3243593215942382,0.2301349639892578
0.3212036132812500,0.2270776748657226
0.3212036132812500,0.2270776748657226
0.3263832092285156,0.2297555923461914
0.3263832092285156,0.2297555923461914
0.3243015289306641,0.2309040069580078
0.3243015289306641,0.2309040069580078
0.3253812789916992,0.2289012908935547
0.3253812789916992,0.2289012908935547
0.3254047393798828,0.2328706741333008
0.3254047393798828,0.2328706741333008
0.3246316909790039,0.2303043365478515
0.3246316909790039,0.2303043365478515
0.3290296554565429,0.2329130172729492
0.3290296554565429,0.2329130172729492
0.3268341064453125,0.2343481063842773
0.3268341064453125,0.2343481063842773
0.3268192291259766,0.2322509765625000
0.3268192291259766,0.2322509765625000
0.3293964385986328,0.2366432189941406
0.3293964385986328,0.2366432189941406
0.3275424957275391,0.2341123580932617
0.3275424957275391,0.2341123580932617
0.3317419052124023,0.2367959976196289
0.3317419052124023,0.2367959976196289
0.3286136627197265,0.2379489898681640
0.3286136627197265,0.2379489898681640
0.3308561325073242,0.2362615585327148
0.3308561325073242,0.2362615585327148
0.3324234008789063,0.2403539657592773
0.3324234008789063,0.2403539657592773
0.3303194046020508,0.2378402709960937
0.3303194046020508,0.2378402709960937
0.3332731246948242,0.2401777267456054
0.3332731246948242,0.2401777267456054
0.3322540283203125,0.2412597656250000
0.3322540283203125,0.2412597656250000
0.3329086303710938,0.2386310577392578
0.3329086303710938,0.2386310577392578
0.3328062057495117,0.2405673980712890
0.3328062057495117,0.2405673980712890
0.3268226623535156,0.2338096618652344
0.3268226623535156,0.2338096618652344
0.3281147003173828,0.2310424804687500
0.3281147003173828,0.2310424804687500
0.3219079971313477,0.2268562316894531
0.3219079971313477,0.2268562316894531
0.3191247940063476,0.2205688476562500
0.3191247940063476,0.2205688476562500
0.3163478851318359,0.2206558227539062
0.3163478851318359,0.2206558227539062
0.3128826141357422,0.2149887084960938
0.3128826141357422,0.2149887084960938
0.3150564193725586,0.2146997451782227
0.3150564193725586,0.2146997451782227
0.3110326766967773,0.2135244369506836
0.3110326766967773,0.2135244369506836
0.3094551086425781,0.2096900939941406
0.3094551086425781,0.2096900939941406
0.3105691909790039,0.2122661590576172
0.3105691909790039,0.2122661590576172
0.3076938629150390,0.2083539962768555
0.3076938629150390,0.2083539962768555
0.3109754562377929,0.2097759246826172
0.3109754562377929,0.2097759246826172
0.3071073532104492,0.2098194122314453
0.3071073532104492,0.2098194122314453
0.3085624694824219,0.2074533462524414
0.3085624694824219,0.2074533462524414
0.3094476699829101,0.2108253479003906
0.3094476699829101,0.2108253479003906
0.3071125030517578,0.2078762054443359
0.3071125030517578,0.2078762054443359
0.3100788116455078,0.2098165512084961
0.3100788116455078,0.2098165512084961
0.3088531494140625,0.2109025955200195
0.3088531494140625,0.2109025955200195
0.3100410461425781,0.2090744018554687
0.3100410461425781,0.2090744018554687
0.3111814498901367,0.2131839752197266
0.3111814498901367,0.2131839752197266
0.3082775115966797,0.2106988906860351
0.3082775115966797,0.2106988906860351
0.3139766693115234,0.2135925292968750
0.3139766693115234,0.2135925292968750
0.3123476028442383,0.2152416229248047
0.3123476028442383,0.2152416229248047
0.3136110305786133,0.2140016555786133
0.3136110305786133,0.2140016555786133
0.3143863677978516,0.2185380935668945
0.3143863677978516,0.2185380935668945
0.3140087127685547,0.2167963027954102
0.3140087127685547,0.2167963027954102
0.3190521240234375,0.2198209762573242
0.3190521240234375,0.2198209762573242
0.3172388076782227,0.2215948104858398
0.3172388076782227,0.2215948104858398
0.3174808502197266,0.2201368331909180
0.3213283538818359,0.2225263595581055
0.3211132049560547,0.2260488510131836
0.3211132049560547,0.2260488510131836
0.3199951171875000,0.2229555130004883
0.3199951171875000,0.2229555130004883
0.3234838485717773,0.2266599655151367
0.3234838485717773,0.2266599655151367
0.3206359863281250,0.2255573272705078
0.3206359863281250,0.2255573272705078
0.3230209350585938,0.2262331008911133
0.3230209350585938,0.2262331008911133
0.3229871749877929,0.2274129867553711
0.3229871749877929,0.2274129867553711
0.3211750030517578,0.2250589370727539
0.3211750030517578,0.2250589370727539
0.3253887176513672,0.2286375045776367
0.3253887176513672,0.2286375045776367
0.3215526580810547,0.2281591415405273
0.3215526580810547,0.2281591415405273
0.3243816375732422,0.2271377563476562
0.3243816375732422,0.2271377563476562
0.3244686126708984,0.2294288635253906
0.3244686126708984,0.2294288635253906
0.3236412048339843,0.2273832321166992
0.3236412048339843,0.2273832321166992
0.3267848968505859,0.2319643020629883
0.3267848968505859,0.2319643020629883
0.3234769821166992,0.2298826217651367
0.3234769821166992,0.2298826217651367
0.3263425827026367,0.2300863265991211
0.3263425827026367,0.2300863265991211
0.3274080276489258,0.2327402114868164
0.3274080276489258,0.2327402114868164
0.3258069992065429,0.2316318511962890
0.3258069992065429,0.2316318511962890
0.3294542312622070,0.2345088958740234
0.3294542312622070,0.2345088958740234
0.3261674880981445,0.2335510253906250
0.3261674880981445,0.2335510253906250
0.3299222946166992,0.2338697433471680
0.3299222946166992,0.2338697433471680
0.3299263000488281,0.2375169754028320
0.3299263000488281,0.2375169754028320
0.3287521362304687,0.2345420837402344
0.3287521362304687,0.2345420837402344
0.3321481704711914,0.2384050369262695
0.3321481704711914,0.2384050369262695
0.3297803878784180,0.2377241134643555
0.3297803878784180,0.2377241134643555
0.3324708938598633,0.2389274597167969
0.3324708938598633,0.2389274597167969
0.3330081939697265,0.2406269073486328
0.3330081939697265,0.2406269073486328
0.3317504882812500,0.2386430740356445
0.3317504882812500,0.2386430740356445
0.3359893798828125,0.2426261901855469
0.3359893798828125,0.2426261901855469
0.3323427200317383,0.2427658081054687
0.3323427200317383,0.2427658081054687
0.3354932785034180,0.2418273925781250
0.3354932785034180,0.2418273925781250
0.3354206085205078,0.2443279266357422
0.3354206085205078,0.2443279266357422
0.3347167968750000,0.2418691635131836
0.3347167968750000,0.2418691635131836
0.3371366500854492,0.2452915191650391
0.3371366500854492,0.2452915191650391
0.3317081451416016,0.2401176452636719
0.3317081451416016,0.2401176452636719
0.3311021804809570,0.2351268768310547
0.3311021804809570,0.2351268768310547
0.3273782730102539,0.2318778991699219
0.3273782730102539,0.2318778991699219
0.3213981628417968,0.2254325866699219
0.3213981628417968,0.2254325866699219
0.3214078903198242,0.2236593246459961
0.3214078903198242,0.2236593246459961
0.3147342681884766,0.2188184738159180
0.3147342681884766,0.2188184738159180
0.3159770965576172,0.2156902313232422
0.3159770965576172,0.2156902313232422
0.3137580871582031,0.2163705825805664
0.3137580871582031,0.2163705825805664
0.3106853485107422,0.2111188888549805
0.3106853485107422,0.2111188888549805
0.3128637313842773,0.2128177642822266
0.3128637313842773,0.2128177642822266
0.3087661743164062,0.2104917526245117
0.3087661743164062,0.2104917526245117
0.3103706359863281,0.2100843429565430
0.3103706359863281,0.2100843429565430
0.3099157333374024,0.2106021881103516
0.3099157333374024,0.2106021881103516
0.3075862884521484,0.2075735092163086
0.3075862884521484,0.2075735092163086
0.3115219116210937,0.2106594085693359
0.3115219116210937,0.2106594085693359
0.3073064804077149,0.2101181030273437
0.3073064804077149,0.2101181030273437
0.3100210189819336,0.2087791442871094
0.3100210189819336,0.2087791442871094
0.3101572036743164,0.2109357833862305
0.3101572036743164,0.2109357833862305
0.3096565246582031,0.2113523483276367
0.3139423370361328,0.2113523483276367
0.3101909637451172,0.2099292755126953
0.3101909637451172,0.2099292755126953
0.3108158111572266,0.2137836456298828
0.3108158111572266,0.2137836456298828
0.3100610733032226,0.2119548797607422
0.3100610733032226,0.2119548797607422
0.3148338317871094,0.2145103454589844
0.3148338317871094,0.2145103454589844
0.3133094787597656,0.2162086486816406
0.3133094787597656,0.2162086486816406
0.3133913040161133,0.2153423309326172
0.3133913040161133,0.2153423309326172
0.3166946411132812,0.2199960708618164
0.3166946411132812,0.2199960708618164
0.3152406692504883,0.2184814453125000
0.3152406692504883,0.2184814453125000
0.3199625015258789,0.2211347579956055
0.3199625015258789,0.2211347579956055
0.3172897338867187,0.2225309371948242
0.3172897338867187,0.2225309371948242
0.3193141937255859,0.2215644836425781
0.3193141937255859,0.2215644836425781
0.3212236404418945,0.2255956649780273
0.3212236404418945,0.2255956649780273
0.3190263748168945,0.2234127044677734
0.3190263748168945,0.2234127044677734
0.3223606109619140,0.2251510620117188
0.3223606109619140,0.2251510620117188
0.3212184906005859,0.2260162353515625
0.3212184906005859,0.2260162353515625
0.3217683792114258,0.2243036270141602
0.3217683792114258,0.2243036270141602
0.3228870391845703,0.2277420043945312
0.3228870391845703,0.2277420043945312
0.3192192077636719,0.2248901367187500
0.3192192077636719,0.2248901367187500
0.3244503021240234,0.2266473770141602
0.3244503021240234,0.2266473770141602
0.3222301483154297,0.2272481918334961
0.3222301483154297,0.2272481918334961
0.3224596023559570,0.2254783630371094
0.3224596023559570,0.2254783630371094
0.3227056503295898,0.2288595199584961
0.3227056503295898,0.2288595199584961
0.3214788436889648,0.2265666961669922
0.3214788436889648,0.2265666961669922
0.3259654998779297,0.2284137725830078
0.3259654998779297,0.2284137725830078
0.3236040115356445,0.2292383193969726
0.3236040115356445,0.2292383193969726
0.3229837417602539,0.2275983810424805
0.3229837417602539,0.2275983810424805
0.3257858276367188,0.2314847946166992
0.3257858276367188,0.2314847946166992
0.3236314773559570,0.2293052673339844
0.3236314773559570,0.2293052673339844
0.3279762268066406,0.2313360214233398
0.3279762268066406,0.2313360214233398
0.3248645782470703,0.2321840286254883
0.3292310714721680,0.2321840286254883
0.3266458511352539,0.2309875488281250
0.3266458511352539,0.2309875488281250
0.3285787582397461,0.2349363327026367
0.3285787582397461,0.2349363327026367
0.3262424468994141,0.2328855514526367
0.3262424468994141,0.2328855514526367
0.3295131683349609,0.2347972869873047
0.3295131683349609,0.2347972869873047
0.3287967681884765,0.2359668731689453
0.3287967681884765,0.2359668731689453
0.3293827056884766,0.2346084594726562
0.3293827056884766,0.2346084594726562
0.3310712814331054,0.2384931564331055
0.3310712814331054,0.2384931564331055
0.3277067184448242,0.2362226486206055
0.3277067184448242,0.2362226486206055
0.3332456588745117,0.2382820129394531
0.3332456588745117,0.2382820129394531
0.3314838409423828,0.2393840789794922
0.3314838409423828,0.2393840789794922
0.3317876815795898,0.2380176544189453
0.3317876815795898,0.2380176544189453
0.3323598861694336,0.2415761947631836
0.3323598861694336,0.2415761947631836
0.3308938980102539,0.2388942718505859
0.3308938980102539,0.2388942718505859
0.3341560363769531,0.2391958236694336
0.3341560363769531,0.2391958236694336
0.3297723770141601,0.2368543624877930
0.3297723770141601,0.2368543624877930
0.3256210327148437,0.2304948806762695
0.3256210327148437,0.2304948806762695
0.3245653152465820,0.2293682098388672
0.3245653152465820,0.2293682098388672
0.3185932159423828,0.2223838806152344
0.3185932159423828,0.2223838806152344
0.3193811416625976,0.2200492858886719
0.3193811416625976,0.2200492858886719
0.3135166168212891,0.2174022674560547
0.3135166168212891,0.2174022674560547
0.3127756118774414,0.2131942749023437
0.3105108261108399,0.2131942749023437
0.3127498626708984,0.2145961761474609
0.3127498626708984,0.2145961761474609
0.3087970733642578,0.2105558395385742
0.3087970733642578,0.2105558395385742
0.3107151031494140,0.2105375289916992
0.3107151031494140,0.2105375289916992
0.3088251113891601,0.2102846145629883
0.3088251113891601,0.2102846145629883
0.3085504531860351,0.2077445983886719
0.3085504531860351,0.2077445983886719
0.3095718383789062,0.2107114791870117
0.3095718383789062,0.2107114791870117
0.3056745529174805,0.2076753616333008
0.3056745529174805,0.2076753616333008
0.3104209899902344,0.2089759826660156
0.3104209899902344,0.2089759826660156
0.3082174301147461,0.2095436096191406
0.3082174301147461,0.2095436096191406
0.3082815170288086,0.2077280044555664
0.3082815170288086,0.2077280044555664
0.3090024948120117,0.2111989974975586
0.3090024948120117,0.2111989974975586
0.3075765609741211,0.2090578079223633
0.3075765609741211,0.2090578079223633
0.3119659423828125,0.2108470916748047
0.3119659423828125,0.2108470916748047
0.3100765228271484,0.2120893478393555
0.3100765228271484,0.2120893478393555
0.3096279144287109,0.2107149124145508
0.3096279144287109,0.2107149124145508
0.3130388259887695,0.2151329040527344
0.3130388259887695,0.2151329040527344
0.3111648559570312,0.2136400222778320
0.3111648559570312,0.2136400222778320
0.3158649444580078,0.2160243988037109
0.3158649444580078,0.2160243988037109
0.3134119033813477,0.2175893783569336
0.3134119033813477,0.2175893783569336
0.3153734207153320,0.2167968750000000
0.3153734207153320,0.2167968750000000
0.3179758071899414,0.2212697982788086
0.3179758071899414,0.2212697982788086
0.3159078598022461,0.2196996688842773
0.3159078598022461,0.2196996688842773
0.3192678451538086,0.2215009689331055
0.3192678451538086,0.2215009689331055
0.3187643051147461,0.2229394912719727
0.3187643051147461,0.2229394912719727
0.3191745758056641,0.2214534759521484
0.3177440643310547,0.2214534759521484
0.3211532592773437,0.2253198623657227
0.3211532592773437,0.2253198623657227
0.3175100326538086,0.2228668212890625
0.3175100326538086,0.2228668212890625
0.3224521636962890,0.2243036270141602
0.3224521636962890,0.2243036270141602
0.3206062316894531,0.2250680923461914
0.3206062316894531,0.2250680923461914
0.3204088211059570,0.2231878280639648
0.3204088211059570,0.2231878280639648
0.3211492538452148,0.2267337799072265
0.3211492538452148,0.2267337799072265
0.3196048736572266,0.2244844436645508
0.3196048736572266,0.2244844436645508
0.3235364913940429,0.2258474349975586
0.3235364913940429,0.2258474349975586
0.3215583801269531,0.2268270492553711
0.3215583801269531,0.2268270492553711
0.3205839157104492,0.2248386383056641
0.3205839157104492,0.2248386383056641
0.3238420486450195,0.2288703918457031
0.3238420486450195,0.2288703918457031
0.3214771270751953,0.2268030166625976
0.3214771270751953,0.2268030166625976
0.3252759933471679,0.2283044815063476
0.3252759933471679,0.2283044815063476
0.3224349975585937,0.2292446136474609
0.3224349975585937,0.2292446136474609
0.3238855361938476,0.2278209686279297
0.3238855361938476,0.2278209686279297
0.3261411666870117,0.2318721771240234
0.3261411666870117,0.2318721771240234
0.3237499237060547,0.2299306869506836
0.3237499237060547,0.2299306869506836
0.3266344070434570,0.2313755035400391
0.3266344070434570,0.2313755035400391
0.3261903762817382,0.2327848434448242
0.3307725906372070,0.2327848434448242
0.3266366958618164,0.2311929702758789
0.3266366958618164,0.2311929702758789
0.3287080764770507,0.2354164123535156
0.3287080764770507,0.2354164123535156
0.3252450942993164,0.2332586288452148
0.3252450942993164,0.2332586288452148
0.3304298400878906,0.2349363327026367
0.3304298400878906,0.2349363327026367
0.3289146423339844,0.2362569808959961
0.3289146423339844,0.2362569808959961
0.3290496826171875,0.2346387863159179
0.3279670715332031,0.2346387863159179
0.3301860809326172,0.2387266159057617
0.3301860809326172,0.2387266159057617
0.3290662765502930,0.2368824005126953
0.3290662765502930,0.2368824005126953
0.3332702636718750,0.2383901596069336
0.3332702636718750,0.2383901596069336
0.3314741134643555,0.2398115158081054
0.3314741134643555,0.2398115158081054
0.3303754806518555,0.2376205444335937
0.3303754806518555,0.2376205444335937
0.3333520889282227,0.2411167144775390
0.3333520889282227,0.2411167144775390
0.3295875549316406,0.2370328903198242
0.3295875549316406,0.2370328903198242
0.3305339813232422,0.2343509674072266
0.3305339813232422,0.2343509674072266
0.3238529205322265,0.2302854537963867
0.3238529205322265,0.2302854537963867
0.3209455490112305,0.2234550476074219
0.3209455490112305,0.2234550476074219
0.3198640823364258,0.2233354568481445
0.3198640823364258,0.2233354568481445
0.3143692016601562,0.2176385879516602
0.3143692016601562,0.2176385879516602
0.3145837783813477,0.2155775070190430
0.3145837783813477,0.2155775070190430
0.3118000030517578,0.2142803192138672
0.3118000030517578,0.2142803192138672
0.3101314544677734,0.2101530075073242
0.3101314544677734,0.2101530075073242
0.3109182357788086,0.2124921798706055
0.3109182357788086,0.2124921798706055
0.3061923980712891,0.2087608337402344
0.3061923980712891,0.2087608337402344
0.3100914001464843,0.2087974548339844
0.3100914001464843,0.2087974548339844
0.3078020095825195,0.2091270446777344
0.3078020095825195,0.2091270446777344
0.3070758819580078,0.2063632965087891
0.3070758819580078,0.2063632965087891
0.3077653884887695,0.2097633361816406
0.3077653884887695,0.2097633361816406
0.3059274673461914,0.2073194503784180
0.3059274673461914,0.2073194503784180
0.3094505310058593,0.2080707550048828
0.3094505310058593,0.2080707550048828
0.3076755523681641,0.2091407775878906
0.3076755523681641,0.2091407775878906
0.3064504623413086,0.2069223403930664
0.3064504623413086,0.2069223403930664
0.3098081588745117,0.2112424850463867
0.3098081588745117,0.2112424850463867
0.3076045989990234,0.2093376159667969
0.3114320755004883,0.2093376159667969
0.3113353729248047,0.2107097625732422
0.3113353729248047,0.2107097625732422
0.3092256546020508,0.2123256683349609
0.3092256546020508,0.2123256683349609
0.3105445861816406,0.2110530853271484
0.3105445861816406,0.2110530853271484
0.3134227752685547,0.2159254074096680
0.3134227752685547,0.2159254074096680
0.3115133285522461,0.2145698547363281
0.3115133285522461,0.2145698547363281
0.3147600173950195,0.2161851882934570
0.3147600173950195,0.2161851882934570
0.3148870468139648,0.2183967590332031
0.3148870468139648,0.2183967590332031
0.3154426574707031,0.2169673919677734
0.3154426574707031,0.2169673919677734
0.3180810928344727,0.2218585968017578
0.3180810928344727,0.2218585968017578
0.3148750305175781,0.2200143814086914
0.3148750305175781,0.2200143814086914
0.3199441909790039,0.2214185714721680
0.3199441909790039,0.2214185714721680
0.3186023712158203,0.2229057312011719
0.3224298477172852,0.2229057312011719
0.3184061050415039,0.2209075927734375
0.3184061050415039,0.2209075927734375
0.3195430755615234,0.2249691009521484
0.3195430755615234,0.2249691009521484
0.3180404663085937,0.2228290557861328
0.3180404663085937,0.2228290557861328
0.3216722488403320,0.2235128402709961
0.3216722488403320,0.2235128402709961
0.3199522018432617,0.2248352050781250
0.3199522018432617,0.2248352050781250
0.3185651779174805,0.2223495483398437
0.3185651779174805,0.2223495483398437
0.3218210220336914,0.2267000198364258
0.3218210220336914,0.2267000198364258
0.3193605422973633,0.2245788574218750
0.3193605422973633,0.2245788574218750
0.3200883865356445,0.2241891860961914
0.3200883865356445,0.2241891860961914
0.3200111389160156,0.2273981094360351
0.3214410781860351,0.2273981094360351
0.3217157363891601,0.2277585983276367
0.3217157363891601,0.2277585983276367
0.3234752655029297,0.2277276992797851
0.3234752655029297,0.2277276992797851
0.3245841979980469,0.2304748535156250
0.3262092590332031,0.2304748535156250
0.3223342895507812,0.2275508880615234
0.3223342895507812,0.2275508880615234
0.3270435333251953,0.2309440612792969
0.3270435333251953,0.2309440612792969
0.3241424560546875,0.2324289321899414
0.3241424560546875,0.2324289321899414
0.3262573242187500,0.2303094863891602
0.3262573242187500,0.2303094863891602
0.3273782730102539,0.2342216491699219
0.3273782730102539,0.2342216491699219
0.3259689331054688,0.2312988281250000
0.3259689331054688,0.2312988281250000
0.3294456481933594,0.2356178283691406
0.3294456481933594,0.2356178283691406
0.3267642974853516,0.2349180221557617
0.3267642974853516,0.2349180221557617
0.3286411285400391,0.2338771820068359
0.3286411285400391,0.2338771820068359
0.3304819107055664,0.2378614425659180
0.3304819107055664,0.2378614425659180
0.3281301498413086,0.2358776092529297
0.3281301498413086,0.2358776092529297
0.3319908142089844,0.2379003524780273
0.3319908142089844,0.2379003524780273
0.3293334960937500,0.2384582519531250
0.3293334960937500,0.2384582519531250
0.3318809509277343,0.2373401641845703
0.3318809509277343,0.2373401641845703
0.3325887680053711,0.2424161911010742
0.3325887680053711,0.2424161911010742
0.3306089401245117,0.2380846023559570
0.3306089401245117,0.2380846023559570
0.3339912414550781,0.2410326004028320
0.3339912414550781,0.2410326004028320
0.3317304611206054,0.2407138824462891
0.3317304611206054,0.2407138824462891
0.3317247390747070,0.2382059097290039
0.3317247390747070,0.2382059097290039
0.3298473358154297,0.2368875503540039
0.3298473358154297,0.2368875503540039
0.3237562179565430,0.2284950256347656
0.3237562179565430,0.2284950256347656
0.3240085601806640,0.2265237808227539
0.3240085601806640,0.2265237808227539
0.3173480987548828,0.2235391616821289
0.3173480987548828,0.2235391616821289
0.3159730911254883,0.2170743942260742
0.3159730911254883,0.2170743942260742
0.3138610839843750,0.2174085617065430
0.3138610839843750,0.2174085617065430
0.3103242874145508,0.2113340377807617
0.3103242874145508,0.2113340377807617
0.3117044448852539,0.2130237579345703
0.3117044448852539,0.2130237579345703
0.3074735641479492,0.2104625701904297
0.3074735641479492,0.2104625701904297
0.3080228805541992,0.2072690963745117
0.3080228805541992,0.2072690963745117
0.3081762313842774,0.2097593307495117
0.3081762313842774,0.2097593307495117
0.3049358367919922,0.2062488555908203
0.3049358367919922,0.2062488555908203
0.3077922821044922,0.2071157455444336
0.3077922821044922,0.2071157455444336
0.3042394638061524,0.2067741394042969
0.3042394638061524,0.2067741394042969
0.3060464859008789,0.2045969009399414
0.3024999618530274,0.2045969009399414
0.3061265945434570,0.2087425231933594
0.3061265945434570,0.2087425231933594
0.3037296295166015,0.2038713455200195
0.3037296295166015,0.2038713455200195
0.3070518493652344,0.2063404083251953
0.3070518493652344,0.2063404083251953
0.3047939300537109,0.2066471099853515
0.3047939300537109,0.2066471099853515
0.3059160232543945,0.2059799194335938
0.3059160232543945,0.2059799194335938
0.3068893432617187,0.2087602615356445
0.3068893432617187,0.2087602615356445
0.3048517227172852,0.2054660797119141
0.3070032119750977,0.2054660797119141
0.3094528198242187,0.2089056015014648
0.3094528198242187,0.2089056015014648
0.3068109512329101,0.2108636856079102
0.3068109512329101,0.2108636856079102
0.3090293884277344,0.2087734222412109
0.3090293884277344,0.2087734222412109
0.3102985382080078,0.2130970001220703
0.3102985382080078,0.2130970001220703
0.3091804504394531,0.2102085113525391
0.3091804504394531,0.2102085113525391
0.3127704620361328,0.2145257949829102
0.3127704620361328,0.2145257949829102
0.3104633331298828,0.2142494201660156
0.3104633331298828,0.2142494201660156
0.3118875503540039,0.2126781463623047
0.3118875503540039,0.2126781463623047
0.3135171890258789,0.2165353775024414
0.3135171890258789,0.2165353775024414
0.3110601425170899,0.2139432907104492
0.3110601425170899,0.2139432907104492
0.3144441604614258,0.2154653549194336
0.3144441604614258,0.2154653549194336
0.3115608215332031,0.2155809402465820
0.3115608215332031,0.2155809402465820
0.3132740020751953,0.2135816574096680
0.3132740020751953,0.2135816574096680
0.3134622573852539,0.2180397033691406
0.3134622573852539,0.2180397033691406
0.3112340927124023,0.2131158828735351
0.3112340927124023,0.2131158828735351
0.3142318725585938,0.2156358718872070
0.3142318725585938,0.2156358718872070
0.3123178482055664,0.2160604476928711
0.3123178482055664,0.2160604476928711
0.3132476806640625,0.2152502059936523
0.3132476806640625,0.2152502059936523
0.3140064239501953,0.2178726196289062
0.3140064239501953,0.2178726196289062
0.3120397567749023,0.2143157958984375
0.3120397567749023,0.2143157958984375
0.3160692214965820,0.2173461914062500
0.3160692214965820,0.2173461914062500
0.3132007598876953,0.2189987182617187
0.3132007598876953,0.2189987182617187
0.3149259567260742,0.2162916183471680
0.3149259567260742,0.2162916183471680
0.3155479431152344,0.2202547073364258
0.3155479431152344,0.2202547073364258
0.3145420074462891,0.2170503616333008
0.3145420074462891,0.2170503616333008
0.3178236007690430,0.2210546493530273
0.3178236007690430,0.2210546493530273
0.3154260635375977,0.2207210540771484
0.3154260635375977,0.2207210540771484
0.3170047760009765,0.2191652297973633
0.3170047760009765,0.2191652297973633
0.3184999465942382,0.2232627868652344
0.3184999465942382,0.2232627868652344
0.3163856506347656,0.2210763931274414
0.3163856506347656,0.2210763931274414
0.3200271606445312,0.2228610992431641
0.3200271606445312,0.2228610992431641
0.3173858642578125,0.2236581802368164
0.3173858642578125,0.2236581802368164
0.3197032928466797,0.2221200942993164
0.3197032928466797,0.2221200942993164
0.3203584671020508,0.2271800994873047
0.3203584671020508,0.2271800994873047
0.3184570312500000,0.2226493835449219
0.3184570312500000,0.2226493835449219
0.3220590591430664,0.2255916595458984
0.3220590591430664,0.2255916595458984
0.3200992584228515,0.2263618469238281
0.3200992584228515,0.2263618469238281
0.3212047576904297,0.2256185531616211
0.3212047576904297,0.2256185531616211
0.3219932556152343,0.2282112121582031
0.3219932556152343,0.2282112121582031
0.3194858551025391,0.2243906021118164
0.3194858551025391,0.2243906021118164
0.3229024887084961,0.2258131027221680
0.3176193237304688,0.2258131027221680
0.3182012557983399,0.2252248764038086
0.3182012557983399,0.2252248764038086
0.3169252395629883,0.2186891555786133
0.3169252395629883,0.2186891555786133
0.3146587371826172,0.2187698364257812
0.3146587371826172,0.2187698364257812
0.3100914001464843,0.2117849349975586
0.3100914001464843,0.2117849349975586
0.3105176925659179,0.2121059417724609
0.3105176925659179,0.2121059417724609
0.3056121826171875,0.2088426589965820
0.3056121826171875,0.2088426589965820
0.3045570373535156,0.2043291091918945
0.3045570373535156,0.2043291091918945
0.3042240142822266,0.2061264038085937
0.3042240142822266,0.2061264038085937
0.3003662109375000,0.2019298553466797
0.3003662109375000,0.2019298553466797
0.3024518966674805,0.2019487380981445
0.3024518966674805,0.2019487380981445
0.2991485595703125,0.2017261505126953
0.2991485595703125,0.2017261505126953
0.3000904083251953,0.1986928939819336
0.3000904083251953,0.1986928939819336
0.2998764038085938,0.2026668548583984
0.2998764038085938,0.2026668548583984
0.2973381042480469,0.1975587844848633
0.2973381042480469,0.1975587844848633
0.3000726699829102,0.1997829437255859
0.3000726699829102,0.1997829437255859
0.2980030059814453,0.2001102447509766
0.2980030059814453,0.2001102447509766
0.2986999511718750,0.1987449645996094
0.2986999511718750,0.1987449645996094
0.2993459701538086,0.2014022827148438
0.2993459701538086,0.2014022827148438
0.2972219467163086,0.1978466033935547
0.2972219467163086,0.1978466033935547
0.3011564254760742,0.2004930496215820
0.3011564254760742,0.2004930496215820
0.2983892440795898,0.2022943496704102
0.3024261474609375,0.2022943496704102
0.2998323440551758,0.1995157241821289
0.2998323440551758,0.1995157241821289
0.3006574630737305,0.2036081314086914
0.3006574630737305,0.2036081314086914
0.2996652603149414,0.2009193420410156
0.2996652603149414,0.2009193420410156
0.3033479690551757,0.2050254821777344
0.3033479690551757,0.2050254821777344
0.3014247894287109,0.2053401947021484
0.3014247894287109,0.2053401947021484
0.3031242370605469,0.2037872314453125
0.3031242370605469,0.2037872314453125
0.3048271179199218,0.2081594467163086
0.3048271179199218,0.2081594467163086
0.3027540206909179,0.2062683105468750
0.3027540206909179,0.2062683105468750
0.3066307067871094,0.2081428527832031
0.3066307067871094,0.2081428527832031
0.3041358947753906,0.2090852737426758
0.3041358947753906,0.2090852737426758
0.3059949874877930,0.2070396423339844
0.3059949874877930,0.2070396423339844
0.3066083908081055,0.2120092391967773
0.3066083908081055,0.2120092391967773
0.3045289993286133,0.2077102661132812
0.3045289993286133,0.2077102661132812
0.3081138610839844,0.2102096557617187
0.3081138610839844,0.2102096557617187
0.3060956954956054,0.2110422134399414
0.3060956954956054,0.2110422134399414
0.3069099426269531,0.2096906661987305
0.3069099426269531,0.2096906661987305
0.3078008651733398,0.2124938964843750
0.3078008651733398,0.2124938964843750
0.3054359436035156,0.2092443466186523
0.3054359436035156,0.2092443466186523
0.3097091674804687,0.2118455886840820
0.3097091674804687,0.2118455886840820
0.3070724487304687,0.2138683319091797
0.3070724487304687,0.2138683319091797
0.3082649230957031,0.2106788635253906
0.3082649230957031,0.2106788635253906
0.3094139099121094,0.2146007537841797
0.3094139099121094,0.2146007537841797
0.3077911376953125,0.2117134094238281
0.3077911376953125,0.2117134094238281
0.3111391067504883,0.2152198791503906
0.3111391067504883,0.2152198791503906
0.3090791702270508,0.2152868270874023
0.3090791702270508,0.2152868270874023
0.3100044250488281,0.2132526397705078
0.3100044250488281,0.2132526397705078
0.3118537902832031,0.2172792434692383
0.3118537902832031,0.2172792434692383
0.3095346450805664,0.2154304504394531
0.3095346450805664,0.2154304504394531
0.3132699966430664,0.2168638229370117
0.3132699966430664,0.2168638229370117
0.3111557006835937,0.2179275512695313
0.3111557006835937,0.2179275512695313
0.3126411437988281,0.2158029556274414
0.3126411437988281,0.2158029556274414
0.3133958816528320,0.2207897186279297
0.3133958816528320,0.2207897186279297
0.3113702774047851,0.2166040420532226
0.3113702774047851,0.2166040420532226
0.3147399902343750,0.2189615249633789
0.3147399902343750,0.2189615249633789
0.3132488250732422,0.2202215194702148
0.3132488250732422,0.2202215194702148
0.3139200210571289,0.2190553665161133
0.3139200210571289,0.2190553665161133
0.3150632858276367,0.2218631744384766
0.3150632858276367,0.2218631744384766
0.3128471374511719,0.2189214706420898
0.3128471374511719,0.2189214706420898
0.3170866012573242,0.2213848114013672
0.3170866012573242,0.2213848114013672
0.3145420074462891,0.2234401702880859
0.3145420074462891,0.2234401702880859
0.3155078887939453,0.2201465606689453
0.3155078887939453,0.2201465606689453
0.3163272857666016,0.2240015029907227
0.3163272857666016,0.2240015029907227
0.3147279739379883,0.2208297729492187
0.3163421630859375,0.2245845794677734
0.3175798416137695,0.2232559204101562
0.3128179550170898,0.2232559204101562
0.3140653610229492,0.2214248657226562
0.3140653610229492,0.2214248657226562
0.3127521514892578,0.2163219451904297
0.3127521514892578,0.2163219451904297
0.3116420745849609,0.2169668197631836
0.3116420745849609,0.2169668197631836
0.3062702178955078,0.2116006851196289
0.3062702178955078,0.2116006851196289
0.3073911666870117,0.2096523284912109
0.3073911666870117,0.2096523284912109
0.3024724960327148,0.2078927993774414
0.3053306579589843,0.2078927993774414
0.3019128799438476,0.2031480789184570
0.3019128799438476,0.2031480789184570
0.3008886337280273,0.2059776306152344
0.3008886337280273,0.2059776306152344
0.2971996307373047,0.2001754760742187
0.2971996307373047,0.2001754760742187
0.2996601104736328,0.2008621215820312
0.2996601104736328,0.2008621215820312
0.2967126846313476,0.2008060455322266
0.2967126846313476,0.2008060455322266
0.2963447570800781,0.1983644485473633
0.2963447570800781,0.1983644485473633
0.2967493057250977,0.2004066467285156
0.2967493057250977,0.2004066467285156
0.2936920166015625,0.1967714309692383
0.2936920166015625,0.1967714309692383
0.2976997375488281,0.1985303878784180
0.2976997375488281,0.1985303878784180
0.2948181152343750,0.2001594543457031
0.2948181152343750,0.2001594543457031
0.2952661514282227,0.1964921951293945
0.2952661514282227,0.1964921951293945
0.2962171554565430,0.2001056671142578
0.2962171554565430,0.2001056671142578
0.2942459106445313,0.1970735549926758
0.2942459106445313,0.1970735549926758
0.2977100372314453,0.2002418518066406
0.2977100372314453,0.2002418518066406
0.2955453872680664,0.2003625869750977
0.2955453872680664,0.2003625869750977
0.2961473464965820,0.1982614517211914
0.2961473464965820,0.1982614517211914
0.2983285903930664,0.2025489807128906
0.2983285903930664,0.2025489807128906
0.2960700988769531,0.2011362075805664
0.2992630004882812,0.2011362075805664
0.3004938125610351,0.2028264999389648
0.3004938125610351,0.2028264999389648
0.2987920761108399,0.2045230865478516
0.2987920761108399,0.2045230865478516
0.3003679275512695,0.2028482437133789
0.3003679275512695,0.2028482437133789
0.3016857147216797,0.2081972122192383
0.3016857147216797,0.2081972122192383
0.2997837066650391,0.2047056198120117
0.2997837066650391,0.2047056198120117
0.3037433624267578,0.2071163177490234
0.3037433624267578,0.2071163177490234
0.3023185729980469,0.2084833145141602
0.3023185729980469,0.2084833145141602
0.3026750564575195,0.2071775436401367
0.3026750564575195,0.2071775436401367
0.3039670944213867,0.2099653244018555
0.3039670944213867,0.2099653244018555
0.3015140533447265,0.2070247650146484
0.3015140533447265,0.2070247650146484
0.3058027267456054,0.2090578079223633
0.3058027267456054,0.2090578079223633
0.3031454086303711,0.2109867095947266
0.3031454086303711,0.2109867095947266
0.3036500930786133,0.2075368881225586
0.3036500930786133,0.2075368881225586
0.3045598983764649,0.2112573623657227
0.3045598983764649,0.2112573623657227
0.3028461456298828,0.2083957672119141
0.3028461456298828,0.2083957672119141
0.3064979553222656,0.2114673614501953
0.3064979553222656,0.2114673614501953
0.3042057037353516,0.2115171432495117
0.3042057037353516,0.2115171432495117
0.3048500061035156,0.2092237472534180
0.3048500061035156,0.2092237472534180
0.3066398620605469,0.2131925582885742
0.3066398620605469,0.2131925582885742
0.3040346145629882,0.2114896774291992
0.3040346145629882,0.2114896774291992
0.3080966949462891,0.2124961853027344
0.3080966949462891,0.2124961853027344
0.3057632446289062,0.2136846542358398
0.3057632446289062,0.2136846542358398
0.3071004867553711,0.2116481781005859
0.3071004867553711,0.2116481781005859
0.3082391738891602,0.2166509628295898
0.3082391738891602,0.2166509628295898
0.3059703826904297,0.2129877090454101
0.3059703826904297,0.2129877090454101
0.3100902557373047,0.2150997161865234
0.3100902557373047,0.2150997161865234
0.3085435867309570,0.2164026260375977
0.3085435867309570,0.2164026260375977
0.3087701797485352,0.2153148651123047
0.3087701797485352,0.2153148651123047
0.3102670669555664,0.2181209564208984
0.3102670669555664,0.2181209564208984
0.3076892852783203,0.2154911041259766
0.3076892852783203,0.2154911041259766
0.3125106811523438,0.2176254272460937
0.3125106811523438,0.2176254272460937
0.3101045608520508,0.2198816299438477
0.3101045608520508,0.2198816299438477
0.3106143951416016,0.2166194915771484
0.3106143951416016,0.2166194915771484
0.3120437622070312,0.2204154968261719
0.3124420166015625,0.2204154968261719
0.3101446151733399,0.2178966522216797
0.3101446151733399,0.2178966522216797
0.3140104293823242,0.2209407806396484
0.3140104293823242,0.2209407806396484
0.3118640899658203,0.2210283279418945
0.3118640899658203,0.2210283279418945
0.3121318817138672,0.2189569473266602
0.3121318817138672,0.2189569473266602
0.3143577575683594,0.2229389190673828
0.3143577575683594,0.2229389190673828
0.3116701126098633,0.2214963912963867
0.3116701126098633,0.2214963912963867
0.3159536361694336,0.2223907470703125
0.3159536361694336,0.2223907470703125
0.3138404846191406,0.2235054016113281
0.3138404846191406,0.2235054016113281
0.3145580291748047,0.2212177276611328
0.3145580291748047,0.2212177276611328
0.3149946212768555,0.2250389099121094
0.3149946212768555,0.2250389099121094
0.3111030578613281,0.2192871093750000
0.3111030578613281,0.2192871093750000
0.3126199722290039,0.2181861877441406
0.3126199722290039,0.2181861877441406
0.3083667755126953,0.2158527374267578
0.3083667755126953,0.2158527374267578
0.3054697036743164,0.2113660812377930
0.3054697036743164,0.2113660812377930
0.3042903900146484,0.2108316421508789
0.3042903900146484,0.2108316421508789
0.2994958877563477,0.2054723739624023
0.2994958877563477,0.2054723739624023
0.3021142959594726,0.2050466537475586
0.3021142959594726,0.2050466537475586
0.2978616714477539,0.2051548004150391
0.2978616714477539,0.2051548004150391
0.2968866348266602,0.2003494262695313
0.2968866348266602,0.2003494262695313
0.2970062255859375,0.2027544021606445
0.2970062255859375,0.2027544021606445
0.2942522048950195,0.1991271972656250
0.2942522048950195,0.1991271972656250
0.2973100662231445,0.2009714126586914
0.2973100662231445,0.2009714126586914
0.2945280075073242,0.2002510070800781
0.2945280075073242,0.2002510070800781
0.2943557739257812,0.1976079940795898
0.2943557739257812,0.1976079940795898
0.2958583831787109,0.2009359359741211
0.2958583831787109,0.2009359359741211
0.2927913665771484,0.1990591049194336
0.2927913665771484,0.1990591049194336
0.2967905044555664,0.1994235992431641
0.2967905044555664,0.1994235992431641
0.2942150115966797,0.2002864837646484
0.2942150115966797,0.2002864837646484
0.2951213836669922,0.1982402801513672
0.2951213836669922,0.1982402801513672
0.2962577819824219,0.2028837203979492
0.2962577819824219,0.2028837203979492
0.2939895629882812,0.1994676589965820
0.2939895629882812,0.1994676589965820
0.2982622146606445,0.2014217376708984
0.2982622146606445,0.2014217376708984
0.2969581604003906,0.2029306411743164
0.2969581604003906,0.2029306411743164
0.2973535537719726,0.2024986267089844
0.2973535537719726,0.2024986267089844
0.2994037628173828,0.2057767868041992
0.2994037628173828,0.2057767868041992
0.2972219467163086,0.2038759231567383
0.2972219467163086,0.2038759231567383
0.3026338577270508,0.2062328338623047
0.3026338577270508,0.2062328338623047
0.3005636215209961,0.2087722778320313
0.3005636215209961,0.2087722778320313
0.3012245178222656,0.2061309814453125
0.3012245178222656,0.2061309814453125
0.3030092239379883,0.2099899291992187
0.3030092239379883,0.2099899291992187
0.3010414123535156,0.2075958251953125
0.3010414123535156,0.2075958251953125
0.3048660278320313,0.2101387023925781
0.3048660278320313,0.2101387023925781
0.3025268554687500,0.2098428726196289
0.3025268554687500,0.2098428726196289
0.3022750854492187,0.2075786590576172
0.3022750854492187,0.2075786590576172
0.3042966842651367,0.2110078811645508
0.3042966842651367,0.2110078811645508
0.3011569976806641,0.2092586517333984
0.3011569976806641,0.2092586517333984
0.3051446914672851,0.2094972610473633
0.3051446914672851,0.2094972610473633
0.3028049468994141,0.2102308273315430
0.3028049468994141,0.2102308273315430
0.3033897399902344,0.2082670211791992
0.3033897399902344,0.2082670211791992
0.3044986724853516,0.2128446578979492
0.3044986724853516,0.2128446578979492
0.3019197463989258,0.2091642379760742
0.3019197463989258,0.2091642379760742
0.3058576583862305,0.2107297897338867
0.3058576583862305,0.2107297897338867
0.3043836593627929,0.2117528915405273
0.3043836593627929,0.2117528915405273
0.3043190002441406,0.2110198974609375
0.3043190002441406,0.2110198974609375
0.3059881210327148,0.2135393142700195
0.3059881210327148,0.2135393142700195
0.3035121917724609,0.2111383438110352
0.3035121917724609,0.2111383438110352
0.3082546234130859,0.2129802703857422
0.3082546234130859,0.2129802703857422
0.3059103012084961,0.2151357650756836
0.3059103012084961,0.2151357650756836
0.3062519073486328,0.2121786117553711
0.3062519073486328,0.2121786117553711
0.3077121734619140,0.2159219741821289
0.3077121734619140,0.2159219741821289
0.3059881210327148,0.2136491775512695
0.3059881210327148,0.2136491775512695
0.3099809646606445,0.2165199279785156
0.3099809646606445,0.2165199279785156
0.3079170227050781,0.2162996292114258
0.3079170227050781,0.2162996292114258
0.3081516265869140,0.2145618438720703
0.3081516265869140,0.2145618438720703
0.3103019714355469,0.2183864593505859
0.3103019714355469,0.2183864593505859
0.3075880050659179,0.2171207427978516
0.3075880050659179,0.2171207427978516
0.3117553710937500,0.2176305770874023
0.3117553710937500,0.2176305770874023
0.3095340728759766,0.2186491012573242
0.3095340728759766,0.2186491012573242
0.3103717803955078,0.2168907165527344
0.3103717803955078,0.2168907165527344
0.3117868423461914,0.2216279983520508
0.3117868423461914,0.2216279983520508
0.3092920303344727,0.2180723190307617
0.3092920303344727,0.2180723190307617
0.3134096145629883,0.2195577621459961
0.3134096145629883,0.2195577621459961
0.3117559432983398,0.2205373764038086
0.3117559432983398,0.2205373764038086
0.3115236282348633,0.2198341369628906
0.3115236282348633,0.2198341369628906
0.3131549835205078,0.2220954895019531
0.3131549835205078,0.2220954895019531
0.3101915359497070,0.2194255828857422
0.3101915359497070,0.2194255828857422
0.3144309997558594,0.2201425552368164
0.3144309997558594,0.2201425552368164
0.3108083724975586,0.2205059051513672
0.3108083724975586,0.2205059051513672
0.3089092254638672,0.2148639678955078
0.3089092254638672,0.2148639678955078
0.3079484939575195,0.2152204513549805
0.3079484939575195,0.2152204513549805
0.3030681610107422,0.2094938278198242
0.3030681610107422,0.2094938278198242
0.3042051315307617,0.2088924407958984
0.2983961105346680,0.2088924407958984
0.2998558044433594,0.2058935165405273
0.2998558044433594,0.2058935165405273
0.2976694107055664,0.2015441894531250
0.2976694107055664,0.2015441894531250
0.2983245849609375,0.2031040191650391
0.2983245849609375,0.2031040191650391
0.2939620971679687,0.2000461578369141
0.2939620971679687,0.2000461578369141
0.2968694686889649,0.1990036010742187
0.2968694686889649,0.1990036010742187
0.2939146041870117,0.1987472534179688
0.2939146041870117,0.1987472534179688
0.2936285018920898,0.1959606170654297
0.2936285018920898,0.1959606170654297
0.2944129943847656,0.1998590469360352
0.2944129943847656,0.1998590469360352
0.2932662963867188,0.1994241714477539
0.2932662963867188,0.1977825164794922
0.2932662963867188,0.1977825164794922
0.2918443679809570,0.1949975967407226
0.2918443679809570,0.1949975967407226
0.2953468322753906,0.1977865219116211
0.2953468322753906,0.1977865219116211
0.2917207717895507,0.1967737197875976
0.2917207717895507,0.1967737197875976
0.2931610107421875,0.1958999633789062
0.2931610107421875,0.1958999633789062
0.2946887969970703,0.1985309600830078
0.2946887969970703,0.1985309600830078
0.2929000854492188,0.1960922241210938
0.2929000854492188,0.1960922241210938
0.2965833663940430,0.1993967056274414
0.2965833663940430,0.1993967056274414
0.2924657821655273,0.1987564086914062
0.2924657821655273,0.1987564086914062
0.2963132858276367,0.1986459732055664
0.2963132858276367,0.1986459732055664
0.2974193572998047,0.2017845153808594
0.2974193572998047,0.2017845153808594
0.2958566665649414,0.1997520446777344
0.2990718841552734,0.2033111572265625
0.2970800399780273,0.2031881332397461
0.2970800399780273,0.2031881332397461
0.3001510620117188,0.2029426574707031
0.3001510620117188,0.2029426574707031
0.3009693145751953,0.2059844970703125
0.3009693145751953,0.2059844970703125
0.2980121612548828,0.2033557891845703
0.2980121612548828,0.2033557891845703
0.3027339935302734,0.2065303802490234
0.3027339935302734,0.2065303802490234
0.2993247985839844,0.2057756423950195
0.2993247985839844,0.2057756423950195
0.3015855789184570,0.2048320770263672
0.3015855789184570,0.2048320770263672
0.3012153625488281,0.2072376251220703
0.3012153625488281,0.2072376251220703
0.2998346328735351,0.2045722961425781
0.2998346328735351,0.2045722961425781
0.3035436630249023,0.2073623657226562
0.3035436630249023,0.2073623657226562
0.2999696731567383,0.2067180633544922
0.2999696731567383,0.2067180633544922
0.3012760162353516,0.2055839538574219
0.3012760162353516,0.2055839538574219
0.3029771804809570,0.2083597183227539
0.3029771804809570,0.2083597183227539
0.3007564544677734,0.2056388854980469
0.3007564544677734,0.2056388854980469
0.3045885086059570,0.2087699890136719
0.3045885086059570,0.2087699890136719
0.3002752304077148,0.2080581665039062
0.3002752304077148,0.2080581665039062
0.3038206100463867,0.2074413299560547
0.3038206100463867,0.2074413299560547
0.3048374176025391,0.2104156494140625
0.3048374176025391,0.2104156494140625
0.3027151107788086,0.2080656051635742
0.3027151107788086,0.2080656051635742
0.3056682586669922,0.2111034393310547
0.3056682586669922,0.2111034393310547
0.3035900115966797,0.2109729766845703
0.3035900115966797,0.2109729766845703
0.3063022613525391,0.2104700088500976
0.3063022613525391,0.2104700088500976
0.3072830200195312,0.2136772155761719
0.3072830200195312,0.2136772155761719
0.3043842315673828,0.2111772537231445
0.3043842315673828,0.2111772537231445
0.3094259262084961,0.2146877288818359
0.3094259262084961,0.2146877288818359
0.3065723419189453,0.2144971847534180
0.3065723419189453,0.2144971847534180
0.3091037750244141,0.2140005111694336
0.3091037750244141,0.2140005111694336
0.3092073440551757,0.2169651031494141
0.3092073440551757,0.2169651031494141
0.3080898284912109,0.2146665573120117
0.3080898284912109,0.2146665573120117
0.3120866775512695,0.2178623199462890
0.3120866775512695,0.2178623199462890
0.3090093612670898,0.2177198410034180
0.3090093612670898,0.2177198410034180
0.3104209899902344,0.2167190551757812
0.3104209899902344,0.2167190551757812
0.3125455856323242,0.2200103759765625
0.3125455856323242,0.2200103759765625
0.3103786468505859,0.2173828125000000
0.3103786468505859,0.2173828125000000
0.3141546249389648,0.2206552505493164
0.3141546249389648,0.2206552505493164
0.3100513458251953,0.2201934814453125
0.3100513458251953,0.2201934814453125
0.3134067535400391,0.2193735122680664
0.3134067535400391,0.2193735122680664
0.3144807815551758,0.2224771499633789
0.3144807815551758,0.2224771499633789
0.3120964050292969,0.2197460174560547
0.3120964050292969,0.2197460174560547
0.3149150848388672,0.2225389480590820
0.3149150848388672,0.2225389480590820
0.3126491546630859,0.2221641540527344
0.3126491546630859,0.2221641540527344
0.3144470214843750,0.2202718734741211
0.3144470214843750,0.2202718734741211
0.3140567779541015,0.2217636108398438
0.3140567779541015,0.2217636108398438
0.3086174011230469,0.2161045074462891
0.3086174011230469,0.2161045074462891
0.3108867645263672,0.2159374237060547
0.3108867645263672,0.2159374237060547
0.3049598693847656,0.2121860504150390
0.3049598693847656,0.2121860504150390
0.3044775009155273,0.2079156875610352
0.3044775009155273,0.2079156875610352
0.3022356033325195,0.2080244064331055
0.3022356033325195,0.2080244064331055
0.2988321304321289,0.2028299331665039
0.2988321304321289,0.2028299331665039
0.3011987686157226,0.2037849426269531
0.3011987686157226,0.2037849426269531
0.2966548919677734,0.2019653320312500
0.2966548919677734,0.2019653320312500
0.2967138290405273,0.1992599487304687
0.2967138290405273,0.1992599487304687
0.2979211807250977,0.2014451980590820
0.2979211807250977,0.2014451980590820
0.2947877883911132,0.1976886749267578
0.2947877883911132,0.1976886749267578
0.2980831146240234,0.1999437332153320
0.2980831146240234,0.1999437332153320
0.2937383651733398,0.1991151809692383
0.2937383651733398,0.1991151809692383
0.2964866638183594,0.1977235794067383
0.2964866638183594,0.1977235794067383
0.2974376678466797,0.2006034851074219
0.2974376678466797,0.2006034851074219
0.2947998046875000,0.1975736618041992
0.2947998046875000,0.1975736618041992
0.2976768493652344,0.2002647399902344
0.2976768493652344,0.2002647399902344
0.2955419540405274,0.2002801895141602
0.2955419540405274,0.2002801895141602
0.2978565216064453,0.1991403579711914
0.2978565216064453,0.1991403579711914
0.2991273880004883,0.2027681350708008
0.2991273880004883,0.2027681350708008
0.2960357666015625,0.1999940872192383
0.2960357666015625,0.1999940872192383
0.3012393951416015,0.2035297393798828
0.3012393951416015,0.2035297393798828
0.2989665985107422,0.2041173934936523
0.2989665985107422,0.2041173934936523
0.3014751434326172,0.2036144256591797
0.3014751434326172,0.2036144256591797
0.3022029876708984,0.2074979782104492
0.3022029876708984,0.2074979782104492
0.3012416839599609,0.2052394866943359
0.3012416839599609,0.2052394866943359
0.3056407928466797,0.2088455200195312
0.3056407928466797,0.2088455200195312
0.3031145095825195,0.2092563629150390
0.3031145095825195,0.2092563629150390
0.3044528961181641,0.2081943511962891
0.3044528961181641,0.2081943511962891
0.3067760467529297,0.2118839263916016
0.3067760467529297,0.2118839263916016
0.3044477462768554,0.2089319229125977
0.3044477462768554,0.2089319229125977
0.3081853866577148,0.2118204116821289
0.3081853866577148,0.2118204116821289
0.3041633605957031,0.2115663528442383
0.3041633605957031,0.2115663528442383
0.3069425582885742,0.2102148056030273
0.3069425582885742,0.2102148056030273
0.3081418991088867,0.2134815216064453
0.3081418991088867,0.2134815216064453
0.3054159164428711,0.2103967666625977
0.3054159164428711,0.2103967666625977
0.3083078384399414,0.2131290435791016
0.3083078384399414,0.2131290435791016
0.3063228607177734,0.2131702423095703
0.3063228607177734,0.2131702423095703
0.3083450317382813,0.2118679046630859
0.3083450317382813,0.2118679046630859
0.3095546722412109,0.2153989791870117
0.3095546722412109,0.2153989791870117
0.3061042785644531,0.2121500015258789
0.3061042785644531,0.2121500015258789
0.3108592987060547,0.2151031494140625
0.3108592987060547,0.2151031494140625
0.3081436157226562,0.2152891159057617
0.3122463226318359,0.2152891159057617
0.3100948333740234,0.2139862060546875
0.3100948333740234,0.2139862060546875
0.3104936599731445,0.2175155639648438
0.3104936599731445,0.2175155639648438
0.3090339660644531,0.2147037506103515
0.3090339660644531,0.2147037506103515
0.3131790161132812,0.2177169799804687
0.3131790161132812,0.2177169799804687
0.3103952407836914,0.2180545806884766
0.3103952407836914,0.2180545806884766
0.3114830017089844,0.2167877197265625
0.3114830017089844,0.2167877197265625
0.3138479232788086,0.2206083297729492
0.3138479232788086,0.2206083297729492
0.3116357803344726,0.2177089691162109
0.3116357803344726,0.2177089691162109
0.3156532287597656,0.2208383560180664
0.3156532287597656,0.2208383560180664
0.3119253158569336,0.2210409164428711
0.3119253158569336,0.2210409164428711
0.3150054931640625,0.2198959350585938
0.3150054931640625,0.2198959350585938
0.3164428710937500,0.2235912322998047
0.3164428710937500,0.2235912322998047
0.3140195846557617,0.2206289291381836
0.3140195846557617,0.2206289291381836
0.3169343948364258,0.2234521865844727
0.3169343948364258,0.2234521865844727
0.3152601242065430,0.2238916397094727
0.3152601242065430,0.2238916397094727
0.3172925949096679,0.2226928710937500
0.3172925949096679,0.2226928710937500
0.3185949325561523,0.2263841629028320
0.3198863983154297,0.2263841629028320
0.3152103424072266,0.2232919692993164
0.3152103424072266,0.2232919692993164
0.3201845169067383,0.2263824462890625
0.3201845169067383,0.2263824462890625
0.3176868438720703,0.2266571044921875
0.3176868438720703,0.2266571044921875
0.3194000244140625,0.2253616333007812
0.3194000244140625,0.2253616333007812
0.3195831298828125,0.2288463592529297
0.3195831298828125,0.2288463592529297
0.3180965423583984,0.2255647659301758
0.3180965423583984,0.2255647659301758
0.3214954376220703,0.2278100967407226
0.3214954376220703,0.2278100967407226
0.3177028656005859,0.2266342163085937
0.3177028656005859,0.2266342163085937
0.3167455673217773,0.2225721359252930
0.3167455673217773,0.2225721359252930
0.3162586212158203,0.2229841232299805
0.3162586212158203,0.2229841232299805
0.3113079071044922,0.2162183761596680
0.3113079071044922,0.2162183761596680
0.3121095657348633,0.2157142639160156
0.3121095657348633,0.2157142639160156
0.3058536529541016,0.2125024795532227
0.3058536529541016,0.2125024795532227
0.3062335968017578,0.2081680297851562
0.3062335968017578,0.2081680297851562
0.3054576873779297,0.2093318939208984
0.3054576873779297,0.2093318939208984
0.3015146255493164,0.2040899276733398
0.3015146255493164,0.2040899276733398
0.3030595779418945,0.2051141738891601
0.3030595779418945,0.2051141738891601
0.3003095626831054,0.2042192459106445
0.3003095626831054,0.2042192459106445
0.3013927459716797,0.2016660690307617
0.3013927459716797,0.2016660690307617
0.3017435073852539,0.2046398162841797
0.3017435073852539,0.2046398162841797
0.2981174468994141,0.2006023406982422
0.3000623703002930,0.2006023406982422
0.3024421691894531,0.2030920028686523
0.3024421691894531,0.2030920028686523
0.2995914459228515,0.2031595230102539
0.2995914459228515,0.2031595230102539
0.3012645721435547,0.2015207290649414
0.3012645721435547,0.2015207290649414
0.3014207839965820,0.2049144744873047
0.3014207839965820,0.2049144744873047
0.3001670837402344,0.2018348693847656
0.3001670837402344,0.2018348693847656
0.3041845321655273,0.2048755645751953
0.3041845321655273,0.2048755645751953
0.3017005920410156,0.2056755065917969
0.3017005920410156,0.2056755065917969
0.3028541564941406,0.2044349670410156
0.3028541564941406,0.2044349670410156
0.3053987503051758,0.2088283538818359
0.3053987503051758,0.2088283538818359
0.3037405014038086,0.2061922073364258
0.3037405014038086,0.2061922073364258
0.3080017089843750,0.2096311569213867
0.3080017089843750,0.2096311569213867
0.3049535751342773,0.2104934692382812
0.3049535751342773,0.2104934692382812
0.3080034255981445,0.2095144271850586
0.3080034255981445,0.2095144271850586
0.3100307464599609,0.2126741409301758
0.3059743881225586,0.2126741409301758
0.3090946197509766,0.2132383346557617
0.3090946197509766,0.2132383346557617
0.3082443237304687,0.2107275009155273
0.3082443237304687,0.2107275009155273
0.3111213684082031,0.2147415161132812
0.3111213684082031,0.2147415161132812
0.3079914093017578,0.2135639190673828
0.3079914093017578,0.2135639190673828
0.3109079360961914,0.2123382568359375
0.3109079360961914,0.2123382568359375
0.3094722747802734,0.2136503219604492
0.3094722747802734,0.2136503219604492
0.3089693069458008,0.2107355117797851
0.3089693069458008,0.2107355117797851
0.3107202529907226,0.2157588958740234
0.3107202529907226,0.2157588958740234
0.3079004287719727,0.2121105194091797
0.3079004287719727,0.2121105194091797
0.3105857849121094,0.2122220993041992
0.3105857849121094,0.2122220993041992
0.3100061416625977,0.2137470245361328
0.3100061416625977,0.2137470245361328
0.3090373992919922,0.2122947692871094
0.3090373992919922,0.2122947692871094
0.3113348007202149,0.2152296066284180
0.3113348007202149,0.2152296066284180
0.3086540222167969,0.2131101608276367
0.3086540222167969,0.2131101608276367
0.3123682022094726,0.2135456085205078
0.3080995559692383,0.2135456085205078
0.3110647201538086,0.2165044784545898
0.3110647201538086,0.2165044784545898
0.3106361389160156,0.2129396438598633
0.3106361389160156,0.2129396438598633
0.3128351211547851,0.2174079895019531
0.3128351211547851,0.2174079895019531
0.3111379623413086,0.2156141281127930
0.3111379623413086,0.2156141281127930
0.3142341613769531,0.2173633575439453
0.3142341613769531,0.2173633575439453
0.3133712768554687,0.2180299758911133
0.3133712768554687,0.2180299758911133
0.3129072189331055,0.2157508850097656
0.3129072189331055,0.2157508850097656
0.3159193038940429,0.2202861785888672
0.3159193038940429,0.2202861785888672
0.3131669998168945,0.2196653366088867
0.3131669998168945,0.2196653366088867
0.3165172576904297,0.2189414978027344
0.3165172576904297,0.2189414978027344
0.3154283523559570,0.2208709716796875
0.3154283523559570,0.2208709716796875
0.3156349182128906,0.2186004638671875
0.3156349182128906,0.2186004638671875
0.3177909851074219,0.2243185043334961
0.3177909851074219,0.2243185043334961
0.3154523849487305,0.2211576461791992
0.3154523849487305,0.2211576461791992
0.3187025070190430,0.2215988159179687
0.3187025070190430,0.2215988159179687
0.3181749343872070,0.2235843658447265
0.3181749343872070,0.2235843658447265
0.3174127578735351,0.2223495483398437
0.3174127578735351,0.2223495483398437
0.3197931289672851,0.2254074096679687
0.3197931289672851,0.2254074096679687
0.3168914794921875,0.2233240127563476
0.3168914794921875,0.2233240127563476
0.3208185195922851,0.2237331390380859
0.3208185195922851,0.2237331390380859
0.3193897247314453,0.2265775680541992
0.3193897247314453,0.2265775680541992
0.3186058044433593,0.2225074768066406
0.3186058044433593,0.2225074768066406
0.3204008102416992,0.2259887695312500
0.3204008102416992,0.2259887695312500
0.3171472549438477,0.2224622726440430
0.3171472549438477,0.2224622726440430
0.3181022644042968,0.2213808059692383
0.3181022644042968,0.2213808059692383
0.3147113800048828,0.2187784194946289
0.3147113800048828,0.2187784194946289
0.3110801696777344,0.2127862930297852
0.3110801696777344,0.2127862930297852
0.3090362548828125,0.2138059616088867
0.3090362548828125,0.2089078903198242
0.3050743103027344,0.2089078903198242
0.3030120849609375,0.2039331436157227
0.3045232772827148,0.2039331436157227
0.3027860641479492,0.2001296997070312
0.3027860641479492,0.2014354705810547
0.3036140441894531,0.2053321838378906
0.3015140533447265,0.2053321838378906
0.3000749588012695,0.2008380889892578
0.3000749588012695,0.2008380889892578
0.3022344589233398,0.2000587463378906
0.3022344589233398,0.2000587463378906
0.3012834548950195,0.2011287689208984
0.3012834548950195,0.2011287689208984
0.2997705459594727,0.1990453720092773
0.2997705459594727,0.1990453720092773
0.3018390655517578,0.2016569137573242
0.3018390655517578,0.2016569137573242
0.2990489959716797,0.1992885589599609
0.2990489959716797,0.1992885589599609
0.3023683547973633,0.1994607925415039
0.3023683547973633,0.1994607925415039
0.3010162353515625,0.2023710250854492
0.3010162353515625,0.2023710250854492
0.3004440307617187,0.1986682891845703
0.3004440307617187,0.1986682891845703
0.3026567459106445,0.2030324935913086
0.3026567459106445,0.2030324935913086
0.3009613037109375,0.2013061523437500
0.3009613037109375,0.2013061523437500
0.3040569305419922,0.2029998779296875
0.3040569305419922,0.2029998779296875
0.3034217834472656,0.2040452957153320
0.3034217834472656,0.2040452957153320
0.3031511306762695,0.2019510269165039
0.3031511306762695,0.2019510269165039
0.3061037063598633,0.2067249298095703
0.3061037063598633,0.2067249298095703
0.3038223266601562,0.2060268402099609
0.3038223266601562,0.2060268402099609
0.3073757171630859,0.2057275772094727
0.3073757171630859,0.2057275772094727
0.3061592102050781,0.2074619293212891
0.3061592102050781,0.2074619293212891
0.3066404342651367,0.2053064346313477
0.3056545257568359,0.2053064346313477
0.3082860946655273,0.2108299255371094
0.3082860946655273,0.2108299255371094
0.3061014175415039,0.2074453353881836
0.3094322204589844,0.2074453353881836
0.3095947265625000,0.2082172393798828
0.3095947265625000,0.2082172393798828
0.3081384658813476,0.2089662551879883
0.3081384658813476,0.2089662551879883
0.3078277587890625,0.2076107025146484
0.3078277587890625,0.2076107025146484
0.3090402603149414,0.2105369567871094
0.3090402603149414,0.2105369567871094
0.3069414138793945,0.2074676513671875
0.3069414138793945,0.2074676513671875
0.3109828948974609,0.2098022460937500
0.3109828948974609,0.2098022460937500
0.3080251693725586,0.2095882415771484
0.3080251693725586,0.2095882415771484
0.3098802566528320,0.2083368301391602
0.3098802566528320,0.2083368301391602
0.3098533630371094,0.2123056411743164
0.3098533630371094,0.2123056411743164
0.3089761734008789,0.2095830917358398
0.3089761734008789,0.2095830917358398
0.3124008178710938,0.2125253677368164
0.3124008178710938,0.2125253677368164
0.3102779388427734,0.2116230010986328
0.3102779388427734,0.2116230010986328
0.3118314743041992,0.2111852645874023
0.3118314743041992,0.2111852645874023
0.3122234344482422,0.2152879714965820
0.3122234344482422,0.2152879714965820
0.3113794326782227,0.2134048461914062
0.3113794326782227,0.2134048461914062
0.3149133682250976,0.2153881072998047
0.3149133682250976,0.2153881072998047
0.3127904891967773,0.2149772644042969
0.3127904891967773,0.2149772644042969
0.3148962020874023,0.2146133422851562
0.3148962020874023,0.2146133422851562
0.3148601531982422,0.2192104339599609
0.3148601531982422,0.2192104339599609
0.3142026901245117,0.2162092208862305
0.3142026901245117,0.2162092208862305
0.3176656723022461,0.2188739776611328
0.3176656723022461,0.2188739776611328
0.3160480499267578,0.2187389373779297
0.3160480499267578,0.2187389373779297
0.3178356170654297,0.2191480636596680
0.3178356170654297,0.2191480636596680
0.3180227279663086,0.2225263595581055
0.3180227279663086,0.2225263595581055
0.3173063278198242,0.2201557159423828
0.3173063278198242,0.2201557159423828
0.3211217880249023,0.2226997375488281
0.3211217880249023,0.2226997375488281
0.3189634323120117,0.2231248855590820
0.3189634323120117,0.2231248855590820
0.3207778930664062,0.2222024917602539
0.3207778930664062,0.2222024917602539
0.3209043502807617,0.2262880325317383
0.3209043502807617,0.2262880325317383
0.3204706192016601,0.2239591598510742
0.3204706192016601,0.2239591598510742
0.3238489151000977,0.2269088745117187
0.3238489151000977,0.2269088745117187
0.3218032836914063,0.2260643005371094
0.3218032836914063,0.2260643005371094
0.3233819961547851,0.2255195617675781
0.3233819961547851,0.2255195617675781
0.3237567901611328,0.2293842315673828
0.3237567901611328,0.2293842315673828
0.3227313995361328,0.2274827957153320
0.3227313995361328,0.2274827957153320
0.3262201309204101,0.2292589187622070
0.3262201309204101,0.2292589187622070
0.3239330291748047,0.2289110183715820
0.3239330291748047,0.2289110183715820
0.3253852844238281,0.2275754928588867
0.3253852844238281,0.2275754928588867
0.3238723754882812,0.2296812057495117
0.3238723754882812,0.2296812057495117
0.3202154159545899,0.2232513427734375
0.3202154159545899,0.2232513427734375
0.3203693389892578,0.2211673736572266
0.3203693389892578,0.2211673736572266
0.3147365570068359,0.2162452697753906
0.3147365570068359,0.2162452697753906
0.3128242492675781,0.2120132446289062
0.3128242492675781,0.2120132446289062
0.3106527328491211,0.2124229431152344
0.3106527328491211,0.2124229431152344
0.3077653884887695,0.2076410293579102
0.3077653884887695,0.2076410293579102
0.3097543716430664,0.2076387405395508
0.3097543716430664,0.2076387405395508
0.3062376022338867,0.2060771942138672
0.3062376022338867,0.2060771942138672
0.3063640594482422,0.2034770965576172
0.3063640594482422,0.2034770965576172
0.3058799743652343,0.2060491561889648
0.3058799743652343,0.2060491561889648
0.3041524887084961,0.2026233673095703
0.3057672500610352,0.2026233673095703
0.3068132400512695,0.2042781829833984
0.3068132400512695,0.2042781829833984
0.3044260025024414,0.2031812667846680
0.3044260025024414,0.2031812667846680
0.3052608489990234,0.2018640518188476
0.3052608489990234,0.2018640518188476
0.3056098937988281,0.2053487777709961
0.3056098937988281,0.2053487777709961
0.3041776657104492,0.2029163360595703
0.3041776657104492,0.2029163360595703
0.3075336456298828,0.2044664382934570
0.3075336456298828,0.2044664382934570
0.3055807113647461,0.2043806076049805
0.3055807113647461,0.2043806076049805
0.3069700241088867,0.2036533355712891
0.3069700241088867,0.2036533355712891
0.3075119018554687,0.2079540252685547
0.3075119018554687,0.2079540252685547
0.3065952301025390,0.2055393218994141
0.3065952301025390,0.2055393218994141
0.3103059768676757,0.2078744888305664
0.3103059768676757,0.2078744888305664
0.3089281082153320,0.2083980560302734
0.3089281082153320,0.2083980560302734
0.3105571746826172,0.2083431243896484
0.3105571746826172,0.2083431243896484
0.3114137649536133,0.2122169494628906
0.3114137649536133,0.2122169494628906
0.3105852127075195,0.2103549957275390
0.3105852127075195,0.2103549957275390
0.3144727706909179,0.2127605438232422
0.3144727706909179,0.2127605438232422
0.3128059387207031,0.2135141372680664
0.3128059387207031,0.2135141372680664
0.3140859603881836,0.2124618530273437
0.3140859603881836,0.2124618530273437
0.3146318435668945,0.2162481307983398
0.3146318435668945,0.2162481307983398
0.3135595321655273,0.2138019561767578
0.3155530929565429,0.2138019561767578
0.3167982101440430,0.2159471511840820
0.3167982101440430,0.2159471511840820
0.3147628784179687,0.2155282974243164
0.3147628784179687,0.2155282974243164
0.3157104492187500,0.2144176483154297
0.3157104492187500,0.2144176483154297
0.3162929534912109,0.2178852081298828
0.3162929534912109,0.2178852081298828
0.3146427154541016,0.2156810760498047
0.3146427154541016,0.2156810760498047
0.3179580688476563,0.2169216156005859
0.3179580688476563,0.2169216156005859
0.3158683776855469,0.2169370651245117
0.3158683776855469,0.2169370651245117
0.3169744491577148,0.2158309936523437
0.3169744491577148,0.2158309936523437
0.3175666809082031,0.2198169708251953
0.3175666809082031,0.2198169708251953
0.3172142028808594,0.2197105407714844
0.3207229614257812,0.2197105407714844
0.3175146102905274,0.2170194625854492
0.3179157257080078,0.2170194625854492
0.3202291488647461,0.2206380844116211
0.3202291488647461,0.2206380844116211
0.3177177429199219,0.2201791763305664
0.3177177429199219,0.2201791763305664
0.3202360153198242,0.2197563171386719
0.3202360153198242,0.2197563171386719
0.3197376251220703,0.2226516723632812
0.3197376251220703,0.2226516723632812
0.3197696685791016,0.2200143814086914
0.3197696685791016,0.2200143814086914
0.3226043701171875,0.2236061096191406
0.3226043701171875,0.2236061096191406
0.3199184417724609,0.2231632232666016
0.3199184417724609,0.2231632232666016
0.3230495452880859,0.2228221893310547
0.3230495452880859,0.2228221893310547
0.3222553253173828,0.2255475997924805
0.3222553253173828,0.2255475997924805
0.3223279953002929,0.2230962753295898
0.3223279953002929,0.2230962753295898
0.3247827529907226,0.2265460968017578
0.3247827529907226,0.2265460968017578
0.3225786209106445,0.2261753082275391
0.3225786209106445,0.2261753082275391
0.3254173278808594,0.2258136749267578
0.3254173278808594,0.2258136749267578
0.3246465682983398,0.2285367965698242
0.3246465682983398,0.2285367965698242
0.3242637634277344,0.2258600234985352
0.3242637634277344,0.2258600234985352
0.3274126052856445,0.2294523239135742
0.3274126052856445,0.2294523239135742
0.3249063491821289,0.2290706634521484
0.3249063491821289,0.2290706634521484
0.3277278900146484,0.2287181854248047
0.3277278900146484,0.2287181854248047
0.3266664505004883,0.2314069747924805
0.3266664505004883,0.2314069747924805
0.3270727157592773,0.2290025711059570
0.3270727157592773,0.2290025711059570
0.3299251556396484,0.2326807022094727
0.3271316528320312,0.2326807022094727
0.3274560928344726,0.2323614120483398
0.3274560928344726,0.2323614120483398
0.3301094055175781,0.2320352554321289
0.3301094055175781,0.2320352554321289
0.3296876907348633,0.2349071502685547
0.3296876907348633,0.2349071502685547
0.3294971466064453,0.2321788787841797
0.3294971466064453,0.2321788787841797
0.3316898345947266,0.2345283508300781
0.3316898345947266,0.2345283508300781
0.3270023345947266,0.2315145492553711
0.3270023345947266,0.2315145492553711
0.3270366668701172,0.2270822525024414
0.3270366668701172,0.2270822525024414
0.3228910446166992,0.2253421783447266
0.3228910446166992,0.2253421783447266
0.3189176559448242,0.2180557250976562
0.3189176559448242,0.2180557250976562
0.3182968139648437,0.2175041198730469
0.3182968139648437,0.2175041198730469
0.3137289047241211,0.2141944885253906
0.3137289047241211,0.2141944885253906
0.3145317077636718,0.2112796783447266
0.3145317077636718,0.2112796783447266
0.3123132705688477,0.2121534347534180
0.3123132705688477,0.2121534347534180
0.3104564666748047,0.2077972412109375
0.3104564666748047,0.2077972412109375
0.3126789093017578,0.2098783493041992
0.3126789093017578,0.2098783493041992
0.3092565536499023,0.2083906173706055
0.3092565536499023,0.2083906173706055
0.3111316680908203,0.2069240570068359
0.3111316680908203,0.2069240570068359
0.3095764160156250,0.2087648391723633
0.3095764160156250,0.2087648391723633
0.3092519760131836,0.2056440353393555
0.3092519760131836,0.2056440353393555
0.3117181777954102,0.2086784362792969
0.3117181777954102,0.2086784362792969
0.3088794708251953,0.2076004028320312
0.3088794708251953,0.2076004028320312
0.3113971710205078,0.2073646545410156
0.3113971710205078,0.2073646545410156
0.3103351593017578,0.2096014022827148
0.3103351593017578,0.2096014022827148
0.3107053756713867,0.2070470809936523
0.3107053756713867,0.2070470809936523
0.3134279251098633,0.2106479644775391
0.3134279251098633,0.2106479644775391
0.3104581832885742,0.2099378585815430
0.3104581832885742,0.2099378585815430
0.3139949798583984,0.2101387023925781
0.3139949798583984,0.2101387023925781
0.3131641387939453,0.2128898620605469
0.3131641387939453,0.2128898620605469
0.3136150360107422,0.2108911514282227
0.3136150360107422,0.2108911514282227
0.3163049697875976,0.2147598266601562
0.3163049697875976,0.2147598266601562
0.3144327163696289,0.2143077850341797
0.3144327163696289,0.2143077850341797
0.3176176071166992,0.2146024703979492
0.3176176071166992,0.2146024703979492
0.3165853500366211,0.2172592163085937
0.3165853500366211,0.2172592163085937
0.3167615890502929,0.2149744033813477
0.3167615890502929,0.2149744033813477
0.3199911117553711,0.2189666748046875
0.3199911117553711,0.2189666748046875
0.3176181793212891,0.2181947708129883
0.3176181793212891,0.2181947708129883
0.3210582733154297,0.2190656661987305
0.3210582733154297,0.2190656661987305
0.3190629959106445,0.2209579467773437
0.3190629959106445,0.2209579467773437
0.3210611343383789,0.2195503234863281
0.3210611343383789,0.2195503234863281
0.3229963302612305,0.2237869262695313
0.3229963302612305,0.2237869262695313
0.3212842941284180,0.2224056243896484
0.3212842941284180,0.2224056243896484
0.3247409820556640,0.2242298126220703
0.3247409820556640,0.2242298126220703
0.3228452682495117,0.2255641937255859
0.3228452682495117,0.2255641937255859
0.3250156402587890,0.2245634078979492
0.3250156402587890,0.2245634078979492
0.3268918991088867,0.2286357879638672
0.3268918991088867,0.2286357879638672
0.3246700286865234,0.2271898269653320
0.3246700286865234,0.2271898269653320
0.3287263870239258,0.2288217544555664
0.3287263870239258,0.2288217544555664
0.3264593124389648,0.2302465438842773
0.3264593124389648,0.2302465438842773
0.3283876419067382,0.2291118621826172
0.3283876419067382,0.2291118621826172
0.3299480438232422,0.2332649230957031
0.3299480438232422,0.2332649230957031
0.3285078048706054,0.2320615768432617
0.3285078048706054,0.2320615768432617
0.3322586059570312,0.2338314056396484
0.3322586059570312,0.2338314056396484
0.3302261352539063,0.2354907989501953
0.3302261352539063,0.2354907989501953
0.3316343307495117,0.2342227935791016
0.3316343307495117,0.2342227935791016
0.3343774795532227,0.2386602401733398
0.3343774795532227,0.2386602401733398
0.3324697494506836,0.2375484466552734
0.3324697494506836,0.2375484466552734
0.3362686157226563,0.2394264221191406
0.3362686157226563,0.2394264221191406
0.3337818145751953,0.2409879684448242
0.3337818145751953,0.2409879684448242
0.3362628936767578,0.2399854660034180
0.3362628936767578,0.2399854660034180
0.3384241104125976,0.2442358016967773
0.3384241104125976,0.2442358016967773
0.3363910675048828,0.2429838180541992
0.3363910675048828,0.2429838180541992
0.3394529342651367,0.2445121765136719
0.3394529342651367,0.2445121765136719
0.3378507614135742,0.2460084915161133
0.3378507614135742,0.2460084915161133
0.3396011352539062,0.2447822570800781
0.3396011352539062,0.2447822570800781
0.3418619155883789,0.2490062713623047
0.3418619155883789,0.2490062713623047
0.3393018722534180,0.2476993560791015
0.3393018722534180,0.2476993560791015
0.3433994293212890,0.2493822097778320
0.3433994293212890,0.2493822097778320
0.3414573669433594,0.2510513305664062
0.3414573669433594,0.2510513305664062
0.3430320739746094,0.2497163772583008
0.3430320739746094,0.2497163772583008
0.3446605682373047,0.2536685943603516
0.3446605682373047,0.2536685943603516
0.3429016113281250,0.2522872924804687
0.3429016113281250,0.2522872924804687
0.3463159561157226,0.2534517288208007
0.3463159561157226,0.2534517288208007
0.3441387176513672,0.2548307418823242
0.3441387176513672,0.2548307418823242
0.3446107864379883,0.2525270462036133
0.3446107864379883,0.2525270462036133
0.3468698501586914,0.2556346893310547
0.3468698501586914,0.2556346893310547
0.3434909820556640,0.2525899887084961
0.3434909820556640,0.2525899887084961
0.3452373504638672,0.2515748977661132
0.3452373504638672,0.2515748977661132
0.3393207550048828,0.2479757308959961
0.3393207550048828,0.2479757308959961
0.3359172821044922,0.2392593383789062
0.3359172821044922,0.2392593383789062
0.3330413818359375,0.2365848541259765
0.3330413818359375,0.2365848541259765
0.3265176773071289,0.2299673080444336
0.3265176773071289,0.2299673080444336
0.3261857986450195,0.2271200180053711
0.3261857986450195,0.2271200180053711
0.3220338821411133,0.2253599166870117
0.3220338821411133,0.2253599166870117
0.3212923049926757,0.2209453582763672
0.3212923049926757,0.2209453582763672
0.3219280242919922,0.2226831436157226
0.3219280242919922,0.2226831436157226
0.3178087234497070,0.2192911148071289
0.3178087234497070,0.2192911148071289
0.3205604553222656,0.2190765380859375
0.3205604553222656,0.2190765380859375
0.3176708221435547,0.2194301605224609
0.3176708221435547,0.2194301605224609
0.3181463241577148,0.2167945861816406
0.3181463241577148,0.2167945861816406
0.3193908691406250,0.2197917938232422
0.3193908691406250,0.2197917938232422
0.3171958923339844,0.2176259994506836
0.3171958923339844,0.2176259994506836
0.3202703475952148,0.2184041976928711
0.3202703475952148,0.2184041976928711
0.3179157257080078,0.2195566177368164
0.3179157257080078,0.2195566177368164
0.3185365676879883,0.2177701950073242
0.3185365676879883,0.2177701950073242
0.3212923049926757,0.2215026855468750
0.3212923049926757,0.2215026855468750
0.3191099166870117,0.2200223922729492
0.3191099166870117,0.2200223922729492
0.3225557327270508,0.2213642120361328
0.3225557327270508,0.2213642120361328
0.3201953887939453,0.2228902816772461
0.3201953887939453,0.2228902816772461
0.3220962524414062,0.2215970993041992
0.3220962524414062,0.2215970993041992
0.3247009277343750,0.2255373001098633
0.3247009277343750,0.2255373001098633
0.3225683212280273,0.2241657257080078
0.3225683212280273,0.2241657257080078
0.3255020141601562,0.2256700515747070
0.3255020141601562,0.2256700515747070
0.3239513397216797,0.2271280288696289
0.3292579650878906,0.2271280288696289
0.3253314971923828,0.2256071090698242
0.3253314971923828,0.2256071090698242
0.3274457931518555,0.2292194366455078
0.3274457931518555,0.2292194366455078
0.3245601654052734,0.2272195816040039
0.3245601654052734,0.2272195816040039
0.3280551910400391,0.2282003402709961
0.3280551910400391,0.2282003402709961
0.3255935668945312,0.2289808273315430
0.3255935668945312,0.2289808273315430
0.3263139724731445,0.2269008636474609
0.3263139724731445,0.2269008636474609
0.3275876998901367,0.2298517227172852
0.3275876998901367,0.2298517227172852
0.3253183364868164,0.2275520324707031
0.3253183364868164,0.2275520324707031
0.3281455993652344,0.2283451080322265
0.3281455993652344,0.2283451080322265
0.3255746841430664,0.2291387557983398
0.3255746841430664,0.2291387557983398
0.3259426116943359,0.2270759582519531
0.3259426116943359,0.2270759582519531
0.3284385681152344,0.2304227828979492
0.3284385681152344,0.2304227828979492
0.3259689331054688,0.2284183502197266
0.3259689331054688,0.2284183502197266
0.3288030624389648,0.2293664932250976
0.3288030624389648,0.2293664932250976
0.3259889602661133,0.2303649902343750
0.3259889602661133,0.2303649902343750
0.3274131774902344,0.2287307739257812
0.3274131774902344,0.2287307739257812
0.3298141479492188,0.2322063446044922
0.3298141479492188,0.2322063446044922
0.3274108886718750,0.2304376602172852
0.3274108886718750,0.2304376602172852
0.3300636291503906,0.2316450119018555
0.3300636291503906,0.2316450119018555
0.3283727645874023,0.2328317642211914
0.3283727645874023,0.2328317642211914
0.3296276092529297,0.2313165664672852
0.3296276092529297,0.2313165664672852
0.3320125579833984,0.2351417541503906
0.3320125579833984,0.2351417541503906
0.3292945861816406,0.2336322784423828
0.3292945861816406,0.2336322784423828
0.3333286285400390,0.2353277206420898
0.3333286285400390,0.2353277206420898
0.3347591400146484,0.2387517929077148
0.3309545516967773,0.2387517929077148
0.3332582473754883,0.2374139785766601
0.3332582473754883,0.2374139785766601
0.3354005813598633,0.2384485244750977
0.3354005813598633,0.2384485244750977
0.3363813400268554,0.2423315048217773
0.3363813400268554,0.2423315048217773
0.3355270385742187,0.2415172576904297
0.3355270385742187,0.2415172576904297
0.3394254684448242,0.2440950393676758
0.3394254684448242,0.2440950393676758
0.3377586364746094,0.2436756134033203
0.3377586364746094,0.2436756134033203
0.3402385711669922,0.2445550918579101
0.3402385711669922,0.2445550918579101
0.3407741546630859,0.2491453170776367
0.3407741546630859,0.2491453170776367
0.3398649215698242,0.2464736938476562
0.3398649215698242,0.2464736938476562
0.3434663772583008,0.2495470046997070
0.3434663772583008,0.2495470046997070
0.3420009613037109,0.2488489151000977
0.3420009613037109,0.2488489151000977
0.3433616638183594,0.2497043609619141
0.3433616638183594,0.2497043609619141
0.3434423446655273,0.2514158248901367
0.3434423446655273,0.2514158248901367
0.3403633117675781,0.2466882705688477
0.3403633117675781,0.2466882705688477
0.3407186508178711,0.2441127777099609
0.3338996887207031,0.2441127777099609
0.3338556289672852,0.2378940582275391
0.3365627288818359,0.2378940582275391
0.3309814453125000,0.2314945220947265
0.3260833740234375,0.2314945220947265
0.3272718429565429,0.2294042587280273
0.3263437271118164,0.2294042587280273
0.3227165222167969,0.2228988647460937
0.3226249694824219,0.2228988647460937
0.3234100341796875,0.2231878280639648
0.3234100341796875,0.2231878280639648
0.3195013046264648,0.2187091827392578
0.3195013046264648,0.2187091827392578
0.3192953109741211,0.2168575286865234
0.3192953109741211,0.2168575286865234
0.3185056686401367,0.2180734634399414
0.3185056686401367,0.2180734634399414
0.3160394668579101,0.2149806976318359
0.3160394668579101,0.2149806976318359
0.3183826446533203,0.2157920837402344
0.3140653610229492,0.2157920837402344
0.3155353546142578,0.2134128570556641
0.3155353546142578,0.2134128570556641
0.3169984817504883,0.2131032943725586
0.3169984817504883,0.2131032943725586
0.3163862228393555,0.2161502838134766
0.3163862228393555,0.2161502838134766
0.3148681640625000,0.2125225067138672
0.3148681640625000,0.2125225067138672
0.3178756713867187,0.2149686813354492
0.3178756713867187,0.2149686813354492
0.3160400390625000,0.2133642196655273
0.3160400390625000,0.2133642196655273
0.3175523757934570,0.2146745681762695
0.3175523757934570,0.2146745681762695
0.3177457809448242,0.2167053222656250
0.3177457809448242,0.2167053222656250
0.3166591644287109,0.2146173477172852
0.3166591644287109,0.2146173477172852
0.3205696105957031,0.2178354263305664
0.3205696105957031,0.2178354263305664
0.3185771942138672,0.2177661895751953
0.3185771942138672,0.2177661895751953
0.3207355499267578,0.2177112579345703
0.3207355499267578,0.2177112579345703
0.3209701538085937,0.2210420608520508
0.3209701538085937,0.2210420608520508
0.3205593109130859,0.2190147399902344
0.3205593109130859,0.2190147399902344
0.3240011215209961,0.2232845306396484
0.3240011215209961,0.2232845306396484
0.3220436096191406,0.2205808639526367
0.3220436096191406,0.2205808639526367
0.3235839843750000,0.2211553573608398
0.3235839843750000,0.2211553573608398
0.3243204116821289,0.2242218017578125
0.3243204116821289,0.2242218017578125
0.3222536087036132,0.2232330322265625
0.3222536087036132,0.2232330322265625
0.3255575180053711,0.2242246627807617
0.3255575180053711,0.2242246627807617
0.3231296539306641,0.2231609344482422
0.3231296539306641,0.2231609344482422
0.3248399734497070,0.2229005813598633
0.3248399734497070,0.2229005813598633
0.3249670028686523,0.2272338867187500
0.3249670028686523,0.2272338867187500
0.3228887557983398,0.2225646972656250
0.3228887557983398,0.2225646972656250
0.3259780883789062,0.2243036270141602
0.3259780883789062,0.2243036270141602
0.3237287521362305,0.2223541259765625
0.3237287521362305,0.2223541259765625
0.3241075515747070,0.2227443695068359
0.3241075515747070,0.2227443695068359
0.3244428634643555,0.2238441467285156
0.3244428634643555,0.2238441467285156
0.3216007232666016,0.2208452224731445
0.3216007232666016,0.2208452224731445
0.3254299163818359,0.2229143142700195
0.3254299163818359,0.2229143142700195
0.3230936050415039,0.2230470657348633
0.3230936050415039,0.2230470657348633
0.3242643356323242,0.2218185424804688
0.3218181610107422,0.2218185424804688
0.3251815795898437,0.2251945495605469
0.3251815795898437,0.2251945495605469
0.3236526489257812,0.2230407714843750
0.3236526489257812,0.2230407714843750
0.3273393630981445,0.2270376205444336
0.3273393630981445,0.2270376205444336
0.3259563446044922,0.2256906509399414
0.3259563446044922,0.2256906509399414
0.3272912979125976,0.2259996414184570
0.3272912979125976,0.2259996414184570
0.3291521072387695,0.2300439834594726
0.3291521072387695,0.2300439834594726
0.3272174835205078,0.2292457580566406
0.3272174835205078,0.2292457580566406
0.3313127517700195,0.2311317443847656
0.3313127517700195,0.2311317443847656
0.3300144195556641,0.2311180114746094
0.3300144195556641,0.2311180114746094
0.3320674896240234,0.2318143844604492
0.3320674896240234,0.2318143844604492
0.3332834243774414,0.2371198654174805
0.3339860916137695,0.2371198654174805
0.3318820953369140,0.2341163635253906
0.3318820953369140,0.2341163635253906
0.3359390258789062,0.2375387191772461
0.3359390258789062,0.2375387191772461
0.3351562500000000,0.2375043869018555
0.3351562500000000,0.2375043869018555
0.3369117736816406,0.2395122528076172
0.3369117736816406,0.2395122528076172
0.3383342742919922,0.2424413681030273
0.3383342742919922,0.2424413681030273
0.3367017745971679,0.2406154632568359
0.3367017745971679,0.2406154632568359
0.3412473678588867,0.2438821792602539
0.3412473678588867,0.2438821792602539
0.3396039962768554,0.2449104309082031
0.3396039962768554,0.2449104309082031
0.3411809921264649,0.2440864562988281
0.3431173324584961,0.2464399337768555
0.3431173324584961,0.2464399337768555
0.3419929504394531,0.2485862731933594
0.3419929504394531,0.2485862731933594
0.3420427322387695,0.2463489532470703
0.3420427322387695,0.2463489532470703
0.3439224243164062,0.2489364624023437
0.3439224243164062,0.2489364624023437
0.3411712646484375,0.2459947586059570
0.3411712646484375,0.2459947586059570
0.3423471450805664,0.2446655273437500
0.3423471450805664,0.2446655273437500
0.3377088546752929,0.2417078018188477
0.3377088546752929,0.2417078018188477
0.3313259124755859,0.2322423934936523
0.3313259124755859,0.2322423934936523
0.3303903579711914,0.2294958114624023
0.3303903579711914,0.2294958114624023
0.3239839553833008,0.2233634948730469
0.3239839553833008,0.2233634948730469
0.3237104415893555,0.2207101821899414
0.3237104415893555,0.2207101821899414
0.3191482543945313,0.2193838119506836
0.3191482543945313,0.2193838119506836
0.3180828094482422,0.2148519515991211
0.3180828094482422,0.2148519515991211
0.3199630737304687,0.2162229537963867
0.3199630737304687,0.2162229537963867
0.3159181594848633,0.2130649566650391
0.3159181594848633,0.2130649566650391
0.3166494369506836,0.2124492645263672
0.3166494369506836,0.2124492645263672
0.3152566909790039,0.2133636474609375
0.3152566909790039,0.2133636474609375
0.3145946502685547,0.2102972030639648
0.3145946502685547,0.2102972030639648
0.3174619674682617,0.2130340576171875
0.3174619674682617,0.2130340576171875
0.3134159088134765,0.2107532501220703
0.3134159088134765,0.2107532501220703
0.3164955139160156,0.2114416122436523
0.3164955139160156,0.2114416122436523
0.3151222229003906,0.2129562377929687
0.3151222229003906,0.2129562377929687
0.3148824691772461,0.2107326507568359
0.3148824691772461,0.2107326507568359
0.3174934387207031,0.2140886306762695
0.3174934387207031,0.2140886306762695
0.3156578063964844,0.2126380920410156
0.3156578063964844,0.2126380920410156
0.3184438705444336,0.2139759063720703
0.3184438705444336,0.2139759063720703
0.3175271987915039,0.2161691665649414
0.3175271987915039,0.2161691665649414
0.3169378280639648,0.2142202377319336
0.3169378280639648,0.2142202377319336
0.3214879989624023,0.2180585861206055
0.3214879989624023,0.2180585861206055
0.3191247940063476,0.2168186187744141
0.3191247940063476,0.2168186187744141
0.3219268798828125,0.2182256698608398
0.3219268798828125,0.2182256698608398
0.3201353073120117,0.2203348159790039
0.3201353073120117,0.2203348159790039
0.3212053298950195,0.2185689926147461
0.3212053298950195,0.2185689926147461
0.3248416900634766,0.2221681594848633
0.3248416900634766,0.2221681594848633
0.3221763610839843,0.2208560943603516
0.3221763610839843,0.2208560943603516
0.3240062713623047,0.2218763351440430
0.3240062713623047,0.2218763351440430
0.3237041473388672,0.2239997863769531
0.3237041473388672,0.2239997863769531
0.3238512039184570,0.2217550277709961
0.3238512039184570,0.2217550277709961
0.3272020339965820,0.2251939773559570
0.3272020339965820,0.2251939773559570
0.3235622406005859,0.2235013961791992
0.3235622406005859,0.2235013961791992
0.3269725799560547,0.2246818542480469
0.3269725799560547,0.2246818542480469
0.3259454727172851,0.2267292022705078
0.3259454727172851,0.2267292022705078
0.3259431838989258,0.2247407913208008
0.3259431838989258,0.2247407913208008
0.3287641525268555,0.2282512664794922
0.3287641525268555,0.2282512664794922
0.3270795822143555,0.2270359039306641
0.3270795822143555,0.2270359039306641
0.3299165725708008,0.2285064697265625
0.3299165725708008,0.2285064697265625
0.3290576934814453,0.2308742523193359
0.3290576934814453,0.2308742523193359
0.3284025192260742,0.2289739608764648
0.3284025192260742,0.2289739608764648
0.3331083297729492,0.2329364776611328
0.3331083297729492,0.2329364776611328
0.3308115005493164,0.2318321228027344
0.3308115005493164,0.2318321228027344
0.3337926864624023,0.2336288452148437
0.3298753738403320,0.2336288452148437
0.3322620391845703,0.2361242294311523
0.3322620391845703,0.2361242294311523
0.3335449218750000,0.2346239089965820
0.3335449218750000,0.2346239089965820
0.3376699447631836,0.2386270523071289
0.3376699447631836,0.2386270523071289
0.3351087570190430,0.2376188278198242
0.3351087570190430,0.2376188278198242
0.3370731353759766,0.2390790939331054
0.3370731353759766,0.2390790939331054
0.3370548248291015,0.2414348602294922
0.3370548248291015,0.2414348602294922
0.3374158859252930,0.2397148132324219
0.3374158859252930,0.2397148132324219
0.3414258956909180,0.2437042236328125
0.3414258956909180,0.2437042236328125
0.3379314422607422,0.2424928665161133
0.3379314422607422,0.2424928665161133
0.3417114257812500,0.2441596984863281
0.3417114257812500,0.2441596984863281
0.3410568237304688,0.2466144561767578
0.3410568237304688,0.2466144561767578
0.3412164688110351,0.2449304580688476
0.3412164688110351,0.2449304580688476
0.3440946578979492,0.2487024307250977
0.3440946578979492,0.2487024307250977
0.3425765991210937,0.2475402832031250
0.3425765991210937,0.2475402832031250
0.3453071594238281,0.2490079879760742
0.3453071594238281,0.2490079879760742
0.3446010589599609,0.2515022277832031
0.3446010589599609,0.2515022277832031
0.3436861038208008,0.2495544433593750
0.3436861038208008,0.2495544433593750
0.3484846115112304,0.2534259796142578
0.3484846115112304,0.2534259796142578
0.3460659027099609,0.2523124694824219
0.3460659027099609,0.2523124694824219
0.3486396789550781,0.2537899017333984
0.3486396789550781,0.2537899017333984
0.3469287872314453,0.2558738708496094
0.3502584457397461,0.2558738708496094
0.3475645065307617,0.2534162521362305
0.3487821578979492,0.2534162521362305
0.3506669998168945,0.2559917449951172
0.3506669998168945,0.2559917449951172
0.3468446731567383,0.2530923843383789
0.3468446731567383,0.2530923843383789
0.3460824966430664,0.2501111984252929
0.3460824966430664,0.2501111984252929
0.3405555725097656,0.2443874359130859
0.3405555725097656,0.2443874359130859
0.3338962554931640,0.2338542938232422
0.3338962554931640,0.2338542938232422
0.3320480346679687,0.2308210372924805
0.3320480346679687,0.2308210372924805
0.3241859436035156,0.2238704681396484
0.3241859436035156,0.2238704681396484
0.3244794845581054,0.2213161468505859
0.3244794845581054,0.2213161468505859
0.3212860107421875,0.2205551147460937
0.3212860107421875,0.2205551147460937
0.3193794250488281,0.2160673141479492
0.3193794250488281,0.2160673141479492
0.3205993652343750,0.2175601959228516
0.3205993652343750,0.2175601959228516
0.3174734115600586,0.2144651412963867
0.3174734115600586,0.2144651412963867
0.3191579818725586,0.2142946243286133
0.3191579818725586,0.2142946243286133
0.3172542572021484,0.2153554916381836
0.3172542572021484,0.2153554916381836
0.3155239105224609,0.2119960784912109
0.3155239105224609,0.2119960784912109
0.3193611145019531,0.2147541046142578
0.3193611145019531,0.2147541046142578
0.3161127090454102,0.2125162124633789
0.3161127090454102,0.2125162124633789
0.3182447433471680,0.2132434844970703
0.3182447433471680,0.2132434844970703
0.3161670684814453,0.2149097442626953
0.3161670684814453,0.2149097442626953
0.3167530059814453,0.2125476837158203
0.3167530059814453,0.2125476837158203
0.3205175399780273,0.2159820556640625
0.3205175399780273,0.2159820556640625
0.3176616668701172,0.2146333694458008
0.3176616668701172,0.2146333694458008
0.3194812774658203,0.2157503128051758
0.3194812774658203,0.2157503128051758
0.3196123123168945,0.2182325363159180
0.3196123123168945,0.2182325363159180
0.3197130203247070,0.2162847518920898
0.3197130203247070,0.2162847518920898
0.3235467910766601,0.2200298309326172
0.3235467910766601,0.2200298309326172
0.3201679229736328,0.2187452316284180
0.3201679229736328,0.2187452316284180
0.3236886978149414,0.2200870513916016
0.3236886978149414,0.2200870513916016
0.3230792999267578,0.2223993301391602
0.3230792999267578,0.2223993301391602
0.3229539871215820,0.2204046249389648
0.3241270065307617,0.2204046249389648
0.3257995605468750,0.2237108230590820
0.3257995605468750,0.2237108230590820
0.3237447738647461,0.2221246719360352
0.3237447738647461,0.2221246719360352
0.3261669158935547,0.2231065750122070
0.3261669158935547,0.2231065750122070
0.3251077651977539,0.2250766754150391
0.3251077651977539,0.2250766754150391
0.3238786697387695,0.2225349426269531
0.3238786697387695,0.2225349426269531
0.3281066894531250,0.2256351470947265
0.3281066894531250,0.2256351470947265
0.3251409530639648,0.2238853454589844
0.3251409530639648,0.2238853454589844
0.3272294998168945,0.2245885848999023
0.3272294998168945,0.2245885848999023
0.3252141952514648,0.2261976242065430
0.3252141952514648,0.2261976242065430
0.3255254745483399,0.2238143920898437
0.3255254745483399,0.2238143920898437
0.3291509628295898,0.2269454956054687
0.3291509628295898,0.2269454956054687
0.3260078430175781,0.2251808166503906
0.3260078430175781,0.2251808166503906
0.3273874282836914,0.2258388519287109
0.3273874282836914,0.2258388519287109
0.3272964477539063,0.2279479980468750
0.3272964477539063,0.2279479980468750
0.3270561218261719,0.2255493164062500
0.3270561218261719,0.2255493164062500
0.3306175231933594,0.2288875579833984
0.3306175231933594,0.2288875579833984
0.3268632888793945,0.2272098541259766
0.3268632888793945,0.2272098541259766
0.3301008224487305,0.2282621383666992
0.3301008224487305,0.2282621383666992
0.3292928695678711,0.2304656982421875
0.3292928695678711,0.2304656982421875
0.3290559768676758,0.2283113479614258
0.3290559768676758,0.2283113479614258
0.3317871093750000,0.2315425872802734
0.3317871093750000,0.2315425872802734
0.3297466278076172,0.2300479888916016
0.3297466278076172,0.2300479888916016
0.3323650360107422,0.2308954238891602
0.3323650360107422,0.2308954238891602
0.3312171936035156,0.2331104278564453
0.3312171936035156,0.2331104278564453
0.3300012588500976,0.2304885864257812
0.3300012588500976,0.2304885864257812
0.3343488693237305,0.2338960647583008
0.3343488693237305,0.2338960647583008
0.3314014434814453,0.2321588516235351
0.3314014434814453,0.2321588516235351
0.3337709426879883,0.2330617904663086
0.3337709426879883,0.2330617904663086
0.3318798065185547,0.2349231719970703
0.3318798065185547,0.2349231719970703
0.3324222564697266,0.2326366424560547
0.3324222564697266,0.2326366424560547
0.3358583450317383,0.2357202529907226
0.3358583450317383,0.2357202529907226
0.3327810287475586,0.2340185165405273
0.3327810287475586,0.2340185165405273
0.3340427398681641,0.2345386505126953
0.3340427398681641,0.2345386505126953
0.3339460372924805,0.2364898681640625
0.3339460372924805,0.2364898681640625
0.3335191726684570,0.2340116500854492
0.3335191726684570,0.2340116500854492
0.3366502761840820,0.2368497848510742
0.3366502761840820,0.2368497848510742
0.3320320129394531,0.2338932037353516
0.3320320129394531,0.2338932037353516
0.3339998245239258,0.2329313278198242
0.3339998245239258,0.2329313278198242
0.3308532714843750,0.2319517135620117
0.3308532714843750,0.2319517135620117
0.3273902893066406,0.2256408691406250
0.3273902893066406,0.2256408691406250
0.3264690399169922,0.2243093490600586
0.3264690399169922,0.2243093490600586
0.3213878631591797,0.2188945770263672
0.3213878631591797,0.2188945770263672
0.3213483810424805,0.2167785644531250
0.3213483810424805,0.2167785644531250
0.3184226989746093,0.2163757324218750
0.3184226989746093,0.2163757324218750
0.3155908584594727,0.2117586135864258
0.3155908584594727,0.2117586135864258
0.3186149597167969,0.2133750915527344
0.3186149597167969,0.2133750915527344
0.3146415710449219,0.2101970672607422
0.3146415710449219,0.2101970672607422
0.3159112930297852,0.2097988128662109
0.3159112930297852,0.2097988128662109
0.3132196426391601,0.2105421066284180
0.3132196426391601,0.2105421066284180
0.3130588531494141,0.2074745178222656
0.3130588531494141,0.2074745178222656
0.3159570693969727,0.2099893569946289
0.3159570693969727,0.2099893569946289
0.3126714706420898,0.2078081130981445
0.3126714706420898,0.2078081130981445
0.3136848449707031,0.2079763412475586
0.3136848449707031,0.2079763412475586
0.3134628295898437,0.2099029541015625
0.3134628295898437,0.2099029541015625
0.3130771636962891,0.2073514938354492
0.3130771636962891,0.2073514938354492
0.3164079666137695,0.2105077743530273
0.3164079666137695,0.2105077743530273
0.3124425888061523,0.2086704254150391
0.3124425888061523,0.2086704254150391
0.3159175872802734,0.2098234176635742
0.3159175872802734,0.2098234176635742
0.3153041839599609,0.2123016357421875
0.3153041839599609,0.2123016357421875
0.3153018951416016,0.2103681564331055
0.3153018951416016,0.2103681564331055
0.3181915283203125,0.2138580322265625
0.3181915283203125,0.2138580322265625
0.3165573120117187,0.2128452301025391
0.3165573120117187,0.2128452301025391
0.3194606781005859,0.2141801834106445
0.3194606781005859,0.2141801834106445
0.3188524246215820,0.2169267654418945
0.3188524246215820,0.2169267654418945
0.3179666519165039,0.2146579742431640
0.3179666519165039,0.2146579742431640
0.3225019454956055,0.2182405471801758
0.3225019454956055,0.2182405471801758
0.3197044372558593,0.2167871475219726
0.3197044372558593,0.2167871475219726
0.3221597671508789,0.2176168441772461
0.3221597671508789,0.2176168441772461
0.3202245712280273,0.2195245742797851
0.3202245712280273,0.2195245742797851
0.3206634521484375,0.2170383453369140
0.3206634521484375,0.2170383453369140
0.3239358901977539,0.2199514389038086
0.3239358901977539,0.2199514389038086
0.3206960678100586,0.2180339813232422
0.3206960678100586,0.2180339813232422
0.3218770980834961,0.2182777404785156
0.3218770980834961,0.2182777404785156
0.3216928482055664,0.2204338073730469
0.3216928482055664,0.2204338073730469
0.3212642669677734,0.2178886413574219
0.3212642669677734,0.2178886413574219
0.3244440078735352,0.2209064483642578
0.3244440078735352,0.2209064483642578
0.3204351425170898,0.2188201904296875
0.3204351425170898,0.2188201904296875
0.3236532211303711,0.2196355819702148
0.3236532211303711,0.2196355819702148
0.3228006362915039,0.2218431472778320
0.3228006362915039,0.2218431472778320
0.3224367141723632,0.2194410324096680
0.3224367141723632,0.2194410324096680
0.3247781753540039,0.2223066329956055
0.3247781753540039,0.2223066329956055
0.3227937698364258,0.2208898544311523
0.3227937698364258,0.2208898544311523
0.3252799987792969,0.2216875076293945
0.3252799987792969,0.2216875076293945
0.3244966506958007,0.2240415573120117
0.3244966506958007,0.2240415573120117
0.3232440948486328,0.2215650558471680
0.3232440948486328,0.2215650558471680
0.3275928497314453,0.2249834060668945
0.3275928497314453,0.2249834060668945
0.3249286651611328,0.2234321594238281
0.3249286651611328,0.2234321594238281
0.3273296356201172,0.2244575500488281
0.3273296356201172,0.2244575500488281
0.3255746841430664,0.2265644073486328
0.3255746841430664,0.2265644073486328
0.3263277053833007,0.2245571136474609
0.3263277053833007,0.2245571136474609
0.3298038482666015,0.2277992248535156
0.3298038482666015,0.2277992248535156
0.3271139144897461,0.2262308120727539
0.3271139144897461,0.2262308120727539
0.3284099578857422,0.2268030166625976
0.3284099578857422,0.2268030166625976
0.3286314010620117,0.2293367385864258
0.3286314010620117,0.2293367385864258
0.3284906387329101,0.2271400451660156
0.3284906387329101,0.2271400451660156
0.3316886901855469,0.2302637100219727
0.3316886901855469,0.2302637100219727
0.3277999877929688,0.2283502578735351
0.3277999877929688,0.2283502578735351
0.3309877395629883,0.2291135787963867
0.3309877395629883,0.2291135787963867
0.3301506042480469,0.2314235687255859
0.3301506042480469,0.2314235687255859
0.3297203063964844,0.2290300369262695
0.3297203063964844,0.2290300369262695
0.3318666458129882,0.2315843582153320
0.3318666458129882,0.2315843582153320
0.3297603607177734,0.2299684524536133
0.3297603607177734,0.2299684524536133
0.3320497512817382,0.2303541183471680
0.3279075622558594,0.2303541183471680
0.3308824539184570,0.2322984695434570
0.3308824539184570,0.2322984695434570
0.3286937713623047,0.2284778594970703
0.3286937713623047,0.2284778594970703
0.3313510894775391,0.2295948028564453
0.3313510894775391,0.2295948028564453
0.3262310028076172,0.2247379302978516
0.3262310028076172,0.2247379302978516
0.3256999969482422,0.2218694686889648
0.3256999969482422,0.2218694686889648
0.3209449768066406,0.2201940536499023
0.3209449768066406,0.2201940536499023
0.3190046310424804,0.2147695541381836
0.3190046310424804,0.2147695541381836
0.3200397491455078,0.2149950027465820
0.3200397491455078,0.2149950027465820
0.3152263641357422,0.2109769821166992
0.3152263641357422,0.2109769821166992
0.3148784637451172,0.2091304779052734
0.3148784637451172,0.2091304779052734
0.3133123397827148,0.2097461700439453
0.3133123397827148,0.2097461700439453
0.3116918563842773,0.2057825088500977
0.3116918563842773,0.2057825088500977
0.3139675140380859,0.2074653625488281
0.3139675140380859,0.2074653625488281
0.3092393875122070,0.2044046401977539
0.3092393875122070,0.2044046401977539
0.3116300582885742,0.2042667388916015
0.3116300582885742,0.2042667388916015
0.3120803833007812,0.2058666229248047
0.3120803833007812,0.2046609878540039
0.3120803833007812,0.2060028076171875
0.3102006912231445,0.2044521331787109
0.3102006912231445,0.2044521331787109
0.3098516464233398,0.2028413772583008
0.3098516464233398,0.2028413772583008
0.3117439270019531,0.2059696197509766
0.3117439270019531,0.2059696197509766
0.3088027954101563,0.2047668457031250
0.3088027954101563,0.2047668457031250
0.3122571945190429,0.2049831390380859
0.3122571945190429,0.2049831390380859
0.3107934951782226,0.2053482055664062
0.3107934951782226,0.2053482055664062
0.3114194869995117,0.2043622970581055
0.3114194869995117,0.2043622970581055
0.3130096435546875,0.2090824127197266
0.3130096435546875,0.2090824127197266
0.3108444213867188,0.2060766220092773
0.3108444213867188,0.2060766220092773
0.3143932342529297,0.2081296920776367
0.3143932342529297,0.2081296920776367
0.3141031265258789,0.2092832565307617
0.3141031265258789,0.2092832565307617
0.3144807815551758,0.2098834991455078
0.3144807815551758,0.2098834991455078
0.3167198181152344,0.2124858856201172
0.3167198181152344,0.2124858856201172
0.3147062301635742,0.2109878540039062
0.3147062301635742,0.2109878540039062
0.3188793182373047,0.2132434844970703
0.3188793182373047,0.2132434844970703
0.3175781250000000,0.2153829574584961
0.3175781250000000,0.2153829574584961
0.3179729461669922,0.2129814147949219
0.3179729461669922,0.2129814147949219
0.3195728302001953,0.2164300918579102
0.3195728302001953,0.2164300918579102
0.3178602218627929,0.2145486831665039
0.3178602218627929,0.2145486831665039
0.3208929061889648,0.2173267364501953
0.3208929061889648,0.2173267364501953
0.3195018768310547,0.2164855957031250
0.3195018768310547,0.2164855957031250
0.3195516586303711,0.2149366378784180
0.3195516586303711,0.2149366378784180
0.3214462280273437,0.2182662963867187
0.3214462280273437,0.2182662963867187
0.3186384201049804,0.2174148559570312
0.3186384201049804,0.2174148559570312
0.3220121383666992,0.2175504684448242
0.3220121383666992,0.2175504684448242
0.3203859329223633,0.2179933547973633
0.3203859329223633,0.2179933547973633
0.3211051940917969,0.2166641235351562
0.3211051940917969,0.2166641235351562
0.3225431442260742,0.2212692260742188
0.3225431442260742,0.2212692260742188
0.3201261520385742,0.2180070877075195
0.3201261520385742,0.2180070877075195
0.3235513687133789,0.2195325851440430
0.3235513687133789,0.2195325851440430
0.3227062225341797,0.2204183578491211
0.3227062225341797,0.2204183578491211
0.3227594375610351,0.2205465316772461
0.3227594375610351,0.2205465316772461
0.3246671676635742,0.2226814270019531
0.3246671676635742,0.2226814270019531
0.3221620559692382,0.2208841323852539
0.3221620559692382,0.2208841323852539
0.3262733459472656,0.2228256225585938
0.3262733459472656,0.2228256225585938
0.3249515533447265,0.2249691009521484
0.3249515533447265,0.2249691009521484
0.3253005981445312,0.2224147796630859
0.3253005981445312,0.2224147796630859
0.3272117614746093,0.2259984970092773
0.3272117614746093,0.2259984970092773
0.3252628326416016,0.2242956161499023
0.3252628326416016,0.2242956161499023
0.3286159515380859,0.2275028228759766
0.3286159515380859,0.2275028228759766
0.3274526596069336,0.2268133163452148
0.3274526596069336,0.2268133163452148
0.3275733947753906,0.2255899429321289
0.3275733947753906,0.2255899429321289
0.3299657821655274,0.2291381835937500
0.3299657821655274,0.2291381835937500
0.3273874282836914,0.2287307739257812
0.3273874282836914,0.2287307739257812
0.3309087753295898,0.2289762496948242
0.3309087753295898,0.2289762496948242
0.3295269012451172,0.2295919418334961
0.3295269012451172,0.2295919418334961
0.3303382873535156,0.2284440994262695
0.3303382873535156,0.2284440994262695
0.3317127227783203,0.2333061218261719
0.3317127227783203,0.2333061218261719
0.3294153213500977,0.2299455642700195
0.3294153213500977,0.2299455642700195
0.3325790405273437,0.2316123962402344
0.3325790405273437,0.2316123962402344
0.3318391799926758,0.2323453903198242
0.3318391799926758,0.2323453903198242
0.3318929672241211,0.2324197769165039
0.3318929672241211,0.2324197769165039
0.3335746765136718,0.2342451095581055
0.3335746765136718,0.2342451095581055
0.3310329437255859,0.2320386886596680
0.3310329437255859,0.2320386886596680
0.3341794967651367,0.2327877044677734
0.3341794967651367,0.2327877044677734
0.3310300827026367,0.2326910018920898
0.3310300827026367,0.2326910018920898
0.3287910461425781,0.2263578414916992
0.3287910461425781,0.2263578414916992
0.3268764495849609,0.2256168365478516
0.3268764495849609,0.2256168365478516
0.3217575073242188,0.2194381713867188
0.3217575073242188,0.2194381713867188
0.3218278884887695,0.2186531066894531
0.3218278884887695,0.2186531066894531
0.3178745269775390,0.2147317886352539
0.3178745269775390,0.2147317886352539
0.3160097122192383,0.2105867385864258
0.3160097122192383,0.2105867385864258
0.3162603378295898,0.2118387222290039
0.3162603378295898,0.2118387222290039
0.3120986938476563,0.2093467712402344
0.3120986938476563,0.2093467712402344
0.3141838073730469,0.2078344345092773
0.3141838073730469,0.2078344345092773
0.3114149093627930,0.2071289062500000
0.3114149093627930,0.2071289062500000
0.3113204956054688,0.2046026229858398
0.3113204956054688,0.2046026229858398
0.3120426177978515,0.2083980560302734
0.3120426177978515,0.2083980560302734
0.3091426849365234,0.2044401168823242
0.3091426849365234,0.2044401168823242
0.3119951248168945,0.2053682327270508
0.3119951248168945,0.2053682327270508
0.3106138229370117,0.2056938171386719
0.3106138229370117,0.2056938171386719
0.3104701995849609,0.2052085876464844
