REDsignal,IRsignal
0.2873783111572266,0.3359596252441406
0.2873783111572266,0.3359596252441406
0.2860067367553711,0.3353919982910156
0.2860067367553711,0.3353919982910156
0.2875316619873047,0.3364574432373047
0.2875316619873047,0.3364574432373047
0.2867534637451172,0.3375366210937500
0.2867534637451172,0.3375366210937500
0.2871316909790039,0.3357627868652344
0.2871316909790039,0.3357627868652344
0.2885931015014648,0.3385797500610351
0.2885931015014648,0.3385797500610351
0.2875986099243164,0.3383760452270508
0.2875986099243164,0.3383760452270508
0.2894657135009766,0.3398008346557617
0.2894657135009766,0.3398008346557617
0.2889547348022461,0.3410453796386719
0.2889547348022461,0.3410453796386719
0.2892923355102539,0.3393665313720703
0.2892923355102539,0.3393665313720703
0.2910547256469727,0.3424346923828125
0.2910547256469727,0.3424346923828125
0.2899120330810547,0.3419855117797851
0.2899120330810547,0.3419855117797851
0.2930053710937500,0.3460933685302734
0.2930053710937500,0.3460933685302734
0.2930053710937500,0.3446125030517578
0.2926774978637695,0.3451446533203125
0.2926774978637695,0.3451446533203125
0.2912881851196289,0.3436580657958984
0.2931856155395507,0.3474431991577148
0.2949697494506836,0.3474431991577148
0.2923576354980469,0.3466129302978516
0.2923576354980469,0.3466129302978516
0.2950653076171875,0.3482603073120117
0.2945955276489258,0.3482603073120117
0.2932474136352539,0.3481670379638672
0.2932474136352539,0.3481670379638672
0.2950155258178711,0.3485933303833008
0.2950155258178711,0.3485933303833008
0.2953273773193359,0.3510669708251953
0.2953273773193359,0.3510669708251953
0.2944656372070312,0.3501480102539062
0.2944656372070312,0.3501480102539062
0.2974622726440430,0.3515447616577148
0.2974622726440430,0.3515447616577148
0.2953783035278320,0.3513393402099609
0.2953783035278320,0.3513393402099609
0.2967733383178711,0.3514852523803711
0.2967733383178711,0.3514852523803711
0.2965484619140625,0.3533025741577148
0.2965484619140625,0.3533025741577148
0.2955265045166016,0.3514577865600586
0.2955265045166016,0.3514577865600586
0.2974411010742187,0.3515693664550781
0.2974411010742187,0.3515693664550781
0.2944971084594726,0.3495649337768554
0.2944971084594726,0.3495649337768554
0.2940279006958008,0.3464498519897461
0.2940279006958008,0.3464498519897461
0.2924680709838867,0.3456676483154297
0.2924680709838867,0.3456676483154297
0.2899663925170898,0.3418819427490234
0.2899663925170898,0.3418819427490234
0.2913139343261719,0.3411249160766601
0.2913139343261719,0.3411249160766601
0.2876667022705078,0.3387336730957031
0.2876667022705078,0.3387336730957031
0.2884986877441406,0.3372407913208008
0.2884986877441406,0.3372407913208008
0.2877525329589843,0.3381248474121094
0.2877525329589843,0.3381248474121094
0.2860136032104492,0.3354990005493164
0.2860136032104492,0.3354990005493164
0.2878063201904297,0.3358303070068359
0.2878063201904297,0.3358303070068359
0.2851037979125977,0.3343173980712891
0.2851037979125977,0.3343173980712891
0.2861738204956055,0.3338195800781250
0.2861738204956055,0.3338195800781250
0.2860124588012695,0.3354486465454101
0.2860124588012695,0.3354486465454101
0.2846597671508789,0.3339534759521484
0.2846597671508789,0.3339534759521484
0.2871763229370117,0.3346384048461914
0.2871763229370117,0.3346384048461914
0.2848302841186524,0.3340106964111328
0.2848302841186524,0.3340106964111328
0.2861240386962891,0.3339334487915039
0.2861240386962891,0.3339334487915039
0.2859861373901367,0.3360048294067383
0.2859861373901367,0.3360048294067383
0.2851747512817382,0.3347814559936523
0.2851747512817382,0.3347814559936523
0.2878080368041992,0.3357971191406250
0.2878080368041992,0.3357971191406250
0.2856182098388672,0.3354566574096680
0.2856182098388672,0.3354566574096680
0.2867866516113281,0.3354543685913086
0.2867866516113281,0.3354543685913086
0.2870944976806640,0.3375789642333984
0.2870944976806640,0.3375789642333984
0.2862499237060547,0.3362920761108398
0.2862499237060547,0.3362920761108398
0.2886325836181641,0.3374221801757812
0.2886325836181641,0.3374221801757812
0.2863483428955078,0.3370634078979492
0.2863483428955078,0.3370634078979492
0.2879968643188476,0.3372373580932617
0.2879968643188476,0.3372373580932617
0.2883384704589844,0.3396783828735351
0.2883384704589844,0.3396783828735351
0.2875345230102539,0.3386089324951172
0.2875345230102539,0.3386089324951172
0.2899726867675781,0.3400022506713867
0.2899726867675781,0.3400022506713867
0.2883258819580078,0.3399032592773437
0.2883258819580078,0.3399032592773437
0.2896385192871094,0.3402574539184570
0.2896385192871094,0.3402574539184570
0.2899417877197266,0.3425657272338867
0.2899417877197266,0.3425657272338867
0.2891418457031250,0.3418842315673828
0.2891418457031250,0.3418842315673828
0.2919359207153320,0.3429965972900391
0.2919359207153320,0.3429965972900391
0.2899143218994141,0.3427494049072266
0.2899143218994141,0.3427494049072266
0.2909877777099609,0.3428272247314453
0.2909877777099609,0.3428272247314453
0.2910713195800781,0.3452671051025391
0.2910713195800781,0.3452671051025391
0.2908298492431641,0.3446331024169922
0.2908298492431641,0.3446331024169922
0.2936056137084961,0.3457981109619140
0.2936056137084961,0.3457981109619140
0.2913557052612304,0.3451732635498047
0.2913557052612304,0.3451732635498047
0.2922838211059570,0.3447658538818359
0.2922838211059570,0.3447658538818359
0.2920509338378906,0.3458799362182617
0.2906278610229492,0.3433828353881836
0.2891801834106445,0.3433828353881836
0.2922094345092773,0.3431190490722656
0.2922094345092773,0.3431190490722656
0.2890108108520508,0.3411718368530273
0.2890108108520508,0.3411718368530273
0.2898513793945313,0.3400108337402344
0.2898513793945313,0.3400108337402344
0.2892705917358399,0.3410018920898437
0.2892705917358399,0.3410018920898437
0.2878692626953125,0.3386896133422851
0.2878692626953125,0.3386896133422851
0.2896007537841797,0.3391330718994141
0.2896007537841797,0.3391330718994141
0.2872484207153320,0.3377849578857422
0.2872484207153320,0.3377849578857422
0.2883041381835937,0.3372694015502929
0.2883041381835937,0.3372694015502929
0.2879304885864258,0.3386867523193359
0.2879304885864258,0.3386867523193359
0.2864559173583984,0.3366090774536133
0.2864559173583984,0.3366090774536133
0.2887664794921875,0.3370359420776367
0.2887664794921875,0.3370359420776367
0.2861778259277344,0.3358051300048828
0.2861778259277344,0.3358051300048828
0.2873411178588867,0.3354537963867187
0.2873411178588867,0.3354537963867187
0.2867425918579101,0.3372070312500000
0.2867425918579101,0.3372070312500000
0.2861211776733398,0.3357484817504883
0.2861211776733398,0.3357484817504883
0.2885593414306640,0.3368144989013672
0.2885593414306640,0.3368144989013672
0.2862842559814453,0.3362010955810547
0.2862842559814453,0.3362010955810547
0.2875448226928711,0.3364923477172851
0.2875448226928711,0.3364923477172851
0.2877742767333984,0.3387222290039062
0.2877742767333984,0.3387222290039062
0.2871076583862305,0.3376115798950195
0.2871076583862305,0.3376115798950195
0.2895509719848633,0.3390306472778320
0.2895509719848633,0.3390306472778320
0.2873600006103516,0.3387691497802734
0.2873600006103516,0.3387691497802734
0.2891790390014649,0.3392738342285156
0.2891790390014649,0.3392738342285156
0.2894462585449218,0.3418167114257812
0.2894462585449218,0.3418167114257812
0.2889324188232422,0.3408691406250000
0.2889324188232422,0.3408691406250000
0.2912870407104492,0.3425674438476562
0.2912870407104492,0.3425674438476562
0.2896945953369141,0.3423110961914063
0.2896945953369141,0.3423110961914063
0.2912458419799804,0.3429061889648438
0.2912458419799804,0.3429061889648438
0.2914072036743164,0.3453042984008789
0.2914072036743164,0.3453042984008789
0.2907823562622070,0.3445169448852539
0.2907823562622070,0.3445169448852539
0.2933887481689453,0.3458518981933594
0.2933887481689453,0.3458518981933594
0.2917041778564453,0.3454513549804688
0.2917041778564453,0.3454513549804688
0.2929933547973633,0.3458759307861328
0.2929933547973633,0.3458759307861328
0.2929315567016602,0.3480068206787109
0.2929315567016602,0.3480068206787109
0.2924383163452148,0.3470397949218750
0.2924383163452148,0.3470397949218750
0.2947431564331054,0.3482437133789062
0.2947431564331054,0.3482437133789062
0.2929950714111328,0.3478952407836914
0.2929950714111328,0.3478952407836914
0.2940610885620117,0.3483564376831055
0.2940610885620117,0.3483564376831055
0.2944427490234375,0.3503826141357422
0.2944427490234375,0.3503826141357422
0.2939489364624023,0.3495180130004883
0.2939489364624023,0.3495180130004883
0.2959110260009766,0.3501394271850586
0.2959110260009766,0.3501394271850586
0.2936027526855469,0.3489446640014648
0.2936027526855469,0.3489446640014648
0.2943729400634765,0.3483650207519531
0.2943729400634765,0.3483650207519531
0.2937463760375976,0.3489023208618164
0.2937463760375976,0.3489023208618164
0.2922918319702149,0.3465419769287109
0.2922918319702149,0.3465419769287109
0.2934642791748047,0.3462232589721679
0.2934642791748047,0.3462232589721679
0.2911285400390625,0.3443498611450195
0.2911285400390625,0.3443498611450195
0.2914947509765625,0.3434778213500976
0.2914947509765625,0.3434778213500976
0.2908676147460937,0.3444036483764648
0.2922603607177734,0.3444036483764648
0.2895418167114258,0.3424999237060547
0.2895418167114258,0.3424999237060547
0.2913225173950195,0.3425342559814453
0.2913225173950195,0.3425342559814453
0.2890411376953125,0.3411500930786133
0.2890411376953125,0.3411500930786133
0.2897409439086914,0.3409790039062500
0.2897409439086914,0.3409790039062500
0.2895921707153320,0.3425296783447265
0.2895921707153320,0.3425296783447265
0.2890766143798828,0.3411918640136719
0.2890766143798828,0.3411918640136719
0.2910621643066406,0.3418458938598632
0.2910621643066406,0.3418458938598632
0.2890851974487305,0.3408050537109375
0.2890851974487305,0.3408050537109375
0.2897094726562500,0.3407993316650391
0.2897094726562500,0.3407993316650391
0.2899457931518555,0.3423070907592773
0.2899457931518555,0.3423070907592773
0.2893054962158203,0.3414058685302734
0.2882371902465820,0.3414058685302734
0.2914014816284179,0.3422950744628906
0.2914014816284179,0.3422950744628906
0.2895544052124023,0.3417440414428711
0.2895544052124023,0.3417440414428711
0.2908756256103516,0.3422012329101562
0.2908756256103516,0.3422012329101562
0.2911668777465820,0.3443172454833984
0.2911668777465820,0.3443172454833984
0.2907886505126953,0.3437524795532226
0.2907886505126953,0.3437524795532226
0.2929613113403320,0.3451583862304687
0.2929613113403320,0.3451583862304687
0.2916503906250000,0.3448219299316406
0.2916503906250000,0.3448219299316406
0.2930688858032227,0.3455406188964844
0.2930688858032227,0.3455406188964844
0.2933115005493164,0.3478643417358399
0.2933115005493164,0.3478643417358399
0.2929201126098633,0.3471965789794922
0.2929201126098633,0.3471965789794922
0.2955041885375976,0.3487352371215820
0.2955041885375976,0.3487352371215820
0.2939752578735351,0.3481761932373047
0.2939752578735351,0.3481761932373047
0.2951179504394531,0.3486419677734375
0.2951179504394531,0.3486419677734375
0.2956792831420899,0.3512100219726562
0.2956792831420899,0.3499305725097656
0.2956792831420899,0.3499305725097656
0.2951625823974609,0.3503574371337890
0.2951625823974609,0.3503574371337890
0.2951997756958007,0.3485773086547851
0.2951997756958007,0.3485773086547851
0.2963647842407227,0.3512952804565430
0.2963647842407227,0.3512952804565430
0.2950223922729492,0.3502790451049805
0.2950223922729492,0.3502790451049805
0.2964780807495117,0.3514835357666016
0.2964780807495117,0.3514835357666016
0.2957805633544922,0.3521930694580078
0.2982788085937500,0.3521930694580078
0.2960580825805664,0.3506801605224609
0.2960580825805664,0.3506801605224609
0.2974039077758789,0.3536424636840820
0.2974039077758789,0.3536424636840820
0.2963327407836914,0.3526336669921875
0.2963327407836914,0.3526336669921875
0.2977008819580078,0.3540184020996094
0.2977008819580078,0.3540184020996094
0.2972036361694336,0.3546604156494140
0.2972036361694336,0.3546604156494140
0.2973896026611328,0.3526508331298828
0.2973896026611328,0.3526508331298828
0.2984104156494141,0.3548217773437500
0.2984104156494141,0.3548217773437500
0.2961896896362304,0.3523361206054688
0.2961896896362304,0.3523361206054688
0.2967956542968750,0.3524093627929688
0.2967956542968750,0.3524093627929688
0.2953262329101562,0.3514738082885742
0.2953262329101562,0.3514738082885742
0.2946338653564453,0.3475805282592773
0.2946338653564453,0.3475805282592773
0.2946115493774414,0.3485984802246094
0.2946115493774414,0.3485984802246094
0.2920812606811523,0.3455629348754883
0.2920812606811523,0.3455629348754883
0.2926271438598633,0.3453775405883789
0.2926271438598633,0.3453775405883789
0.2914695739746094,0.3446920394897461
0.2914695739746094,0.3446920394897461
0.2907165527343750,0.3414281845092773
0.2907165527343750,0.3414281845092773
0.2914346694946289,0.3433925628662109
0.2914346694946289,0.3433925628662109
0.2891675949096680,0.3408079147338867
0.2891675949096680,0.3408079147338867
0.2903171539306640,0.3410951614379883
0.2903171539306640,0.3410951614379883
0.2889392852783203,0.3407712936401367
0.2889392852783203,0.3407712936401367
0.2886543273925781,0.3381105422973633
0.2865594863891601,0.3381105422973633
0.2897169113159180,0.3406482696533203
0.2897169113159180,0.3406482696533203
0.2879882812500000,0.3388526916503906
0.2879882812500000,0.3388526916503906
0.2894084930419922,0.3401206970214843
0.2894084930419922,0.3401206970214843
0.2887258529663086,0.3408937454223633
0.2887258529663086,0.3408937454223633
0.2892019271850586,0.3392749786376953
0.2892019271850586,0.3392749786376953
0.2908819198608398,0.3428260803222656
0.2908819198608398,0.3428260803222656
0.2893306732177734,0.3415809631347656
0.2893306732177734,0.3415809631347656
0.2909849166870117,0.3433187484741211
0.2909849166870117,0.3433187484741211
0.2905517578125000,0.3445386886596680
0.2905517578125000,0.3445386886596680
0.2915925979614258,0.3431888580322265
0.2915925979614258,0.3431888580322265
0.2930459976196289,0.3467914581298828
0.2930459976196289,0.3467914581298828
0.2915897369384766,0.3455137252807617
0.2915897369384766,0.3455137252807617
0.2934270858764648,0.3473287582397461
0.2934270858764648,0.3473287582397461
0.2932199478149414,0.3484107971191406
0.2932199478149414,0.3484107971191406
0.2936044692993164,0.3467233657836914
0.2936044692993164,0.3467233657836914
0.2950590133666992,0.3501394271850586
0.2960706710815429,0.3501394271850586
0.2936170578002930,0.3487913131713867
0.2936170578002930,0.3487913131713867
0.2955814361572265,0.3505840301513672
0.2955814361572265,0.3505840301513672
0.2948947906494140,0.3513084411621094
0.2948947906494140,0.3513084411621094
0.2953851699829101,0.3496210098266602
0.2953851699829101,0.3496210098266602
0.2968099594116211,0.3529123306274414
0.2968099594116211,0.3529123306274414
0.2955430984497070,0.3515865325927734
0.2955430984497070,0.3515865325927734
0.2971887588500977,0.3533020019531250
0.2971887588500977,0.3533020019531250
0.2965999603271484,0.3541030883789062
0.2965999603271484,0.3541030883789062
0.2972494125366211,0.3526056289672851
0.2972494125366211,0.3526056289672851
0.2988910675048828,0.3560628890991211
0.2988910675048828,0.3560628890991211
0.2975286483764648,0.3548532485961914
0.2975286483764648,0.3548532485961914
0.2990833282470703,0.3563598632812500
0.2990833282470703,0.3563598632812500
0.2983949661254883,0.3565023422241211
0.2983949661254883,0.3565023422241211
0.2983989715576172,0.3538684844970703
0.2983989715576172,0.3538684844970703
0.2986633300781250,0.3555770874023437
0.2986633300781250,0.3555770874023437
0.2965250015258789,0.3528980255126953
0.2965250015258789,0.3528980255126953
0.2969495773315430,0.3526170730590820
0.2969495773315430,0.3526170730590820
0.2954257965087890,0.3510080337524414
0.2954257965087890,0.3510080337524414
0.2941761016845703,0.3470083236694336
0.2941761016845703,0.3470083236694336
0.2941555023193359,0.3478191375732422
0.2941555023193359,0.3478191375732422
0.2915124893188477,0.3443979263305664
0.2915124893188477,0.3443979263305664
0.2920366287231445,0.3440895080566406
0.2920366287231445,0.3440895080566406
0.2905036926269531,0.3430583953857422
0.2905036926269531,0.3430583953857422
0.2899744033813477,0.3401727676391602
0.2899744033813477,0.3401727676391602
0.2903783798217773,0.3420118331909179
0.2903783798217773,0.3420118331909179
0.2886400222778320,0.3398511886596680
0.2886400222778320,0.3398511886596680
0.2894948959350586,0.3406007766723633
0.2894948959350586,0.3406007766723633
0.2888128280639649,0.3406728744506836
0.2888128280639649,0.3406728744506836
0.2890102386474609,0.3388446807861328
0.2890102386474609,0.3388446807861328
0.2901660919189453,0.3416164398193359
0.2901660919189453,0.3416164398193359
0.2885478973388672,0.3401773452758789
0.2885478973388672,0.3401773452758789
0.2900459289550781,0.3417949676513672
0.2900459289550781,0.3417949676513672
0.2896785736083984,0.3423414230346680
0.2896785736083984,0.3423414230346680
0.2902130126953125,0.3407512664794922
0.2883247375488281,0.3407512664794922
0.2910993576049805,0.3436351776123047
0.2910993576049805,0.3436351776123047
0.2897558212280273,0.3422636032104492
0.2897558212280273,0.3422636032104492
0.2911125183105469,0.3437318801879883
0.2911125183105469,0.3437318801879883
0.2908510208129882,0.3442989349365234
0.2908510208129882,0.3442989349365234
0.2910558700561524,0.3425434112548828
0.2910558700561524,0.3425434112548828
0.2921670913696289,0.3454982757568359
0.2921670913696289,0.3454982757568359
0.2908372879028320,0.3440294265747070
0.2908372879028320,0.3440294265747070
0.2923662185668945,0.3455892562866211
0.2923662185668945,0.3455892562866211
0.2917957305908203,0.3460281372070312
0.2917957305908203,0.3460281372070312
0.2922163009643555,0.3444562911987304
0.2922163009643555,0.3444562911987304
0.2932954788208008,0.3473310470581055
0.2932954788208008,0.3473310470581055
0.2919187545776367,0.3457260131835938
0.2919187545776367,0.3457260131835938
0.2933298110961914,0.3471742630004883
0.2933298110961914,0.3471742630004883
0.2928789138793945,0.3476503372192383
0.2928789138793945,0.3476503372192383
0.2931690216064453,0.3459280014038086
0.2931690216064453,0.3459280014038086
0.2944856643676758,0.3490219116210938
0.2944856643676758,0.3490219116210938
0.2927129745483398,0.3473762512207031
0.2927129745483398,0.3473762512207031
0.2946172714233398,0.3492759704589843
0.2946172714233398,0.3492759704589843
0.2940696716308593,0.3499603271484375
0.2940696716308593,0.3499603271484375
0.2947946548461914,0.3482683181762695
0.2947946548461914,0.3482683181762695
0.2956140518188476,0.3511533737182617
0.2956140518188476,0.3511533737182617
0.2939546585083008,0.3494585037231445
0.2939546585083008,0.3494585037231445
0.2957313537597656,0.3510612487792968
0.2957313537597656,0.3510612487792968
0.2951414108276367,0.3512798309326172
0.2951414108276367,0.3512798309326172
0.2947666168212891,0.3476840972900391
0.2947666168212891,0.3476840972900391
0.2941337585449219,0.3477184295654297
0.2941337585449219,0.3477184295654297
0.2909139633178711,0.3432935714721679
0.2909139633178711,0.3432935714721679
0.2912950515747070,0.3427825927734375
0.2912950515747070,0.3427825927734375
0.2896076202392578,0.3414710998535156
0.2915880203247070,0.3414710998535156
0.2889930725097656,0.3382490158081055
0.2889930725097656,0.3382490158081055
0.2892471313476562,0.3397195816040039
0.2892471313476562,0.3397195816040039
0.2868759155273438,0.3364007949829101
0.2868759155273438,0.3364007949829101
0.2875276565551758,0.3364717483520508
0.2875276565551758,0.3364717483520508
0.2863397598266602,0.3358932495117187
0.2863397598266602,0.3358932495117187
0.2861434936523438,0.3332553863525390
0.2861434936523438,0.3332553863525390
0.2871248245239258,0.3356660842895507
0.2871248245239258,0.3356660842895507
0.2849166870117187,0.3334030151367187
0.2849166870117187,0.3334030151367187
0.2867208480834961,0.3349920272827148
0.2867208480834961,0.3349920272827148
0.2860559463500976,0.3356294631958008
0.2860559463500976,0.3356294631958008
0.2868335723876953,0.3339952468872070
0.2868335723876953,0.3339952468872070
0.2880340576171875,0.3375062942504883
0.2880340576171875,0.3375062942504883
0.2862802505493164,0.3358675003051758
0.2862802505493164,0.3358675003051758
0.2884792327880859,0.3378822326660156
0.2884792327880859,0.3378822326660156
0.2879625320434570,0.3388286590576172
0.2879625320434570,0.3388286590576172
0.2884643554687500,0.3369512557983398
0.2884643554687500,0.3369512557983398
0.2897603988647461,0.3405183792114257
0.2897603988647461,0.3405183792114257
0.2878057479858399,0.3385992050170898
0.2878057479858399,0.3385992050170898
0.2898296356201172,0.3402717590332031
0.2898296356201172,0.3402717590332031
0.2890863418579102,0.3408668518066406
0.2890863418579102,0.3408668518066406
0.2893495559692383,0.3389791488647461
0.2893495559692383,0.3389791488647461
0.2905912399291992,0.3423254013061524
0.2905912399291992,0.3423254013061524
0.2888648986816406,0.3404314041137695
0.2888648986816406,0.3404314041137695
0.2905860900878906,0.3420021057128906
0.2894193649291992,0.3420021057128906
0.2899675369262695,0.3426858901977539
0.2899675369262695,0.3426858901977539
0.2902690887451172,0.3409355163574219
0.2902690887451172,0.3409355163574219
0.2916332244873047,0.3440689086914062
0.2916332244873047,0.3440689086914062
0.2895561218261719,0.3420415878295898
0.2895561218261719,0.3420415878295898
0.2913408279418945,0.3437267303466797
0.2913408279418945,0.3437267303466797
0.2907234191894531,0.3441312789916992
0.2907234191894531,0.3441312789916992
0.2910215377807617,0.3421852111816406
0.2910215377807617,0.3421852111816406
0.2918237686157226,0.3448619842529297
0.2918237686157226,0.3448619842529297
0.2898914337158203,0.3428850173950195
0.2898914337158203,0.3428850173950195
0.2913608551025391,0.3439830780029297
0.2913608551025391,0.3439830780029297
0.2907360076904297,0.3441438674926758
0.2907360076904297,0.3441438674926758
0.2906438827514649,0.3418865203857422
0.2906438827514649,0.3418865203857422
0.2913854598999023,0.3444242477416992
0.2913854598999023,0.3444242477416992
0.2891996383666992,0.3417469024658203
0.2891996383666992,0.3417469024658203
0.2904670715332031,0.3421703338623047
0.2904670715332031,0.3421703338623047
0.2886377334594726,0.3406517028808594
0.2886377334594726,0.3406517028808594
0.2875356674194336,0.3366508483886719
0.2875356674194336,0.3366508483886719
0.2874452590942383,0.3378061294555664
0.2874452590942383,0.3378061294555664
0.2855701446533203,0.3363533020019531
0.2855701446533203,0.3359664916992187
0.2842620849609375,0.3335020065307617
0.2827440261840820,0.3335020065307617
0.2854150772094726,0.3338127136230469
0.2854150772094726,0.3338127136230469
0.2833082199096680,0.3316600799560547
0.2833082199096680,0.3316600799560547
0.2837076187133789,0.3311084747314453
0.2837076187133789,0.3311084747314453
0.2832624435424805,0.3323455810546875
0.2832624435424805,0.3323455810546875
0.2821105957031250,0.3305917739868164
0.2821105957031250,0.3305917739868164
0.2841768264770508,0.3314535140991211
0.2841768264770508,0.3314535140991211
0.2821615219116211,0.3297431945800781
0.2821615219116211,0.3297431945800781
0.2827978134155273,0.3298101425170898
0.2827978134155273,0.3298101425170898
0.2826438903808594,0.3319232940673828
0.2826438903808594,0.3319232940673828
0.2824951171875000,0.3309082031250000
0.2824951171875000,0.3309082031250000
0.2847433090209961,0.3324211120605469
0.2847433090209961,0.3324211120605469
0.2831811904907227,0.3314826965332031
0.2831811904907227,0.3314826965332031
0.2841218948364257,0.3320983886718750
0.2841218948364257,0.3320983886718750
0.2843679428100586,0.3341915130615234
0.2843679428100586,0.3341915130615234
0.2841859817504883,0.3333114624023437
0.2841859817504883,0.3333114624023437
0.2863014221191406,0.3349542617797852
0.2863014221191406,0.3349542617797852
0.2846712112426757,0.3340942382812500
0.2846712112426757,0.3340942382812500
0.2860605239868164,0.3348175048828125
0.2860605239868164,0.3348175048828125
0.2860467910766601,0.3371543884277344
0.2860467910766601,0.3371543884277344
0.2860691070556641,0.3366382598876953
0.2860691070556641,0.3366382598876953
0.2881742477416992,0.3384630203247070
0.2881742477416992,0.3384630203247070
0.2874784469604492,0.3380453109741211
0.2874784469604492,0.3380453109741211
0.2886308670043945,0.3391227722167969
0.2886308670043945,0.3391227722167969
0.2889598846435547,0.3415529251098633
0.2889598846435547,0.3415529251098633
0.2887218475341797,0.3413337707519531
0.2887218475341797,0.3413337707519531
0.2913270950317383,0.3431070327758789
0.2913270950317383,0.3431070327758789
0.2903486251831054,0.3427196502685547
0.2903486251831054,0.3427196502685547
0.2913791656494141,0.3436100006103516
0.2913791656494141,0.3436100006103516
0.2913333892822266,0.3457981109619140
0.2913333892822266,0.3457981109619140
0.2914215087890625,0.3452213287353516
0.2914215087890625,0.3452213287353516
0.2934963226318359,0.3467805862426758
0.2934963226318359,0.3467805862426758
0.2924314498901367,0.3462684631347656
0.2924314498901367,0.3462684631347656
0.2932708740234375,0.3468955993652343
0.2932708740234375,0.3468955993652343
0.2934482574462891,0.3490259170532227
0.2934482574462891,0.3490259170532227
0.2932703018188477,0.3484188079833984
0.2932703018188477,0.3484188079833984
0.2952804565429688,0.3498052597045898
0.2952804565429688,0.3498052597045898
0.2939729690551758,0.3492490768432617
0.2939729690551758,0.3492490768432617
0.2946819305419922,0.3492490768432617
0.2946819305419922,0.3492490768432617
0.2945480346679688,0.3505571365356445
0.2945480346679688,0.3505571365356445
0.2936948776245117,0.3490436553955078
0.2922277450561523,0.3490436553955078
0.2944067001342773,0.3483312606811523
0.2944067001342773,0.3483312606811523
0.2918855667114258,0.3446674346923828
0.2918855667114258,0.3446674346923828
0.2907932281494141,0.3424375534057617
0.2907932281494141,0.3424375534057617
0.2896802902221680,0.3422527313232422
0.2896802902221680,0.3422527313232422
0.2880615234375000,0.3401109695434570
0.2880615234375000,0.3401109695434570
0.2894977569580078,0.3398460388183593
0.2894977569580078,0.3398460388183593
0.2878320693969726,0.3382656097412109
0.2878320693969726,0.3382656097412109
0.2877433776855469,0.3375778198242188
0.2877433776855469,0.3375778198242188
0.2870664596557617,0.3383731842041016
0.2870664596557617,0.3383731842041016
0.2862367630004883,0.3366765975952148
0.2862367630004883,0.3366765975952148
0.2877851486206054,0.3370187759399414
0.2876306533813476,0.3370187759399414
0.2862424850463867,0.3359951019287109
0.2874229431152344,0.3359951019287109
0.2865509033203125,0.3359058380126953
0.2865509033203125,0.3359058380126953
0.2866676330566406,0.3377586364746094
0.2866676330566406,0.3377586364746094
0.2863752365112305,0.3368511199951172
0.2863752365112305,0.3368511199951172
0.2882961273193359,0.3381774902343750
0.2882961273193359,0.3381774902343750
0.2868535995483398,0.3376276016235352
0.2868535995483398,0.3376276016235352
0.2877948760986328,0.3377855300903320
0.2877948760986328,0.3377855300903320
0.2879001617431641,0.3397310256958008
0.2879001617431641,0.3397310256958008
0.2873617172241211,0.3385431289672852
0.2873617172241211,0.3385431289672852
0.2890451431274414,0.3397304534912109
0.2890108108520508,0.3397304534912109
0.2878555297851562,0.3388595581054688
0.2878555297851562,0.3388595581054688
0.2884460449218750,0.3388257980346679
0.2884460449218750,0.3388257980346679
0.2883441925048828,0.3406167984008789
0.2883441925048828,0.3406167984008789
0.2877079010009765,0.3396875381469727
0.2877079010009765,0.3396875381469727
0.2900070190429687,0.3410848617553711
0.2900070190429687,0.3410848617553711
0.2888402938842773,0.3404262542724609
0.2888402938842773,0.3404262542724609
0.2895051956176758,0.3406562805175781
0.2895051956176758,0.3406562805175781
0.2893569946289062,0.3428495407104492
0.2893569946289062,0.3428495407104492
0.2893392562866211,0.3422733306884765
0.2893392562866211,0.3422733306884765
0.2917093276977539,0.3441101074218750
0.2917093276977539,0.3441101074218750
0.2907285690307617,0.3438634872436523
0.2907285690307617,0.3438634872436523
0.2915416717529297,0.3445129394531250
0.2915416717529297,0.3445129394531250
0.2920652389526367,0.3467428207397461
0.2920652389526367,0.3467428207397461
0.2918025970458984,0.3458370208740234
0.2918025970458984,0.3458370208740234
0.2939603805541992,0.3475221633911132
0.2939603805541992,0.3475221633911132
0.2925092697143555,0.3468807220458984
0.2925092697143555,0.3468807220458984
0.2937715530395508,0.3473115921020508
0.2937715530395508,0.3473115921020508
0.2937852859497070,0.3495094299316406
0.2937852859497070,0.3495094299316406
0.2935077667236328,0.3484903335571289
0.2935077667236328,0.3484903335571289
0.2955482482910156,0.3503717422485351
0.2955482482910156,0.3503717422485351
0.2945114135742187,0.3495494842529297
0.2961616516113281,0.3495494842529297
0.2954143524169922,0.3498567581176757
0.2954143524169922,0.3498567581176757
0.2950475692749023,0.3512849807739258
0.2950475692749023,0.3512849807739258
0.2940965652465820,0.3490362167358398
0.2940965652465820,0.3490362167358398
0.2947723388671875,0.3476537704467773
0.2947723388671875,0.3476537704467773
0.2917997360229492,0.3441249847412109
0.2917997360229492,0.3441249847412109
0.2912778854370117,0.3423213958740234
0.2912778854370117,0.3423213958740234
0.2896877288818359,0.3422864913940429
0.2896877288818359,0.3422864913940429
0.2886114120483398,0.3395868301391601
0.2886114120483398,0.3395868301391601
0.2895944595336914,0.3393716812133789
0.2895944595336914,0.3393716812133789
0.2872049331665039,0.3367023468017578
0.2872049331665039,0.3367023468017578
0.2869125366210937,0.3356168746948242
0.2869125366210937,0.3356168746948242
0.2861949920654297,0.3362588882446289
0.2861949920654297,0.3362588882446289
0.2852869033813477,0.3342321395874023
0.2852869033813477,0.3342321395874023
0.2866865158081054,0.3350378036499023
0.2866865158081054,0.3350378036499023
0.2849956512451172,0.3337738037109375
0.2849956512451172,0.3337738037109375
0.2858963012695312,0.3339580535888672
0.2858963012695312,0.3339580535888672
0.2856657028198242,0.3358377456665039
0.2856657028198242,0.3358377456665039
0.2854574203491211,0.3349113464355469
0.2854574203491211,0.3349113464355469
0.2871877670288086,0.3364917755126953
0.2871877670288086,0.3364917755126953
0.2861778259277344,0.3354789733886719
0.2861778259277344,0.3354789733886719
0.2869371414184570,0.3357931137084961
0.2869371414184570,0.3357931137084961
0.2865503311157226,0.3373569488525390
0.2865503311157226,0.3373569488525390
0.2858900070190429,0.3359516143798828
0.2858900070190429,0.3359516143798828
0.2877925872802734,0.3369626998901367
0.2877925872802734,0.3369626998901367
0.2862030029296875,0.3355075836181641
0.2862030029296875,0.3355075836181641
0.2866058349609375,0.3353210449218750
0.2866058349609375,0.3353210449218750
0.2858287811279297,0.3366731643676757
0.2858287811279297,0.3366731643676757
0.2855266571044922,0.3352769851684570
0.2855266571044922,0.3352769851684570
0.2872043609619140,0.3362634658813476
0.2872043609619140,0.3362634658813476
0.2857091903686523,0.3349966049194336
0.2857091903686523,0.3349966049194336
0.2860141754150390,0.3350784301757813
0.2860141754150390,0.3350784301757813
0.2859043121337890,0.3366531372070312
0.2859043121337890,0.3366531372070312
0.2855701446533203,0.3355796813964844
0.2855701446533203,0.3355796813964844
0.2875116348266601,0.3370977401733398
0.2875116348266601,0.3370977401733398
0.2860902786254882,0.3364917755126953
0.2860902786254882,0.3364917755126953
0.2873336791992188,0.3371229171752930
0.2873336791992188,0.3371229171752930
0.2873657226562500,0.3393115997314453
0.2873657226562500,0.3393115997314453
0.2873147964477539,0.3386369705200195
0.2873147964477539,0.3386369705200195
0.2891046524047852,0.3404342651367188
0.2891046524047852,0.3404342651367188
0.2882675170898437,0.3399106979370117
0.2882675170898437,0.3399106979370117
0.2894336700439453,0.3407546997070313
0.2894336700439453,0.3407546997070313
0.2893627166748047,0.3428781509399414
0.2893627166748047,0.3428781509399414
0.2889490127563477,0.3418041229248047
0.2889490127563477,0.3418041229248047
0.2909505844116211,0.3429588317871093
0.2909505844116211,0.3429588317871093
0.2890737533569336,0.3410705566406250
0.2890737533569336,0.3410705566406250
0.2894456863403320,0.3405933380126953
0.2894456863403320,0.3405933380126953
0.2882423400878906,0.3413578033447265
0.2882423400878906,0.3413578033447265
0.2875848770141601,0.3388727188110351
0.2875848770141601,0.3388727188110351
0.2889101028442383,0.3392892837524414
0.2889101028442383,0.3392892837524414
0.2867219924926758,0.3369049072265625
0.2878154754638672,0.3369049072265625
0.2867351531982422,0.3360792160034179
0.2867351531982422,0.3360792160034179
0.2859060287475586,0.3365856170654297
0.2859060287475586,0.3365856170654297
0.2849859237670898,0.3341669082641601
0.2849859237670898,0.3341669082641601
0.2863483428955078,0.3349004745483398
0.2860570907592773,0.3349004745483398
0.2840761184692382,0.3330247879028320
0.2840761184692382,0.3330247879028320
0.2849006652832031,0.3326871871948242
0.2849006652832031,0.3326871871948242
0.2842254638671875,0.3339574813842773
0.2842254638671875,0.3339574813842773
0.2837677001953125,0.3322311401367187
0.2837677001953125,0.3322311401367187
0.2854310989379883,0.3337148666381836
0.2854310989379883,0.3337148666381836
0.2841854095458984,0.3326110839843750
0.2841854095458984,0.3326110839843750
0.2852668762207031,0.3330230712890625
0.2831119537353515,0.3330230712890625
0.2848314285278320,0.3348524093627930
0.2870092391967773,0.3348524093627930
0.2845172882080078,0.3336336135864258
0.2830867767333984,0.3336336135864258
0.2868650436401367,0.3355150222778320
0.2871299743652344,0.3355150222778320
0.2855386734008789,0.3348066329956055
0.2871414184570312,0.3348066329956055
0.2866727828979492,0.3354835510253906
0.2866727828979492,0.3354835510253906
0.2874229431152344,0.3372327804565430
0.2865016937255859,0.3372327804565430
0.2869617462158203,0.3377483367919922
0.2869617462158203,0.3377483367919922
0.2875585556030273,0.3365324020385742
0.2875585556030273,0.3365324020385742
0.2884294509887695,0.3398174285888672
0.2884294509887695,0.3398174285888672
0.2864564895629882,0.3376276016235352
0.2864564895629882,0.3376276016235352
0.2890090942382812,0.3396291732788086
0.2890090942382812,0.3396291732788086
0.2881061553955078,0.3400411605834961
0.2881061553955078,0.3400411605834961
0.2888505935668945,0.3390975952148437
0.2888505935668945,0.3390975952148437
0.2898141860961914,0.3423454284667969
0.2898141860961914,0.3423454284667969
0.2880672454833984,0.3403181076049804
0.2880672454833984,0.3403181076049804
0.2904104232788086,0.3422927856445312
0.2904104232788086,0.3422927856445312
0.2897197723388672,0.3429376602172852
0.2897197723388672,0.3429376602172852
0.2905094146728516,0.3419660568237304
0.2905094146728516,0.3419660568237304
0.2915594100952149,0.3451486587524414
0.2915594100952149,0.3451486587524414
0.2896282196044922,0.3430303573608398
0.2896282196044922,0.3430303573608398
0.2918512344360352,0.3450096130371094
0.2918512344360352,0.3450096130371094
0.2912240982055664,0.3454364776611328
0.2912240982055664,0.3454364776611328
0.2921052932739258,0.3444660186767578
0.2921052932739258,0.3444660186767578
0.2927381515502930,0.3473121643066406
0.2927381515502930,0.3473121643066406
0.2907915115356445,0.3452041625976562
0.2907915115356445,0.3452041625976562
0.2925241470336914,0.3463451385498047
0.2925241470336914,0.3463451385498047
0.2918117523193359,0.3458164215087891
0.2918117523193359,0.3458164215087891
0.2915874481201172,0.3436872482299805
0.2915874481201172,0.3436872482299805
0.2916160583496094,0.3454038619995117
0.2916160583496094,0.3454038619995117
0.2891464233398438,0.3421405792236328
0.2891464233398438,0.3421405792236328
0.2905031204223633,0.3425222396850586
0.2905031204223633,0.3425222396850586
0.2892024993896484,0.3414390563964844
0.2892024993896484,0.3414390563964844
0.2888843536376953,0.3392080307006836
0.2888843536376953,0.3392080307006836
0.2888282775878906,0.3407083511352539
0.2888282775878906,0.3407083511352539
0.2864547729492187,0.3375703811645508
0.2864547729492187,0.3375703811645508
0.2879373550415039,0.3382003784179687
0.2879373550415039,0.3382003784179687
0.2866624832153320,0.3377265930175781
0.2866624832153320,0.3377265930175781
0.2870716094970703,0.3362606048583984
0.2870716094970703,0.3362606048583984
0.2875270843505859,0.3385471343994140
0.2875270843505859,0.3385471343994140
0.2853778839111328,0.3360443115234375
0.2853778839111328,0.3360443115234375
0.2869932174682617,0.3371154785156250
0.2869932174682617,0.3371154785156250
0.2863019943237304,0.3371795654296875
0.2886354446411133,0.3371795654296875
0.2870658874511718,0.3363458633422852
0.2870658874511718,0.3363458633422852
0.2877851486206054,0.3390632629394531
0.2877851486206054,0.3390632629394531
0.2860204696655274,0.3373592376708984
0.2860204696655274,0.3373592376708984
0.2880849838256836,0.3388950347900391
0.2880849838256836,0.3388950347900391
0.2878818511962891,0.3393144607543945
0.2878818511962891,0.3393144607543945
0.2883407592773438,0.3384109497070312
0.2883407592773438,0.3384109497070312
0.2891521453857422,0.3414224624633789
0.2891521453857422,0.3414224624633789
0.2876140594482422,0.3396434783935547
0.2876140594482422,0.3396434783935547
0.2897804260253906,0.3413612365722656
0.2897804260253906,0.3413612365722656
0.2893123626708984,0.3418516159057617
0.2918283462524414,0.3418516159057617
0.2900596618652344,0.3412731170654297
0.2900596618652344,0.3412731170654297
0.2910146713256836,0.3444093704223632
0.2910146713256836,0.3444093704223632
0.2896270751953125,0.3430126190185547
0.2896270751953125,0.3430126190185547
0.2921190261840820,0.3451452255249023
0.2921190261840820,0.3451452255249023
0.2918031692504883,0.3460590362548828
0.2918031692504883,0.3460590362548828
0.2928926467895508,0.3456911087036132
0.2928926467895508,0.3456911087036132
0.2940628051757813,0.3490098953247070
0.2940628051757813,0.3490098953247070
0.2923078536987305,0.3474208831787109
0.2923078536987305,0.3474208831787109
0.2947025299072266,0.3493349075317383
0.2947025299072266,0.3493349075317383
0.2941949844360351,0.3498825073242187
0.2941949844360351,0.3498825073242187
0.2950561523437500,0.3491849899291992
0.2950561523437500,0.3491849899291992
0.2957010269165039,0.3520362854003906
0.2957010269165039,0.3520362854003906
0.2940067291259765,0.3503145217895507
0.2940067291259765,0.3503145217895507
0.2962125778198242,0.3519327163696289
0.2962125778198242,0.3519327163696289
0.2956157684326172,0.3522674560546875
0.2956157684326172,0.3522674560546875
0.2961811065673828,0.3511899948120117
0.2961811065673828,0.3511899948120117
0.2968128204345703,0.3541751861572265
0.2968128204345703,0.3541751861572265
0.2948759078979492,0.3517862319946289
0.2948759078979492,0.3517862319946289
0.2970371246337891,0.3532012939453125
0.2970371246337891,0.3532012939453125
0.2957496643066406,0.3526514053344726
0.2957496643066406,0.3526514053344726
0.2958669662475586,0.3506235122680664
0.2958669662475586,0.3506235122680664
0.2956981658935547,0.3521907806396484
0.2956981658935547,0.3521907806396484
0.2930631637573242,0.3484216690063476
0.2930631637573242,0.3484216690063476
0.2938058853149414,0.3475370407104492
0.2938058853149414,0.3475370407104492
0.2915702819824219,0.3453958511352539
0.2915702819824219,0.3453958511352539
0.2907680511474609,0.3421554565429688
0.2882766723632812,0.3421554565429688
0.2904361724853515,0.3428529739379882
0.2909963607788086,0.3428529739379882
0.2871545791625976,0.3388092041015625
0.2863014221191406,0.3388092041015625
0.2884752273559570,0.3388589859008789
0.2871110916137695,0.3388589859008789
0.2867729187011719,0.3377614974975586
0.2889913558959961,0.3377614974975586
0.2869720458984375,0.3357049942016602
0.2869720458984375,0.3357049942016602
0.2868696212768554,0.3375469207763672
0.2868696212768554,0.3375469207763672
0.2842775344848633,0.3344272613525390
0.2842775344848633,0.3344272613525390
0.2863969802856445,0.3354640960693359
0.2851907730102539,0.3354640960693359
0.2852010726928711,0.3351785659790039
0.2852010726928711,0.3351785659790039
0.2857292175292969,0.3338716506958008
0.2857292175292969,0.3338716506958008
0.2862779617309570,0.3368322372436524
0.2862779617309570,0.3368322372436524
0.2841785430908203,0.3345806121826172
0.2841785430908203,0.3345806121826172
0.2870126724243164,0.3366651535034180
0.2870126724243164,0.3366651535034180
0.2859477996826172,0.3371034622192383
0.2859477996826172,0.3371034622192383
0.2869543075561523,0.3363887786865234
0.2869543075561523,0.3363887786865234
0.2877971649169922,0.3395690917968750
0.2877971649169922,0.3395690917968750
0.2858917236328125,0.3373157501220703
0.2858917236328125,0.3373157501220703
0.2884271621704101,0.3394071578979492
0.2884271621704101,0.3394071578979492
0.2875116348266601,0.3399438858032227
0.2875116348266601,0.3399438858032227
0.2887773513793945,0.3395851135253906
0.2887773513793945,0.3395851135253906
0.2899177551269531,0.3430801391601562
0.2899177551269531,0.3430801391601562
0.2878583908081054,0.3411254882812500
0.2878583908081054,0.3411254882812500
0.2907228469848633,0.3433902740478516
0.2907228469848633,0.3433902740478516
0.2898096084594726,0.3440254211425781
0.2898096084594726,0.3440254211425781
0.2913036346435547,0.3437953948974609
0.2913036346435547,0.3437953948974609
0.2922237396240234,0.3470186233520507
0.2922237396240234,0.3470186233520507
0.2903377532958984,0.3450811386108398
0.2903377532958984,0.3450811386108398
0.2931690216064453,0.3470386505126953
0.2931690216064453,0.3470386505126953
0.2922357559204101,0.3474369049072266
0.2922357559204101,0.3474369049072266
0.2932748794555664,0.3467908859252929
0.2932748794555664,0.3467908859252929
0.2940153121948242,0.3499769210815429
0.2940153121948242,0.3499769210815429
0.2921768188476562,0.3480623245239258
0.2921768188476562,0.3480623245239258
0.2951345443725586,0.3502578735351562
0.2951345443725586,0.3502578735351562
0.2939958572387695,0.3505857467651367
0.2939958572387695,0.3505857467651367
0.2952203750610352,0.3502321243286133
0.2952203750610352,0.3502321243286133
0.2960700988769531,0.3533317565917969
0.2960700988769531,0.3533317565917969
0.2944210052490234,0.3512912750244140
0.2944210052490234,0.3512912750244140
0.2966646194458007,0.3526056289672851
0.2966646194458007,0.3526056289672851
0.2953800201416015,0.3523693084716797
0.2953800201416015,0.3523693084716797
0.2957393646240234,0.3508054733276367
0.2957393646240234,0.3508054733276367
0.2960786819458008,0.3526885986328125
0.2960786819458008,0.3526885986328125
0.2932977676391602,0.3491048812866211
0.2932977676391602,0.3491048812866211
0.2943449020385742,0.3482591629028320
0.2943449020385742,0.3482591629028320
0.2920377731323242,0.3462862014770507
0.2920377731323242,0.3462862014770507
0.2918992996215820,0.3437759399414063
0.2893558502197265,0.3437759399414063
0.2913751602172852,0.3447086334228516
0.2913751602172852,0.3447086334228516
0.2885599136352539,0.3412673950195312
0.2885599136352539,0.3412673950195312
0.2902759552001953,0.3416238784790039
0.2902759552001953,0.3416238784790039
0.2887046813964844,0.3406190872192383
0.2887046813964844,0.3406190872192383
0.2889398574829101,0.3389745712280273
0.2889398574829101,0.3389745712280273
0.2889713287353515,0.3409847259521484
0.2889713287353515,0.3409847259521484
0.2866292953491211,0.3385168075561523
0.2866292953491211,0.3385168075561523
0.2889793395996094,0.3397201538085937
0.2889793395996094,0.3397201538085937
0.2878629684448242,0.3397876739501953
0.2878629684448242,0.3397876739501953
0.2886039733886719,0.3390323638916016
0.2886039733886719,0.3390323638916016
0.2891378402709961,0.3415626525878906
0.2905334472656250,0.3415626525878906
0.2874326705932617,0.3397178649902344
0.2868822097778320,0.3397178649902344
0.2895097732543945,0.3412250518798828
0.2895097732543945,0.3412250518798828
0.2887916564941406,0.3415861129760742
0.2887916564941406,0.3415861129760742
0.2896196365356445,0.3410333633422851
0.2896196365356445,0.3410333633422851
0.2904092788696289,0.3436002731323242
0.2904092788696289,0.3436002731323242
0.2884054183959961,0.3417812347412109
0.2884054183959961,0.3417812347412109
0.2907732009887695,0.3433650970458984
0.2907732009887695,0.3433650970458984
0.2899023056030273,0.3435470581054688
0.2899023056030273,0.3435470581054688
0.2909357070922852,0.3430543899536133
0.2909357070922852,0.3430543899536133
0.2913665771484375,0.3456138610839843
0.2929161071777344,0.3456138610839843
0.2896299362182617,0.3441175460815429
0.2896299362182617,0.3441175460815429
0.2921327590942382,0.3457157135009766
0.2921327590942382,0.3457157135009766
0.2916189193725586,0.3462381362915039
0.2916189193725586,0.3462381362915039
0.2923381805419922,0.3457414627075195
0.2923381805419922,0.3457414627075195
0.2928977966308594,0.3483123779296875
0.2928977966308594,0.3483123779296875
0.2909992218017578,0.3465270996093750
0.2909992218017578,0.3465270996093750
0.2935541152954101,0.3480594635009766
0.2935541152954101,0.3480594635009766
0.2927272796630859,0.3483987808227539
0.2927272796630859,0.3483987808227539
0.2936279296875000,0.3478929519653320
0.2936279296875000,0.3478929519653320
0.2942047119140625,0.3505216598510742
0.2942047119140625,0.3505216598510742
0.2939128875732422,0.3509805679321289
0.2939128875732422,0.3509805679321289
0.2941234588623047,0.3502138137817383
0.2926677703857422,0.3502138137817383
0.2959379196166992,0.3518983840942383
0.2959379196166992,0.3518983840942383
0.2951889038085938,0.3514034271240234
0.2951889038085938,0.3514034271240234
0.2959327697753906,0.3516437530517578
0.2959327697753906,0.3516437530517578
0.2950481414794922,0.3524196624755859
0.2950481414794922,0.3524196624755859
0.2935518264770507,0.3489011764526367
0.2935518264770507,0.3489011764526367
0.2941692352294922,0.3477624893188476
0.2941692352294922,0.3477624893188476
0.2916606903076172,0.3449060440063477
0.2916606903076172,0.3449060440063477
0.2913797378540039,0.3434051513671875
0.2913797378540039,0.3434051513671875
0.2895280838012695,0.3430051803588867
0.2895280838012695,0.3430051803588867
0.2886709213256836,0.3398906707763672
0.2886709213256836,0.3398906707763672
0.2895944595336914,0.3393785476684570
0.2895944595336914,0.3393785476684570
0.2873720169067382,0.3372888565063477
0.2873720169067382,0.3372888565063477
0.2871099472045898,0.3364133834838867
0.2871099472045898,0.3364133834838867
0.2863763809204101,0.3368579864501953
0.2884803771972656,0.3368579864501953
0.2859323501586914,0.3351533889770508
0.2841848373413086,0.3351533889770508
0.2874778747558593,0.3357215881347656
0.2877084732055664,0.3357215881347656
0.2859443664550781,0.3350051879882812
0.2859443664550781,0.3350051879882812
0.2868473052978516,0.3352386474609375
0.2868473052978516,0.3352386474609375
0.2866561889648437,0.3372259140014648
0.2866561889648437,0.3372259140014648
0.2868078231811523,0.3364505767822266
0.2868078231811523,0.3364505767822266
0.2887493133544922,0.3382301330566406
0.2887493133544922,0.3382301330566406
0.2881015777587890,0.3380847930908203
0.2881015777587890,0.3380847930908203
0.2891384124755859,0.3387794494628906
0.2891384124755859,0.3387794494628906
0.2889312744140625,0.3408330917358398
0.2889312744140625,0.3408330917358398
0.2887126922607422,0.3398523330688477
0.2887126922607422,0.3398523330688477
0.2911628723144531,0.3416421890258789
0.2911628723144531,0.3416421890258789
0.2898639678955078,0.3411930084228516
0.2898639678955078,0.3411930084228516
0.2908161163330078,0.3415414810180664
0.2908161163330078,0.3415414810180664
0.2899932861328125,0.3431179046630859
0.2899932861328125,0.3431179046630859
0.2899131774902344,0.3416667938232422
0.2899131774902344,0.3416667938232422
0.2919616699218750,0.3430835723876953
0.2919616699218750,0.3430835723876953
0.2902147293090820,0.3422275543212890
0.2902147293090820,0.3422275543212890
0.2907434463500976,0.3422109603881836
0.2907434463500976,0.3422109603881836
0.2903068542480469,0.3437576293945312
0.2903068542480469,0.3437576293945312
0.2901048660278320,0.3424026489257813
0.2901048660278320,0.3424026489257813
0.2921436309814453,0.3439647674560547
0.2921436309814453,0.3439647674560547
0.2904808044433594,0.3435012817382813
0.2904808044433594,0.3435012817382813
0.2917493820190429,0.3439075469970703
0.2900264739990234,0.3439075469970703
0.2913110733032226,0.3458782196044922
0.2913110733032226,0.3458782196044922
0.2913082122802734,0.3448202133178711
0.2913082122802734,0.3448202133178711
0.2933097839355469,0.3466575622558594
0.2933097839355469,0.3466575622558594
0.2923267364501953,0.3463068008422852
0.2923267364501953,0.3463068008422852
0.2931644439697266,0.3465488433837891
0.2931644439697266,0.3465488433837891
0.2926780700683594,0.3480817794799805
0.2926780700683594,0.3480817794799805
0.2918827056884766,0.3463033676147461
0.2918827056884766,0.3463033676147461
0.2935506820678711,0.3465208053588867
0.2935506820678711,0.3465208053588867
0.2910690307617188,0.3438228607177734
0.2910690307617188,0.3438228607177734
0.2904790878295898,0.3417308807373047
0.2904790878295898,0.3417308807373047
0.2883516311645508,0.3410207748413086
0.2883516311645508,0.3410207748413086
0.2869766235351562,0.3372911453247070
0.2869766235351562,0.3372911453247070
0.2877273559570312,0.3365684509277344
0.2877273559570312,0.3365684509277344
0.2850786209106445,0.3339225769042969
0.2850786209106445,0.3339225769042969
0.2846460342407227,0.3325635910034180
0.2846460342407227,0.3325635910034180
0.2834478378295898,0.3326906204223632
0.2834478378295898,0.3326906204223632
0.2826187133789063,0.3300607681274414
0.2826187133789063,0.3300607681274414
0.2839359283447265,0.3305356979370117
0.2839359283447265,0.3305356979370117
0.2816551208496094,0.3289529800415039
0.2816551208496094,0.3289529800415039
0.2822742462158203,0.3284540176391602
0.2822742462158203,0.3284540176391602
0.2813404083251953,0.3293489456176757
0.2813404083251953,0.3293489456176757
0.2807441711425781,0.3274349212646484
0.2807441711425781,0.3274349212646484
0.2823669433593750,0.3287097930908203
0.2823669433593750,0.3287097930908203
0.2810989379882812,0.3279006958007812
0.2810989379882812,0.3279006958007812
0.2819938659667969,0.3281364440917969
0.2819938659667969,0.3281364440917969
0.2812356948852539,0.3296911239624024
0.2812356948852539,0.3296911239624024
0.2807533264160156,0.3283601760864258
0.2807533264160156,0.3283601760864258
0.2832372665405273,0.3302106857299805
0.2832372665405273,0.3302106857299805
0.2822044372558594,0.3298307418823242
0.2822044372558594,0.3298307418823242
0.2833477020263672,0.3304801940917969
0.2833477020263672,0.3304801940917969
0.2825283050537109,0.3322877883911133
0.2825283050537109,0.3322877883911133
0.2827726364135742,0.3309951782226562
0.2827726364135742,0.3309951782226562
0.2849218368530274,0.3327764511108398
0.2849218368530274,0.3327764511108398
0.2835668563842773,0.3321321487426758
0.2835668563842773,0.3321321487426758
0.2845167160034179,0.3327850341796875
0.2845167160034179,0.3327850341796875
0.2842203140258789,0.3345520019531250
0.2869491577148438,0.3345520019531250
0.2844429016113281,0.3336370468139648
0.2844429016113281,0.3336370468139648
0.2866996765136718,0.3355442047119140
0.2870258331298828,0.3355442047119140
0.2854213714599609,0.3354640960693359
0.2854213714599609,0.3354640960693359
0.2870916366577148,0.3366039276123047
0.2870916366577148,0.3366039276123047
0.2869337081909180,0.3390106201171875
0.2869337081909180,0.3390106201171875
0.2874664306640625,0.3384944915771484
0.2874664306640625,0.3384944915771484
0.2897895812988281,0.3409229278564453
0.2897895812988281,0.3409229278564453
0.2891469955444336,0.3411386489868164
0.2891469955444336,0.3411386489868164
0.2906044006347656,0.3422224044799805
0.2906044006347656,0.3422224044799805
0.2902250289916992,0.3445518493652344
0.2902250289916992,0.3445518493652344
0.2904184341430664,0.3438268661499023
0.2904184341430664,0.3438268661499023
0.2930265426635742,0.3460950851440430
0.2930265426635742,0.3460950851440430
0.2919605255126953,0.3457099914550781
0.2919605255126953,0.3457099914550781
0.2931003570556641,0.3464841842651367
0.2931003570556641,0.3464841842651367
0.2922626495361328,0.3482706069946289
0.2922626495361328,0.3482706069946289
0.2926054000854492,0.3471096038818359
0.2926054000854492,0.3471096038818359
0.2944988250732422,0.3479753494262695
0.2939163208007812,0.3479753494262695
0.2915742874145508,0.3446039199829101
0.2915742874145508,0.3446039199829101
0.2905357360839844,0.3420547485351562
0.2905357360839844,0.3420547485351562
0.2885456085205078,0.3410854339599609
0.2885456085205078,0.3410854339599609
0.2871076583862305,0.3375640869140625
0.2871076583862305,0.3375640869140625
0.2880638122558594,0.3372304916381836
0.2880638122558594,0.3372304916381836
0.2853023529052734,0.3347213745117187
0.2853023529052734,0.3347213745117187
0.2853710174560547,0.3334333419799805
0.2853710174560547,0.3334333419799805
0.2839994430541992,0.3336090087890625
0.2839994430541992,0.3336090087890625
0.2831474304199219,0.3310844421386719
0.2831474304199219,0.3310844421386719
0.2843095779418945,0.3315061569213867
0.2843095779418945,0.3315061569213867
0.2825374603271484,0.3299749374389648
0.2825374603271484,0.3299749374389648
0.2829998016357422,0.3294605255126953
0.2829998016357422,0.3294605255126953
0.2820482254028320,0.3304641723632812
0.2820482254028320,0.3304641723632812
0.2814147949218750,0.3286817550659180
0.2814147949218750,0.3286817550659180
0.2835680007934570,0.3301122665405273
0.2835680007934570,0.3301122665405273
0.2820161819458007,0.3292654037475586
0.2820161819458007,0.3292654037475586
0.2830919265747070,0.3295440673828125
0.2830919265747070,0.3295440673828125
0.2819137573242188,0.3312211990356445
0.2819137573242188,0.3312211990356445
0.2820116043090820,0.3292579650878906
0.2820116043090820,0.3292579650878906
0.2842243194580078,0.3312990188598633
0.2842243194580078,0.3312990188598633
0.2820236206054688,0.3296819686889648
0.2820236206054688,0.3296819686889648
0.2832590103149414,0.3300235748291016
0.2832590103149414,0.3300235748291016
0.2823583602905274,0.3316383361816406
0.2823583602905274,0.3316383361816406
0.2822050094604492,0.3298152923583984
0.2803161621093750,0.3298152923583984
0.2846775054931641,0.3321590423583984
0.2846775054931641,0.3321590423583984
0.2825529098510742,0.3311033248901367
0.2825529098510742,0.3311033248901367
0.2846191406250000,0.3319879531860351
0.2846191406250000,0.3319879531860351
0.2837728500366211,0.3341537475585937
0.2837728500366211,0.3341537475585937
0.2839771270751953,0.3327856063842773
0.2839771270751953,0.3327856063842773
0.2864444732666016,0.3355298995971679
0.2864444732666016,0.3355298995971679
0.2848108291625976,0.3346956253051758
0.2848108291625976,0.3346956253051758
0.2864736557006836,0.3354749679565430
0.2864736557006836,0.3354749679565430
0.2857114791870117,0.3376945495605468
0.2857114791870117,0.3376945495605468
0.2858264923095703,0.3365615844726562
0.2858264923095703,0.3365615844726562
0.2887979507446289,0.3393447875976562
0.2887979507446289,0.3393447875976562
0.2873743057250976,0.3387863159179688
0.2873743057250976,0.3387863159179688
0.2889598846435547,0.3396755218505859
0.2889598846435547,0.3396755218505859
0.2881971359252929,0.3421806335449218
0.2881971359252929,0.3421806335449218
0.2887195587158203,0.3407541275024414
0.2887195587158203,0.3407541275024414
0.2916841506958008,0.3437393188476562
0.2916841506958008,0.3437393188476562
0.2900064468383789,0.3430898666381836
0.2900064468383789,0.3430898666381836
0.2916744232177734,0.3442022323608399
0.2916744232177734,0.3442022323608399
0.2912549972534180,0.3465150833129882
0.2912549972534180,0.3465150833129882
0.2913551330566406,0.3449581146240234
0.2913551330566406,0.3449581146240234
0.2939271926879883,0.3472326278686523
0.2939271926879883,0.3472326278686523
0.2918169021606445,0.3462490081787109
0.2918169021606445,0.3462490081787109
0.2933795928955078,0.3463640213012695
0.2933795928955078,0.3463640213012695
0.2923021316528320,0.3476263046264648
0.2923021316528320,0.3476263046264648
0.2911926269531250,0.3438142776489257
0.2911926269531250,0.3438142776489257
0.2918134689331054,0.3432289123535156
0.2918134689331054,0.3432289123535156
0.2888437271118164,0.3401372909545898
0.2888437271118164,0.3401372909545898
0.2893352508544922,0.3389562606811523
0.2893352508544922,0.3389562606811523
0.2876266479492187,0.3394592285156250
0.2876266479492187,0.3394592285156250
0.2866464614868164,0.3365758895874023
0.2866464614868164,0.3365758895874023
0.2885953903198242,0.3376401901245117
0.2885953903198242,0.3376401901245117
0.2862150192260742,0.3358572006225586
0.2862150192260742,0.3358572006225586
0.2871059417724609,0.3355339050292969
0.2871059417724609,0.3355339050292969
0.2857515335083008,0.3368539810180664
0.2883035659790039,0.3375022888183594
0.2855632781982422,0.3346590042114257
0.2838060379028320,0.3346590042114257
0.2877508163452148,0.3365793228149414
0.2877508163452148,0.3365793228149414
0.2858539581298828,0.3354761123657227
0.2858539581298828,0.3354761123657227
0.2868638992309570,0.3358880996704102
0.2868638992309570,0.3358880996704102
0.2862424850463867,0.3374925613403320
0.2862424850463867,0.3374925613403320
0.2860628128051758,0.3356775283813476
0.2860628128051758,0.3356775283813476
0.2881444931030273,0.3374547958374023
0.2881444931030273,0.3374547958374023
0.2859397888183594,0.3359796524047852
0.2859397888183594,0.3359796524047852
0.2870355606079101,0.3358926773071289
0.2870355606079101,0.3358926773071289
0.2861566543579102,0.3372940063476562
0.2861566543579102,0.3372940063476562
0.2859174728393555,0.3357095718383789
0.2859174728393555,0.3357095718383789
0.2878274917602539,0.3373929977416992
0.2878274917602539,0.3373929977416992
0.2866046905517578,0.3367000579833984
0.2866046905517578,0.3367000579833984
0.2876026153564453,0.3370450973510742
0.2876026153564453,0.3370450973510742
0.2869096755981445,0.3386049270629883
0.2869096755981445,0.3386049270629883
0.2865251541137695,0.3372694015502929
0.2865251541137695,0.3372694015502929
0.2889564514160156,0.3389854431152344
0.2889564514160156,0.3389854431152344
0.2875144958496094,0.3383462905883789
0.2875144958496094,0.3383462905883789
0.2885530471801758,0.3387079238891602
0.2885530471801758,0.3387079238891602
0.2877302169799805,0.3404663085937500
0.2877302169799805,0.3404663085937500
0.2878252029418945,0.3389442443847656
0.2878252029418945,0.3389442443847656
0.2899080276489258,0.3406013488769531
0.2899080276489258,0.3406013488769531
0.2884449005126953,0.3400342941284180
0.2896825790405274,0.3400342941284180
0.2892219543457031,0.3404371261596680
0.2892219543457031,0.3404371261596680
0.2889478683471680,0.3423219680786133
0.2889478683471680,0.3423219680786133
0.2889575958251953,0.3412284851074219
0.2889575958251953,0.3412284851074219
0.2912635803222656,0.3431613922119141
0.2912635803222656,0.3431613922119141
0.2897741317749024,0.3427642822265625
0.2897741317749024,0.3427642822265625
0.2912137985229492,0.3433004379272461
0.2912137985229492,0.3433004379272461
0.2907846450805664,0.3451869964599609
0.2907846450805664,0.3451869964599609
0.2904029846191406,0.3434726715087891
0.2904029846191406,0.3434726715087891
0.2918809890747070,0.3443298339843750
0.2918809890747070,0.3443298339843750
0.2899045944213867,0.3423809051513672
0.2899045944213867,0.3423809051513672
0.2900362014770508,0.3412027359008789
0.2900362014770508,0.3412027359008789
0.2885805130004883,0.3416421890258789
0.2885805130004883,0.3416421890258789
0.2873125076293945,0.3385734558105469
0.2873125076293945,0.3385734558105469
0.2890434265136719,0.3391164779663086
0.2890434265136719,0.3391164779663086
0.2864072799682617,0.3368642807006836
0.2864072799682617,0.3368642807006836
0.2870716094970703,0.3366348266601563
0.2870716094970703,0.3366348266601563
0.2859718322753906,0.3378490447998047
0.2859718322753906,0.3378490447998047
0.2858940124511719,0.3359527587890625
0.2858940124511719,0.3359527587890625
0.2878326416015625,0.3371938705444336
0.2878326416015625,0.3371938705444336
0.2859935760498047,0.3359304428100586
0.2859935760498047,0.3359304428100586
0.2867626190185547,0.3358835220336914
0.2843753814697266,0.3358835220336914
0.2861171722412109,0.3374061584472656
0.2861171722412109,0.3374061584472656
0.2859123229980469,0.3356443405151367
0.2859123229980469,0.3356443405151367
0.2879831314086914,0.3373374938964844
0.2881010055541992,0.3373374938964844
0.2860628128051758,0.3362760543823242
0.2860628128051758,0.3362760543823242
0.2875167846679688,0.3367258071899414
0.2875167846679688,0.3367258071899414
0.2869010925292969,0.3387559890747070
0.2869010925292969,0.3387559890747070
0.2869543075561523,0.3374347686767578
0.2869543075561523,0.3374347686767578
0.2893186569213867,0.3397493362426758
0.2893186569213867,0.3397493362426758
0.2881776809692383,0.3393390655517578
0.2881776809692383,0.3393390655517578
0.2897369384765625,0.3402128219604492
0.2897369384765625,0.3402128219604492
0.2892780303955078,0.3423883438110352
0.2892780303955078,0.3423883438110352
0.2890537261962891,0.3412462234497070
0.2890537261962891,0.3412462234497070
0.2916669845581055,0.3432214736938476
0.2916669845581055,0.3432214736938476
0.2902227401733398,0.3428226470947265
0.2902227401733398,0.3428226470947265
0.2913642883300781,0.3432506561279297
0.2913642883300781,0.3432506561279297
0.2907777786254883,0.3452356338500976
0.2907777786254883,0.3452356338500976
0.2909231185913086,0.3439086914062500
0.2909231185913086,0.3439086914062500
0.2931667327880859,0.3458559036254883
0.2931667327880859,0.3458559036254883
0.2916830062866211,0.3454004287719726
0.2916830062866211,0.3454004287719726
0.2926397323608398,0.3459177017211914
0.2926397323608398,0.3459177017211914
0.2924360275268554,0.3479621887207031
0.2924360275268554,0.3479621887207031
0.2924875259399414,0.3467771530151367
0.2924875259399414,0.3467771530151367
0.2946367263793945,0.3485132217407226
0.2946367263793945,0.3485132217407226
0.2931026458740234,0.3481086730957031
0.2931026458740234,0.3481086730957031
0.2943065643310547,0.3484010696411133
0.2943065643310547,0.3484010696411133
0.2938951492309570,0.3504077911376953
0.2938951492309570,0.3504077911376953
0.2936370849609375,0.3488576889038086
0.2936370849609375,0.3488576889038086
0.2956707000732422,0.3507688522338867
0.2956707000732422,0.3507688522338867
0.2944358825683593,0.3499128341674805
0.2944358825683593,0.3499128341674805
0.2951213836669922,0.3497406005859375
0.2951213836669922,0.3497406005859375
0.2941354751586914,0.3505640029907227
0.2941354751586914,0.3505640029907227
0.2927181243896484,0.3470890045166016
0.2927181243896484,0.3470890045166016
0.2931427001953125,0.3453220367431640
0.2931427001953125,0.3453220367431640
0.2898387908935547,0.3415964126586914
0.2898387908935547,0.3415964126586914
0.2890274047851563,0.3391805648803711
0.2890274047851563,0.3391805648803711
0.2868650436401367,0.3384727478027343
0.2868650436401367,0.3384727478027343
0.2857458114624024,0.3351076126098633
0.2857458114624024,0.3351076126098633
0.2866613388061524,0.3348003387451172
0.2866613388061524,0.3348003387451172
0.2842300415039062,0.3325504302978515
0.2842300415039062,0.3325504302978515
0.2841247558593750,0.3313957214355469
0.2841247558593750,0.3313957214355469
0.2829517364501953,0.3319370269775391
0.2829517364501953,0.3319370269775391
0.2824356079101563,0.3295171737670898
0.2824356079101563,0.3295171737670898
0.2841648101806640,0.3306764602661132
0.2841648101806640,0.3306764602661132
0.2820991516113281,0.3294273376464844
0.2820991516113281,0.3294273376464844
0.2832160949707031,0.3294851303100586
0.2832160949707031,0.3294851303100586
0.2824728012084961,0.3310392379760742
0.2824728012084961,0.3310392379760742
0.2823205947875976,0.3294588088989258
0.2823205947875976,0.3294588088989258
0.2843084335327148,0.3313711166381836
0.2843084335327148,0.3313711166381836
0.2830307006835938,0.3307256698608398
0.2830307006835938,0.3307256698608398
0.2843868255615234,0.3314752578735352
0.2823286056518555,0.3314752578735352
0.2839736938476562,0.3335924148559570
0.2839736938476562,0.3335924148559570
0.2839336395263672,0.3326299667358398
0.2839336395263672,0.3326299667358398
0.2864828109741211,0.3346286773681640
0.2864828109741211,0.3346286773681640
0.2851272583007812,0.3343626022338867
0.2851272583007812,0.3343626022338867
0.2864873886108398,0.3351842880249024
0.2864873886108398,0.3351842880249024
0.2860479354858398,0.3374685287475586
0.2860479354858398,0.3374685287475586
0.2865629196166992,0.3366039276123047
0.2865629196166992,0.3366039276123047
0.2889656066894531,0.3385883331298828
0.2889656066894531,0.3385883331298828
0.2877136230468750,0.3382776260375976
0.2877136230468750,0.3382776260375976
0.2884975433349609,0.3388246536254882
0.2884975433349609,0.3388246536254882
0.2884620666503906,0.3408376693725586
0.2884620666503906,0.3408376693725586
0.2887018203735351,0.3400503158569336
0.2887018203735351,0.3400503158569336
0.2908973693847656,0.3418395996093750
0.2910907745361328,0.3418395996093750
0.2892974853515625,0.3410488128662109
0.2892974853515625,0.3410488128662109
0.2905597686767578,0.3413715362548828
0.2905597686767578,0.3413715362548828
0.2898307800292969,0.3430097579956055
0.2898307800292969,0.3430097579956055
0.2897306442260742,0.3413955688476563
0.2897306442260742,0.3413955688476563
0.2917963027954101,0.3433044433593750
0.2917963027954101,0.3433044433593750
0.2904756546020508,0.3425451278686523
0.2904756546020508,0.3425451278686523
0.2917568206787109,0.3430749893188477
0.2917568206787109,0.3430749893188477
0.2912515640258789,0.3450359344482422
0.2912515640258789,0.3450359344482422
0.2910392761230469,0.3439229965209961
0.2910392761230469,0.3439229965209961
0.2936290740966797,0.3458370208740234
0.2936290740966797,0.3458370208740234
0.2916194915771484,0.3438062667846680
0.2916194915771484,0.3438062667846680
0.2910369873046875,0.3412376403808594
0.2910369873046875,0.3412376403808594
0.2883098602294922,0.3397195816040039
0.2883098602294922,0.3397195816040039
0.2866664886474609,0.3355911254882812
0.2866664886474609,0.3355911254882812
0.2872564315795899,0.3348518371582031
0.2872564315795899,0.3348518371582031
0.2844154357910156,0.3320468902587890
0.2844154357910156,0.3320468902587890
0.2838701248168945,0.3304063796997070
0.2838701248168945,0.3304063796997070
0.2826536178588867,0.3303846359252929
0.2826536178588867,0.3303846359252929
0.2814250946044922,0.3272535324096680
0.2814250946044922,0.3272535324096680
0.2824590682983398,0.3273181915283203
0.2824590682983398,0.3273181915283203
0.2800146102905273,0.3252788543701172
0.2800146102905273,0.3252788543701172
0.2804563522338867,0.3244869232177734
0.2804563522338867,0.3244869232177734
0.2794492721557617,0.3254648208618164
0.2794492721557617,0.3254648208618164
0.2788925170898438,0.3234020233154297
0.2788925170898438,0.3234020233154297
0.2805850982666016,0.3247232437133789
0.2805850982666016,0.3247232437133789
0.2790550231933593,0.3236984252929687
0.2790550231933593,0.3236984252929687
0.2798658370971679,0.3237579345703125
0.2798658370971679,0.3237579345703125
0.2794532775878906,0.3255947113037109
0.2794532775878906,0.3255947113037109
0.2789154052734375,0.3239913940429687
0.2789154052734375,0.3239913940429687
0.2813976287841797,0.3259323120117187
0.2813976287841797,0.3259323120117187
0.2795602798461914,0.3247999191284179
0.2795602798461914,0.3247999191284179
0.2806783676147461,0.3248668670654297
0.2806783676147461,0.3248668670654297
0.2795225143432617,0.3263116836547851
0.2795225143432617,0.3263116836547851
0.2794504165649414,0.3245286941528320
0.2794504165649414,0.3245286941528320
0.2816442489624023,0.3262493133544922
0.2816442489624023,0.3262493133544922
0.2796833038330078,0.3252187728881836
0.2796833038330078,0.3252187728881836
0.2806486129760742,0.3256376266479492
0.2806486129760742,0.3256376266479492
0.2804437637329101,0.3276746749877930
0.2804437637329101,0.3276746749877930
0.2804065704345703,0.3264083862304688
0.2804065704345703,0.3264083862304688
0.2831096649169922,0.3289690017700195
0.2833448410034179,0.3289690017700195
0.2813610076904297,0.3285312652587891
0.2813610076904297,0.3285312652587891
0.2832429885864258,0.3294965744018555
0.2832429885864258,0.3294965744018555
0.2830633163452148,0.3330379486083984
0.2843439102172852,0.3330379486083984
0.2843439102172852,0.3316257476806641
0.2834449768066406,0.3325155258178711
0.2834449768066406,0.3325155258178711
0.2846712112426757,0.3319650650024414
0.2846712112426757,0.3319650650024414
0.2857801437377930,0.3355207443237305
0.2857801437377930,0.3355207443237305
0.2836875915527344,0.3335420608520508
0.2836875915527344,0.3335420608520508
0.2865142822265625,0.3358211517333984
0.2865142822265625,0.3358211517333984
0.2859106063842773,0.3366823196411133
0.2859106063842773,0.3366823196411133
0.2869457244873047,0.3359910964965820
0.2869457244873047,0.3359910964965820
0.2876604080200195,0.3391450881958007
0.2876604080200195,0.3391450881958007
0.2859426498413086,0.3377552032470703
0.2859426498413086,0.3377552032470703
0.2890726089477539,0.3401327133178711
0.2890726089477539,0.3401327133178711
0.2887252807617187,0.3410533905029297
0.2887252807617187,0.3410533905029297
0.2895406723022461,0.3400388717651367
0.2895406723022461,0.3400388717651367
0.2902730941772461,0.3429084777832031
0.2902730941772461,0.3429084777832031
0.2874681472778320,0.3396852493286133
0.2874681472778320,0.3396852493286133
0.2897563934326172,0.3403850555419922
0.2897563934326172,0.3403850555419922
0.2877239227294922,0.3392509460449218
0.2877239227294922,0.3392509460449218
0.2879837036132812,0.3368637084960938
0.2854431152343750,0.3368637084960938
0.2879384994506836,0.3388687133789062
0.2879384994506836,0.3388687133789062
0.2852113723754883,0.3353525161743164
0.2852113723754883,0.3353525161743164
0.2873594284057617,0.3363653182983398
0.2873594284057617,0.3363653182983398
0.2857967376708984,0.3360912322998047
0.2857967376708984,0.3360912322998047
0.2865503311157226,0.3345239639282226
0.2865503311157226,0.3345239639282226
0.2871442794799804,0.3371807098388672
0.2871442794799804,0.3371807098388672
0.2845207214355469,0.3341079711914062
0.2845207214355469,0.3341079711914062
0.2868616104125977,0.3354715347290039
0.2868616104125977,0.3354715347290039
0.2855953216552734,0.3351488113403320
0.2855953216552734,0.3351488113403320
0.2861097335815430,0.3336513519287109
0.2861097335815430,0.3336513519287109
0.2863374710083008,0.3358886718750000
0.2863374710083008,0.3358886718750000
0.2840612411499023,0.3333904266357422
0.2840612411499023,0.3333904266357422
0.2862379074096680,0.3347173690795898
0.2862379074096680,0.3347173690795898
0.2855009078979492,0.3348369598388672
0.2855009078979492,0.3348369598388672
0.2860124588012695,0.3337703704833984
0.2860124588012695,0.3337703704833984
0.2866510391235351,0.3365753173828125
0.2866510391235351,0.3365753173828125
0.2845550537109375,0.3345130920410156
0.2845550537109375,0.3345130920410156
0.2870887756347656,0.3362234115600586
0.2870887756347656,0.3362234115600586
0.2862567901611328,0.3364322662353516
0.2862567901611328,0.3364322662353516
0.2869268417358398,0.3355722427368164
0.2869268417358398,0.3355722427368164
0.2877290725708008,0.3385236740112305
0.2877290725708008,0.3385236740112305
0.2858676910400391,0.3366233825683594
0.2858676910400391,0.3366233825683594
0.2882652282714844,0.3384229660034180
0.2882652282714844,0.3384229660034180
0.2876529693603516,0.3389837265014649
0.2876529693603516,0.3389837265014649
0.2885313034057617,0.3383228302001953
0.2885313034057617,0.3383228302001953
0.2894582748413086,0.3413091659545898
0.2894582748413086,0.3413091659545898
0.2874813079833984,0.3394020080566406
0.2874813079833984,0.3394020080566406
0.2898479461669922,0.3412960052490234
0.2898479461669922,0.3412960052490234
0.2894720077514648,0.3418910980224609
0.2919645309448242,0.3418910980224609
0.2902782440185547,0.3411735534667968
0.2902782440185547,0.3411735534667968
0.2909923553466797,0.3440471649169922
0.2909923553466797,0.3440471649169922
0.2891830444335937,0.3423734664916992
0.2891830444335937,0.3423734664916992
0.2907697677612305,0.3440677642822266
0.2907697677612305,0.3440677642822266
0.2911216735839844,0.3445175170898437
0.2911216735839844,0.3445175170898437
0.2916109085083008,0.3437936782836914
0.2916109085083008,0.3437936782836914
0.2924148559570313,0.3467290878295898
0.2924148559570313,0.3467290878295898
0.2906713485717773,0.3449237823486328
0.2906713485717773,0.3449237823486328
0.2931146621704102,0.3466243743896484
0.2922895431518555,0.3466243743896484
0.2948633193969726,0.3468824386596679
0.2939437866210937,0.3468824386596679
0.2928331375122070,0.3456899642944336
0.2928331375122070,0.3456899642944336
0.2931489944458008,0.3475742340087891
0.2931489944458008,0.3475742340087891
0.2906627655029297,0.3444837570190429
0.2906627655029297,0.3444837570190429
0.2920663833618164,0.3448802947998047
0.2920663833618164,0.3448802947998047
0.2906530380249023,0.3439264297485352
0.2906530380249023,0.3439264297485352
0.2905185699462891,0.3415077209472656
0.2905185699462891,0.3415077209472656
0.2904670715332031,0.3429559707641601
0.2904670715332031,0.3429559707641601
0.2875179290771484,0.3393733978271484
0.2875179290771484,0.3393733978271484
0.2890405654907227,0.3397830963134765
0.2890405654907227,0.3397830963134765
0.2875923156738281,0.3388978958129883
0.2875923156738281,0.3388978958129883
0.2877576828002930,0.3367715835571289
0.2877576828002930,0.3367715835571289
0.2876770019531250,0.3387948989868164
0.2876770019531250,0.3387948989868164
0.2853916168212891,0.3359939575195313
0.2853916168212891,0.3359939575195313
0.2877714157104492,0.3376979827880859
0.2877714157104492,0.3376979827880859
0.2870006561279297,0.3378461837768554
0.2870006561279297,0.3378461837768554
0.2875276565551758,0.3366411209106445
0.2875276565551758,0.3366411209106445
0.2882766723632812,0.3395341873168945
0.2882766723632812,0.3395341873168945
0.2862396240234375,0.3371801376342773
0.2862396240234375,0.3371801376342773
0.2887985229492188,0.3390838623046875
0.2887985229492188,0.3390838623046875
0.2878194808959961,0.3392995834350586
0.2878194808959961,0.3392995834350586
0.2886154174804688,0.3383388519287109
0.2886154174804688,0.3383388519287109
0.2894582748413086,0.3414264678955078
0.2894582748413086,0.3414264678955078
0.2876186370849609,0.3391891479492187
0.2876186370849609,0.3391891479492187
0.2900379180908203,0.3413108825683593
0.2900379180908203,0.3413108825683593
0.2894090652465820,0.3419929504394531
0.2894090652465820,0.3419929504394531
0.2905569076538086,0.3413291931152344
0.2905569076538086,0.3413291931152344
0.2917207717895507,0.3450204849243164
0.2917207717895507,0.3450204849243164
0.2896602630615234,0.3426195144653320
0.2896602630615234,0.3426195144653320
0.2924663543701172,0.3449203491210938
0.2924663543701172,0.3449203491210938
0.2916017532348633,0.3454456329345703
0.2916017532348633,0.3454456329345703
0.2926425933837891,0.3442668914794922
0.2926425933837891,0.3442668914794922
0.2933830261230468,0.3476062774658203
0.2933830261230468,0.3476062774658203
0.2911777496337891,0.3450714111328125
0.2911777496337891,0.3450714111328125
0.2936319351196289,0.3469745635986328
0.2936319351196289,0.3469745635986328
0.2929876327514648,0.3474048614501953
0.2929876327514648,0.3474048614501953
0.2934064865112305,0.3460893630981445
0.2934064865112305,0.3460893630981445
0.2941366195678711,0.3489028930664063
0.2941366195678711,0.3489028930664063
0.2918117523193359,0.3461929321289062
0.2918117523193359,0.3461929321289062
0.2941743850708008,0.3478282928466797
0.2941743850708008,0.3478282928466797
0.2930969238281250,0.3478815078735352
0.2930969238281250,0.3478815078735352
0.2935609817504883,0.3464206695556640
0.2935609817504883,0.3464206695556640
0.2942161560058594,0.3492702484130859
0.2942161560058594,0.3492702484130859
0.2920480728149414,0.3465293884277343
0.2916429519653320,0.3465293884277343
0.2938648223876953,0.3476491928100586
0.2938648223876953,0.3476491928100586
0.2925327301025391,0.3469419479370117
0.2925327301025391,0.3469419479370117
0.2924022674560547,0.3442920684814453
0.2924022674560547,0.3442920684814453
0.2925292968750000,0.3459692001342773
0.2925292968750000,0.3459692001342773
0.2894868850708008,0.3420124053955078
0.2894868850708008,0.3420124053955078
0.2908521652221679,0.3424180984497070
0.2908521652221679,0.3424180984497070
0.2891836166381836,0.3413011550903320
0.2891836166381836,0.3413011550903320
0.2891344070434570,0.3385139465332031
0.2891344070434570,0.3385139465332031
0.2890302658081055,0.3402122497558593
0.2890302658081055,0.3402122497558593
0.2862842559814453,0.3366600036621094
0.2862842559814453,0.3366600036621094
0.2878080368041992,0.3373071670532227
0.2878080368041992,0.3373071670532227
0.2864971160888672,0.3364339828491211
0.2864971160888672,0.3364339828491211
0.2861841201782226,0.3338127136230469
0.2861841201782226,0.3338127136230469
0.2864816665649414,0.3359390258789062
0.2864816665649414,0.3359390258789062
0.2837825775146484,0.3325635910034180
0.2837825775146484,0.3325635910034180
0.2857063293457031,0.3335517883300781
0.2857063293457031,0.3335517883300781
0.2845527648925781,0.3332817077636719
0.2845527648925781,0.3332817077636719
0.2848194122314453,0.3315742492675781
0.2848194122314453,0.3315742492675781
0.2856874465942383,0.3347024917602539
0.2856874465942383,0.3347024917602539
0.2834215164184570,0.3320142745971680
0.2834215164184570,0.3320142745971680
0.2857549667358398,0.3338956832885742
0.2857549667358398,0.3338956832885742
0.2848445892333984,0.3342178344726562
0.2848445892333984,0.3342178344726562
0.2855575561523437,0.3328834533691406
0.2855575561523437,0.3328834533691406
0.2868146896362305,0.3365152359008789
0.2868146896362305,0.3365152359008789
0.2845293045043945,0.3340953826904297
0.2845293045043945,0.3340953826904297
0.2872735977172852,0.3363664627075195
0.2872735977172852,0.3363664627075195
0.2862722396850586,0.3370101928710937
0.2862722396850586,0.3370101928710937
0.2872346878051757,0.3355648040771484
0.2872346878051757,0.3355648040771484
0.2881507873535156,0.3391290664672851
0.2881507873535156,0.3391290664672851
0.2860376358032227,0.3366262435913086
0.2860376358032227,0.3366262435913086
0.2884729385375976,0.3386901855468750
0.2884729385375976,0.3386901855468750
0.2876329421997070,0.3390861511230469
0.2876329421997070,0.3390861511230469
0.2881290435791016,0.3376813888549804
0.2881290435791016,0.3376813888549804
0.2894021987915039,0.3415569305419922
0.2894021987915039,0.3415569305419922
0.2875396728515625,0.3392990112304687
0.2875396728515625,0.3392990112304687
0.2902616500854492,0.3415231704711914
0.2902616500854492,0.3415231704711914
0.2893049240112305,0.3420736312866211
0.2893049240112305,0.3420736312866211
0.2900716781616211,0.3407249450683594
0.2900716781616211,0.3407249450683594
0.2912939071655273,0.3443464279174804
0.2912939071655273,0.3443464279174804
0.2893358230590820,0.3419837951660156
0.2893358230590820,0.3419837951660156
0.2917825698852539,0.3440196990966797
0.2917825698852539,0.3440196990966797
0.2908985137939453,0.3444688796997070
0.2908985137939453,0.3444688796997070
0.2916074752807617,0.3429851531982422
0.2916074752807617,0.3429851531982422
0.2927696228027344,0.3462518692016601
0.2927696228027344,0.3462518692016601
0.2903772354125976,0.3434383392333984
0.2903772354125976,0.3434383392333984
0.2924217224121093,0.3448144912719727
0.2924217224121093,0.3448144912719727
0.2910821914672851,0.3442628860473633
0.2910821914672851,0.3442628860473633
0.2912023544311523,0.3416845321655274
0.2912023544311523,0.3416845321655274
0.2914484024047851,0.3437370300292968
0.2914484024047851,0.3437370300292968
0.2885564804077148,0.3402105331420898
0.2885564804077148,0.3402105331420898
0.2886657714843750,0.3387771606445312
0.2886657714843750,0.3397653579711914
0.2902524948120117,0.3404182434082031
0.2902524948120117,0.3404182434082031
0.2880861282348633,0.3385477066040039
0.2880861282348633,0.3385477066040039
0.2883493423461914,0.3379961013793945
0.2883493423461914,0.3379961013793945
0.2878755569458007,0.3391061782836914
0.2878755569458007,0.3391061782836914
0.2870590209960938,0.3371160507202148
0.2870590209960938,0.3371160507202148
0.2886823654174804,0.3379692077636718
0.2886823654174804,0.3379692077636718
0.2866081237792968,0.3363876342773438
0.2866081237792968,0.3363876342773438
0.2872810363769531,0.3360065460205078
0.2872810363769531,0.3360065460205078
0.2868782043457031,0.3373706817626953
0.2868782043457031,0.3373706817626953
0.2861555099487305,0.3359132766723633
0.2861555099487305,0.3359132766723633
0.2877147674560547,0.3370960235595703
0.2877147674560547,0.3370960235595703
0.2866527557373047,0.3360774993896484
0.2866527557373047,0.3360774993896484
0.2873954772949219,0.3364763259887695
0.2873954772949219,0.3364763259887695
0.2873296737670898,0.3383989334106445
0.2873296737670898,0.3383989334106445
0.2869480133056641,0.3376865386962891
0.2869480133056641,0.3376865386962891
0.2892625808715820,0.3391897201538086
0.2892625808715820,0.3391897201538086
0.2882772445678711,0.3387050628662109
0.2882772445678711,0.3387050628662109
0.2890600204467773,0.3391994476318359
0.2890600204467773,0.3391994476318359
0.2888889312744141,0.3413160324096680
0.2888889312744141,0.3413160324096680
0.2890039443969726,0.3406665802001953
0.2890039443969726,0.3406665802001953
0.2910444259643555,0.3423528671264648
0.2910444259643555,0.3423528671264648
0.2900201797485352,0.3417566299438476
0.2900201797485352,0.3417566299438476
0.2905202865600586,0.3422676086425781
0.2905202865600586,0.3422676086425781
0.2907966613769531,0.3441495895385742
0.2907966613769531,0.3441495895385742
0.2906147003173828,0.3433845520019531
0.2906147003173828,0.3433845520019531
0.2924474716186523,0.3448333740234375
0.2924474716186523,0.3448333740234375
0.2912040710449219,0.3442852020263672
0.2912040710449219,0.3442852020263672
0.2922151565551758,0.3447835922241211
0.2922151565551758,0.3447835922241211
0.2922941207885742,0.3467010498046875
0.2922941207885742,0.3467010498046875
0.2920864105224609,0.3460384368896484
0.2920864105224609,0.3460384368896484
0.2937767028808594,0.3474180221557617
0.2937767028808594,0.3474180221557617
0.2929201126098633,0.3466140747070313
0.2929201126098633,0.3466140747070313
0.2936548233032226,0.3470077514648438
0.2936548233032226,0.3470077514648438
0.2935260772705078,0.3488187789916992
0.2935260772705078,0.3488187789916992
0.2929796218872070,0.3478958129882813
0.2929796218872070,0.3478958129882813
0.2950292587280273,0.3489864349365234
0.2950292587280273,0.3489864349365234
0.2936124801635742,0.3479496002197265
0.2936124801635742,0.3479496002197265
0.2939706802368164,0.3476039886474609
0.2939706802368164,0.3476039886474609
0.2930849075317383,0.3484319686889648
0.2930849075317383,0.3484319686889648
0.2923753738403320,0.3462358474731445
0.2923753738403320,0.3462358474731445
0.2931346893310547,0.3458679199218750
0.2931346893310547,0.3458679199218750
0.2910089492797852,0.3435470581054688
0.2910089492797852,0.3435470581054688
0.2908699035644531,0.3427299499511718
0.2908699035644531,0.3427299499511718
0.2904058456420898,0.3434120178222656
0.2904058456420898,0.3434120178222656
0.2894233703613281,0.3413068771362305
0.2894233703613281,0.3413068771362305
0.2907314300537109,0.3416147232055664
0.2907314300537109,0.3416147232055664
0.2886085510253906,0.3397321701049805
0.2886085510253906,0.3397321701049805
0.2891641616821289,0.3391176223754883
0.2891641616821289,0.3391176223754883
0.2885805130004883,0.3400880813598633
0.2885805130004883,0.3400880813598633
0.2877170562744141,0.3382650375366211
0.2877170562744141,0.3382650375366211
0.2889925003051758,0.3388750076293945
0.2874372482299805,0.3371349334716797
0.2879831314086914,0.3369689941406250
0.2879831314086914,0.3369689941406250
0.2877330780029297,0.3387302398681640
0.2877330780029297,0.3387302398681640
0.2871625900268555,0.3377918243408203
0.2871625900268555,0.3377918243408203
0.2896081924438477,0.3395261764526367
0.2896081924438477,0.3395261764526367
0.2883213043212891,0.3387828826904297
0.2883213043212891,0.3387828826904297
0.2895000457763672,0.3394592285156250
0.2895000457763672,0.3394592285156250
0.2893833160400390,0.3416799545288086
0.2893833160400390,0.3416799545288086
0.2894948959350586,0.3410533905029297
0.2894948959350586,0.3410533905029297
0.2917150497436523,0.3427270889282226
0.2917150497436523,0.3427270889282226
0.2903331756591797,0.3419660568237304
0.2903331756591797,0.3419660568237304
0.2911537170410156,0.3423654556274414
0.2911537170410156,0.3423654556274414
0.2913465499877930,0.3447086334228516
0.2913465499877930,0.3447086334228516
0.2911016464233399,0.3437953948974609
0.2911016464233399,0.3437953948974609
0.2931444168090820,0.3453128814697266
0.2931444168090820,0.3453128814697266
0.2914518356323242,0.3446496963500976
0.2914518356323242,0.3446496963500976
0.2926740646362305,0.3449707031250000
0.2926740646362305,0.3449707031250000
0.2926008224487305,0.3469871520996093
0.2926008224487305,0.3469871520996093
0.2921871185302734,0.3458461761474609
0.2921871185302734,0.3458461761474609
0.2939889907836914,0.3472812652587891
0.2939889907836914,0.3472812652587891
0.2926689147949219,0.3464263916015625
0.2926689147949219,0.3464263916015625
0.2936073303222656,0.3467319488525391
0.2936073303222656,0.3467319488525391
0.2935255050659180,0.3486957550048828
0.2935255050659180,0.3486957550048828
0.2928823471069336,0.3478248596191406
0.2928823471069336,0.3478248596191406
0.2952455520629882,0.3492742538452148
0.2952455520629882,0.3492742538452148
0.2939506530761719,0.3485372543334961
0.2939506530761719,0.3485372543334961
0.2947614669799805,0.3489469528198242
0.2947614669799805,0.3489469528198242
0.2946521759033203,0.3509004592895508
0.2963315963745117,0.3509004592895508
0.2945034027099609,0.3502138137817383
0.2945034027099609,0.3502138137817383
0.2964242935180664,0.3511104583740234
0.2964242935180664,0.3511104583740234
0.2947872161865234,0.3499231338500977
0.2947872161865234,0.3499231338500977
0.2949050903320312,0.3493028640747070
0.2949050903320312,0.3493028640747070
0.2946029663085937,0.3503551483154297
0.2946029663085937,0.3503551483154297
0.2936073303222656,0.3484628677368164
0.2936073303222656,0.3484628677368164
0.2948335647583007,0.3480926513671875
0.2948335647583007,0.3480926513671875
0.2918603897094726,0.3450365066528320
0.2918603897094726,0.3450365066528320
0.2912733078002930,0.3424970626831055
0.2912733078002930,0.3424970626831055
0.2898530960083008,0.3422086715698242
0.2898530960083008,0.3422086715698242
0.2880941390991211,0.3389762878417968
0.2880941390991211,0.3389762878417968
0.2890314102172851,0.3388612747192383
0.2890314102172851,0.3388612747192383
0.2868644714355469,0.3367046356201172
0.2868644714355469,0.3367046356201172
0.2872518539428711,0.3359367370605469
0.2872518539428711,0.3359367370605469
0.2866893768310547,0.3372230529785156
0.2866893768310547,0.3372230529785156
0.2855329513549805,0.3352884292602539
0.2855329513549805,0.3352884292602539
0.2876644134521484,0.3361541748046875
0.2876644134521484,0.3361541748046875
0.2856616973876953,0.3346584320068359
0.2856616973876953,0.3346584320068359
0.2864158630371094,0.3344833374023438
0.2864158630371094,0.3344833374023438
0.2857870101928711,0.3360374450683594
0.2857870101928711,0.3360374450683594
0.2850923538208008,0.3343889236450195
0.2850923538208008,0.3343889236450195
0.2869308471679687,0.3350681304931640
0.2869308471679687,0.3350681304931640
0.2849882125854492,0.3337835311889648
0.2865022659301757,0.3337835311889648
0.2853927612304688,0.3337589263916015
0.2853927612304688,0.3337589263916015
0.2854986190795898,0.3355894088745117
0.2854986190795898,0.3355894088745117
0.2852748870849609,0.3350234985351562
0.2852748870849609,0.3350234985351562
0.2877136230468750,0.3367578506469727
0.2877136230468750,0.3367578506469727
0.2861457824707031,0.3362995147705078
0.2861457824707031,0.3362995147705078
0.2874961853027344,0.3367349624633789
0.2874961853027344,0.3367349624633789
0.2877817153930664,0.3391330718994141
0.2877817153930664,0.3391330718994141
0.2874515533447266,0.3383663177490234
0.2874515533447266,0.3383663177490234
0.2895000457763672,0.3398042678833008
0.2895000457763672,0.3398042678833008
0.2885072708129883,0.3393362045288086
0.2885072708129883,0.3393362045288086
0.2894725799560547,0.3398534774780274
0.2894725799560547,0.3398534774780274
0.2896591186523437,0.3420581817626953
0.2896591186523437,0.3420581817626953
0.2891120910644531,0.3413595199584961
0.2891120910644531,0.3413595199584961
0.2916692733764648,0.3429342269897461
0.2916692733764648,0.3429342269897461
0.2903835296630859,0.3425399780273438
0.2903835296630859,0.3425399780273438
0.2915954589843750,0.3431751251220703
0.2915954589843750,0.3431751251220703
0.2917282104492188,0.3456819534301758
0.2917282104492188,0.3456819534301758
0.2916280746459961,0.3451068878173828
0.2916280746459961,0.3451068878173828
0.2940284729003906,0.3465242385864258
0.2940284729003906,0.3465242385864258
0.2926288604736328,0.3459949493408203
0.2926288604736328,0.3459949493408203
0.2933870315551758,0.3463897705078125
0.2933870315551758,0.3463897705078125
0.2935947418212890,0.3483421325683594
0.2954641342163086,0.3483421325683594
0.2929481506347656,0.3470890045166016
0.2929481506347656,0.3470890045166016
0.2947912216186523,0.3476921081542969
0.2947912216186523,0.3476921081542969
0.2924331665039062,0.3459743499755859
0.2924331665039062,0.3459743499755859
0.2927438735961914,0.3443281173706055
0.2927438735961914,0.3443281173706055
0.2908115386962891,0.3429737091064453
0.2908115386962891,0.3429737091064453
0.2883808135986328,0.3389865875244141
0.2883808135986328,0.3389865875244141
0.2886743545532227,0.3377265930175781
0.2886743545532227,0.3377265930175781
0.2861091613769531,0.3350423812866211
0.2861091613769531,0.3350423812866211
0.2858682632446289,0.3334299087524414
0.2858682632446289,0.3334299087524414
0.2850311279296875,0.3338567733764649
0.2850311279296875,0.3338567733764649
0.2835794448852539,0.3317058563232422
0.2835794448852539,0.3317058563232422
0.2852874755859375,0.3318843841552734
0.2852874755859375,0.3318843841552734
0.2833316802978516,0.3303760528564453
0.2833316802978516,0.3303760528564453
0.2837682723999023,0.3300464630126953
0.2837682723999023,0.3300464630126953
0.2831474304199219,0.3312898635864258
0.2831474304199219,0.3312898635864258
0.2827737808227539,0.3302112579345703
0.2827737808227539,0.3302112579345703
0.2847404479980469,0.3311319351196289
0.2847404479980469,0.3311319351196289
0.2833156585693359,0.3305877685546875
0.2833156585693359,0.3305877685546875
0.2840160369873047,0.3309986114501953
0.2825569152832031,0.3309986114501953
0.2844228744506836,0.3331981658935547
0.2844228744506836,0.3331981658935547
0.2841213226318359,0.3325040817260742
0.2841213226318359,0.3325040817260742
0.2862693786621094,0.3336885452270508
0.2862693786621094,0.3336885452270508
0.2846065521240234,0.3332628250122070
0.2846065521240234,0.3332628250122070
0.2857481002807617,0.3335735321044922
0.2857481002807617,0.3335735321044922
0.2864009857177734,0.3363756179809570
0.2864009857177734,0.3348810195922852
0.2858797073364258,0.3356592178344727
0.2884363174438476,0.3356592178344727
0.2862390518188476,0.3336782455444336
0.2862390518188476,0.3336782455444336
0.2875659942626953,0.3368963241577148
0.2875659942626953,0.3368963241577148
0.2859420776367188,0.3353422164916992
0.2859420776367188,0.3353422164916992
0.2874601364135742,0.3368328094482422
0.2874601364135742,0.3368328094482422
0.2869445800781250,0.3374204635620117
0.2894948959350586,0.3374204635620117
0.2874464035034179,0.3356998443603516
0.2874464035034179,0.3356998443603516
0.2886165618896484,0.3387943267822265
0.2886165618896484,0.3387943267822265
0.2872037887573242,0.3375566482543945
0.2872037887573242,0.3375566482543945
0.2887830734252930,0.3391416549682617
0.2887830734252930,0.3391416549682617
0.2886154174804688,0.3400978088378906
0.2886154174804688,0.3400978088378906
0.2889570236206054,0.3385248184204102
0.2889570236206054,0.3385248184204102
0.2903800964355469,0.3418144226074218
0.2903800964355469,0.3418144226074218
0.2889656066894531,0.3406637191772461
0.2889656066894531,0.3406637191772461
0.2906272888183594,0.3423837661743164
0.2906272888183594,0.3423837661743164
0.2903057098388672,0.3434795379638672
0.2903057098388672,0.3434795379638672
0.2909391403198242,0.3421817779541015
0.2909391403198242,0.3421817779541015
0.2925830841064453,0.3455646514892578
0.2925830841064453,0.3455646514892578
0.2915193557739258,0.3446044921875000
0.2915193557739258,0.3446044921875000
0.2930929183959961,0.3462570190429687
0.2930929183959961,0.3462570190429687
0.2925601959228515,0.3468807220458984
0.2925601959228515,0.3468807220458984
0.2925785064697266,0.3444591522216797
0.2925785064697266,0.3444591522216797
0.2934734344482422,0.3464166641235352
0.2934734344482422,0.3464166641235352
0.2911016464233399,0.3436912536621093
0.2911016464233399,0.3436912536621093
0.2917379379272461,0.3436277389526367
0.2917379379272461,0.3436277389526367
0.2903394699096680,0.3430200576782226
0.2903394699096680,0.3430200576782226
0.2902193069458008,0.3399845123291015
0.2902193069458008,0.3399845123291015
0.2908985137939453,0.3421989440917969
0.2908985137939453,0.3421989440917969
0.2889873504638672,0.3399541854858398
0.2889873504638672,0.3399541854858398
0.2900934219360352,0.3404777526855469
0.2900934219360352,0.3404777526855469
0.2890331268310547,0.3403026580810547
0.2890331268310547,0.3403026580810547
0.2887784957885742,0.3375205993652344
0.2887784957885742,0.3375205993652344
0.2896860122680664,0.3398677825927734
0.2896860122680664,0.3398677825927734
0.2876615524291992,0.3377191543579102
0.2876615524291992,0.3377191543579102
0.2890668869018554,0.3384304046630859
0.2890668869018554,0.3384304046630859
0.2877079010009765,0.3385133743286133
0.2877079010009765,0.3385133743286133
0.2877708435058594,0.3361473083496094
0.2877708435058594,0.3361473083496094
0.2889633178710938,0.3386615753173828
0.2889633178710938,0.3386615753173828
0.2873319625854492,0.3372362136840820
0.2873319625854492,0.3372362136840820
0.2887224197387695,0.3383806228637695
0.2887224197387695,0.3383806228637695
0.2878686904907227,0.3391027450561523
0.2878686904907227,0.3391027450561523
0.2881994247436523,0.3371824264526367
0.2881994247436523,0.3371824264526367
0.2897478103637695,0.3402820587158203
0.2897478103637695,0.3402820587158203
0.2880701065063476,0.3390958786010742
0.2880701065063476,0.3390958786010742
0.2897798538208008,0.3404754638671875
0.2897798538208008,0.3404754638671875
0.2890600204467773,0.3413732528686523
0.2890600204467773,0.3413732528686523
0.2895841598510742,0.3396137237548828
0.2895841598510742,0.3396137237548828
0.2909723281860351,0.3428157806396484
0.2909723281860351,0.3428157806396484
0.2895698547363281,0.3418350219726562
0.2895698547363281,0.3418350219726562
0.2912733078002930,0.3433284759521484
0.2912733078002930,0.3433284759521484
0.2907028198242188,0.3442302703857422
0.2907028198242188,0.3442302703857422
0.2910604476928711,0.3424180984497070
0.2910604476928711,0.3424180984497070
0.2924949645996094,0.3455577850341797
0.2924949645996094,0.3455577850341797
0.2910095214843750,0.3443447113037109
0.2910095214843750,0.3443447113037109
0.2927135467529297,0.3456962585449219
0.2927135467529297,0.3456962585449219
0.2918603897094726,0.3462781906127930
0.2918603897094726,0.3462781906127930
0.2921264648437500,0.3443847656250000
0.2921264648437500,0.3443847656250000
0.2935770034790039,0.3473505020141601
0.2935770034790039,0.3473505020141601
0.2921424865722656,0.3463056564331055
0.2921424865722656,0.3463056564331055
0.2936502456665039,0.3475559234619141
0.2936502456665039,0.3475559234619141
0.2928279876708984,0.3483816146850586
0.2928279876708984,0.3483816146850586
0.2932411193847656,0.3464801788330078
0.2932411193847656,0.3464801788330078
0.2949594497680664,0.3495397567749023
0.2949594497680664,0.3495397567749023
0.2933904647827149,0.3484600067138672
0.2933904647827149,0.3484600067138672
0.2949954986572266,0.3494853973388672
0.2949954986572266,0.3494853973388672
0.2937898635864258,0.3496278762817382
0.2937898635864258,0.3496278762817382
0.2936628341674805,0.3465579986572265
0.2936628341674805,0.3465579986572265
0.2942888259887695,0.3480892181396484
0.2942888259887695,0.3480892181396484
0.2918111801147461,0.3455194473266601
0.2918111801147461,0.3455194473266601
0.2926225662231445,0.3452974319458008
0.2926225662231445,0.3452974319458008
0.2909093856811523,0.3445249557495117
0.2909093856811523,0.3445249557495117
0.2902135848999023,0.3409944534301758
0.2902135848999023,0.3409944534301758
0.2908819198608398,0.3427963256835938
0.2908819198608398,0.3427963256835938
0.2887275695800781,0.3402305603027344
0.2884071350097656,0.3402305603027344
0.2897844314575195,0.3404308319091797
0.2897844314575195,0.3404308319091797
0.2880615234375000,0.3400308609008789
0.2880615234375000,0.3400308609008789
0.2879390716552734,0.3373815536499024
0.2856851577758789,0.3373815536499024
0.2892425537109375,0.3400611877441406
0.2892425537109375,0.3400611877441406
0.2877325057983398,0.3387004852294922
0.2877325057983398,0.3387004852294922
0.2893112182617187,0.3397333145141602
0.2893112182617187,0.3397333145141602
0.2882589340209961,0.3403181076049804
0.2882589340209961,0.3403181076049804
0.2886394500732422,0.3383222579956054
0.2886394500732422,0.3383222579956054
0.2902370452880859,0.3410917282104492
0.2902370452880859,0.3410917282104492
0.2885702133178711,0.3399604797363281
0.2886720657348633,0.3399604797363281
0.2903142929077148,0.3412181854248047
0.2903142929077148,0.3412181854248047
0.2894159317016601,0.3420667648315430
0.2894159317016601,0.3420667648315430
0.2899801254272461,0.3402706146240234
0.2879819869995117,0.3402706146240234
0.2914466857910156,0.3432306289672851
0.2914466857910156,0.3432306289672851
0.2900522232055664,0.3424587249755859
0.2900522232055664,0.3424587249755859
0.2919427871704102,0.3438074111938477
0.2919427871704102,0.3438074111938477
0.2912189483642578,0.3448333740234375
0.2912189483642578,0.3448333740234375
0.2915628433227539,0.3431751251220703
0.2915628433227539,0.3431751251220703
0.2932531356811524,0.3461809158325195
0.2932531356811524,0.3461809158325195
0.2919239044189453,0.3453357696533203
0.2919239044189453,0.3453357696533203
0.2936679840087891,0.3465116500854492
0.2936679840087891,0.3465116500854492
0.2926786422729492,0.3473625183105469
0.2926786422729492,0.3473625183105469
0.2929309844970703,0.3455966949462890
0.2929309844970703,0.3455966949462890
0.2945011138916016,0.3482419967651367
0.2945011138916016,0.3482419967651367
0.2931066513061523,0.3474048614501953
0.2931066513061523,0.3474048614501953
0.2946630477905273,0.3485624313354492
0.2946630477905273,0.3485624313354492
0.2937057495117187,0.3495592117309570
0.2937057495117187,0.3495592117309570
0.2941005706787109,0.3478036880493164
0.2941005706787109,0.3478036880493164
0.2958126068115234,0.3507207870483398
0.2958126068115234,0.3507207870483398
0.2943740844726562,0.3499185562133789
0.2943740844726562,0.3499185562133789
0.2960145950317383,0.3511213302612304
0.2960145950317383,0.3511213302612304
0.2950355529785156,0.3521461486816406
0.2950355529785156,0.3521461486816406
0.2954750061035156,0.3502149581909180
0.2954750061035156,0.3502149581909180
0.2967784881591797,0.3526205062866211
0.2973838806152344,0.3526205062866211
0.2950092315673828,0.3511024475097656
0.2950092315673828,0.3511024475097656
0.2960180282592773,0.3510623931884765
0.2960180282592773,0.3510623931884765
0.2943964004516602,0.3507036209106445
0.2943964004516602,0.3507036209106445
0.2938533782958984,0.3474037170410156
0.2938533782958984,0.3474037170410156
0.2944478988647461,0.3486808776855468
0.2944478988647461,0.3486808776855468
0.2924623489379883,0.3466260910034180
0.2924623489379883,0.3466260910034180
0.2932170867919922,0.3463525772094727
0.2932170867919922,0.3463525772094727
0.2913791656494141,0.3456853866577148
0.2913791656494141,0.3456853866577148
0.2910055160522461,0.3428295135498047
0.2910055160522461,0.3428295135498047
0.2916646957397461,0.3440099716186523
0.2916646957397461,0.3440099716186523
0.2899635314941406,0.3422475814819336
0.2899635314941406,0.3422475814819336
0.2904636383056641,0.3420879364013672
0.2904636383056641,0.3420879364013672
0.2890531539916992,0.3418418884277344
0.2890531539916992,0.3418418884277344
0.2888689041137695,0.3393922805786133
0.2888689041137695,0.3393922805786133
0.2900756835937500,0.3412393569946289
0.2900756835937500,0.3412393569946289
0.2885696411132813,0.3403398513793945
0.2885696411132813,0.3403398513793945
0.2897329330444336,0.3410093307495117
0.2897329330444336,0.3410093307495117
0.2887121200561523,0.3415740966796875
0.2887121200561523,0.3415740966796875
0.2891527175903320,0.3399335861206055
0.2891527175903320,0.3399335861206055
0.2905162811279297,0.3422498703002930
0.2905162811279297,0.3422498703002930
0.2895767211914063,0.3420209884643555
0.2895767211914063,0.3420209884643555
0.2908842086791992,0.3429674148559570
0.2908842086791992,0.3429674148559570
0.2903423309326172,0.3439807891845703
0.2903423309326172,0.3439807891845703
0.2906558990478516,0.3423894882202148
0.2906558990478516,0.3423894882202148
0.2920640945434570,0.3449031829833984
0.2920640945434570,0.3449031829833984
0.2911428451538086,0.3446359634399414
0.2909294128417969,0.3446359634399414
0.2925745010375976,0.3455291748046875
0.2925745010375976,0.3455291748046875
0.2917476654052734,0.3463708877563477
0.2917476654052734,0.3463708877563477
0.2920846939086914,0.3449237823486328
0.2902816772460937,0.3449237823486328
0.2934465408325195,0.3471073150634765
0.2934465408325195,0.3471073150634765
0.2925790786743164,0.3468852996826172
0.2925790786743164,0.3468852996826172
0.2938556671142578,0.3478494644165039
0.2938556671142578,0.3478494644165039
0.2932903289794922,0.3490219116210938
0.2957954406738281,0.3490219116210938
0.2937143325805664,0.3478168487548828
0.2937143325805664,0.3478168487548828
0.2956552505493164,0.3503356933593750
0.2956552505493164,0.3503356933593750
0.2946298599243164,0.3501960754394531
0.2946298599243164,0.3501960754394531
0.2960134506225586,0.3512157440185547
0.2960134506225586,0.3512157440185547
0.2953330993652344,0.3522130966186524
0.2953330993652344,0.3522130966186524
0.2958618164062500,0.3508850097656250
0.2958618164062500,0.3508850097656250
0.2974325180053711,0.3530605316162109
0.2974325180053711,0.3530605316162109
0.2962560653686523,0.3526971817016601
0.2962560653686523,0.3526971817016601
0.2956907272338867,0.3530542373657227
0.2948032379150390,0.3530542373657227
0.2982931137084961,0.3537380218505859
0.2982931137084961,0.3537380218505859
0.2960105895996094,0.3531904220581055
0.2960105895996094,0.3531904220581055
0.2969175338745117,0.3524866104125977
0.2969175338745117,0.3524866104125977
0.2967824935913086,0.3535114288330078
0.2967824935913086,0.3535114288330078
0.2949468612670899,0.3510068893432617
0.2949468612670899,0.3510068893432617
0.2960163116455078,0.3489046096801758
0.2960163116455078,0.3489046096801758
0.2916355133056641,0.3457557678222656
0.2916355133056641,0.3457557678222656
0.2918460845947266,0.3432575225830078
0.2898908615112304,0.3432575225830078
0.2908229827880859,0.3434143066406250
0.2908229827880859,0.3434143066406250
0.2884632110595703,0.3403873443603516
0.2884632110595703,0.3403873443603516
0.2900247573852539,0.3397201538085937
0.2900247573852539,0.3397201538085937
0.2869686126708984,0.3378765106201172
0.2869686126708984,0.3378765106201172
0.2876403808593750,0.3363275527954102
0.2876403808593750,0.3363275527954102
0.2869640350341797,0.3370422363281250
0.2869640350341797,0.3370422363281250
0.2843605041503906,0.3346200942993164
0.2843605041503906,0.3346200942993164
0.2867809295654297,0.3344776153564453
0.2867809295654297,0.3344776153564453
0.2838214874267578,0.3331821441650391
0.2838214874267578,0.3331821441650391
0.2849063873291016,0.3321865081787109
0.2849063873291016,0.3321865081787109
0.2844491958618164,0.3337497711181641
0.2844491958618164,0.3337497711181641
0.2829574584960937,0.3320108413696289
0.2829574584960937,0.3320108413696289
0.2859386444091797,0.3330385208129883
0.2859386444091797,0.3330385208129883
0.2831565856933594,0.3327289581298828
0.2831565856933594,0.3327289581298828
0.2848274230957031,0.3324697494506836
0.2848274230957031,0.3324697494506836
0.2852588653564453,0.3346853256225586
0.2852588653564453,0.3346853256225586
0.2836166381835937,0.3330848693847656
0.2836166381835937,0.3330848693847656
0.2866270065307617,0.3342899322509765
0.2866270065307617,0.3342899322509765
0.2837488174438477,0.3339815139770508
0.2837488174438477,0.3339815139770508
0.2857183456420898,0.3336381912231445
0.2857183456420898,0.3336381912231445
0.2859655380249023,0.3357547760009765
0.2859655380249023,0.3357547760009765
0.2840440750122070,0.3341148376464844
0.2840440750122070,0.3341148376464844
0.2869874954223633,0.3354045867919922
0.2869874954223633,0.3354045867919922
0.2844835281372070,0.3350395202636718
0.2844835281372070,0.3350395202636718
0.2864118576049804,0.3347705841064453
0.2864118576049804,0.3347705841064453
0.2867008209228515,0.3375526428222656
0.2867008209228515,0.3375526428222656
0.2847043991088867,0.3356912612915039
0.2847043991088867,0.3356912612915039
0.2886754989624024,0.3378101348876953
0.2886754989624024,0.3378101348876953
0.2858133316040039,0.3375783920288086
0.2858133316040039,0.3375783920288086
0.2882337570190430,0.3377386093139648
0.2882337570190430,0.3377386093139648
0.2883127212524414,0.3406637191772461
0.2883127212524414,0.3406637191772461
0.2870521545410156,0.3392618179321289
0.2870521545410156,0.3392618179321289
0.2905328750610351,0.3410287857055664
0.2905328750610351,0.3410287857055664
0.2882085800170898,0.3412393569946289
0.2882085800170898,0.3412393569946289
0.2900436401367187,0.3413263320922851
0.2900436401367187,0.3413263320922851
0.2908578872680664,0.3441850662231445
0.2908578872680664,0.3441850662231445
0.2893335342407227,0.3430046081542968
0.2893335342407227,0.3430046081542968
0.2927158355712891,0.3447195053100586
0.2927158355712891,0.3447195053100586
0.2901454925537109,0.3447675704956055
0.2901454925537109,0.3447675704956055
0.2917121887207031,0.3438898086547851
0.2917121887207031,0.3438898086547851
0.2914449691772461,0.3452831268310547
0.2914449691772461,0.3452831268310547
0.2890462875366211,0.3426006317138672
0.2890462875366211,0.3426006317138672
0.2912979125976562,0.3427688598632813
0.2912979125976562,0.3427688598632813
0.2885656356811523,0.3417257308959961
0.2885656356811523,0.3417257308959961
0.2896648406982422,0.3402574539184570
0.2896648406982422,0.3402574539184570
0.2892929077148437,0.3415437698364258
0.2892929077148437,0.3415437698364258
0.2866012573242188,0.3388950347900391
0.2866012573242188,0.3388950347900391
0.2894285202026367,0.3392526626586914
0.2894285202026367,0.3392526626586914
0.2865331649780273,0.3382204055786133
0.2865331649780273,0.3382204055786133
0.2878458023071289,0.3371961593627930
0.2878458023071289,0.3371961593627930
0.2875007629394531,0.3388755798339844
0.2875007629394531,0.3388755798339844
0.2856622695922851,0.3369524002075195
0.2856622695922851,0.3369524002075195
0.2886165618896484,0.3378896713256836
0.2878183364868164,0.3378896713256836
0.2863706588745117,0.3379056930541992
0.2863706588745117,0.3379056930541992
0.2878944396972656,0.3378393173217774
0.2878944396972656,0.3378393173217774
0.2887058258056641,0.3404834747314453
0.2887058258056641,0.3404834747314453
0.2872890472412109,0.3395032882690430
0.2872890472412109,0.3395032882690430
0.2905065536499024,0.3410087585449219
0.2905065536499024,0.3410087585449219
0.2883401870727539,0.3414613723754883
0.2883401870727539,0.3414613723754883
0.2902667999267578,0.3413360595703125
0.2902667999267578,0.3413360595703125
0.2908006668090820,0.3439023971557617
0.2908006668090820,0.3439023971557617
0.2891103744506836,0.3425880432128906
0.2891103744506836,0.3425880432128906
0.2919319152832031,0.3438142776489257
0.2919319152832031,0.3438142776489257
0.2900459289550781,0.3438457489013672
0.2900459289550781,0.3438457489013672
0.2915599822998047,0.3435373306274414
0.2915599822998047,0.3435373306274414
0.2918226242065430,0.3458152770996094
0.2918226242065430,0.3458152770996094
0.2899257659912109,0.3444631576538086
0.2899257659912109,0.3444631576538086
0.2930700302124024,0.3456842422485352
0.2930700302124024,0.3456842422485352
0.2911657333374023,0.3457534790039062
0.2911657333374023,0.3457534790039062
0.2927146911621094,0.3457780838012695
0.2927146911621094,0.3457780838012695
0.2928680419921875,0.3481721878051758
0.2928680419921875,0.3481721878051758
0.2915302276611328,0.3471410751342773
0.2915302276611328,0.3471410751342773
0.2946453094482422,0.3484079360961914
0.2946453094482422,0.3484079360961914
0.2929378509521484,0.3486562728881836
0.2929378509521484,0.3486562728881836
0.2942018508911133,0.3486185073852539
0.2942018508911133,0.3486185073852539
0.2948890686035156,0.3509525299072265
0.2948890686035156,0.3509525299072265
0.2933212280273437,0.3500318527221680
0.2933212280273437,0.3500318527221680
0.2961370468139649,0.3509988784790039
0.2961370468139649,0.3509988784790039
0.2943386077880859,0.3513519287109375
0.2943386077880859,0.3513519287109375
0.2960042953491211,0.3513010025024414
0.2960042953491211,0.3513010025024414
0.2964700698852539,0.3535057067871094
0.2964700698852539,0.3535057067871094
0.2949817657470703,0.3526885986328125
0.2949817657470703,0.3526885986328125
0.2972934722900391,0.3533168792724609
0.2972934722900391,0.3533168792724609
0.2958068847656250,0.3531641006469726
0.2958068847656250,0.3531641006469726
0.2966377258300781,0.3522474288940430
0.2966377258300781,0.3522474288940430
0.2964242935180664,0.3532087326049805
0.2964242935180664,0.3532087326049805
0.2937314987182617,0.3508632659912109
0.2937314987182617,0.3508632659912109
0.2961193084716797,0.3506338119506836
0.2961193084716797,0.3506338119506836
0.2935844421386719,0.3490779876708984
0.2935844421386719,0.3490779876708984
0.2936468124389648,0.3468755722045898
0.2936468124389648,0.3468755722045898
0.2926826477050781,0.3472108840942383
0.2926826477050781,0.3472108840942383
0.2903228759765625,0.3445472717285156
0.2903228759765625,0.3445472717285156
0.2922798156738281,0.3440076828002930
0.2922798156738281,0.3440076828002930
0.2899612426757812,0.3431035995483399
0.2899612426757812,0.3431035995483399
0.2904253005981445,0.3419157028198242
0.2904253005981445,0.3419157028198242
0.2905345916748047,0.3431865692138672
0.2905345916748047,0.3431865692138672
0.2883928298950195,0.3413246154785156
0.2883928298950195,0.3413246154785156
0.2907165527343750,0.3415168762207031
0.2907165527343750,0.3415168762207031
0.2886514663696289,0.3413515090942383
0.2886514663696289,0.3413515090942383
0.2897266387939453,0.3405881881713867
0.2882680892944336,0.3405881881713867
0.2900070190429687,0.3426939010620117
0.2915576934814453,0.3426939010620117
0.2883682250976562,0.3416090011596680
0.2883682250976562,0.3416090011596680
0.2908945083618164,0.3425680160522461
0.2908945083618164,0.3425680160522461
0.2899412155151367,0.3431465148925781
0.2899412155151367,0.3431465148925781
0.2912229537963867,0.3430360794067382
0.2912229537963867,0.3430360794067382
0.2918409347534179,0.3456001281738281
0.2918409347534179,0.3456001281738281
0.2899555206298828,0.3444540023803711
0.2899555206298828,0.3444540023803711
0.2931467056274414,0.3456573486328125
0.2931467056274414,0.3456573486328125
0.2919290542602539,0.3461065292358398
0.2919290542602539,0.3461065292358398
0.2930820465087891,0.3460332870483399
0.2930820465087891,0.3460332870483399
0.2934848785400391,0.3486310958862305
0.2934848785400391,0.3486310958862305
0.2920291900634766,0.3475101470947266
0.2920291900634766,0.3475101470947266
0.2950721740722656,0.3487913131713867
0.2950721740722656,0.3487913131713867
0.2935506820678711,0.3492891311645508
0.2935506820678711,0.3492891311645508
0.2948862075805664,0.3493068695068359
0.2948862075805664,0.3493068695068359
0.2958675384521484,0.3521564483642578
0.2958675384521484,0.3521564483642578
0.2942928314208984,0.3510383605957031
0.2942928314208984,0.3510383605957031
0.2975074768066406,0.3525432586669922
0.2975074768066406,0.3525432586669922
0.2956735610961914,0.3529741287231445
0.2956735610961914,0.3529741287231445
0.2973484039306640,0.3527269363403320
0.2973484039306640,0.3527269363403320
0.2979446411132812,0.3554294586181641
0.2979446411132812,0.3554294586181641
0.2959980010986328,0.3539422988891601
0.2959980010986328,0.3539422988891601
0.2988384246826172,0.3554254531860351
0.2988384246826172,0.3554254531860351
0.2973020553588867,0.3557006835937500
0.2973020553588867,0.3557006835937500
0.2987045288085937,0.3553333282470703
0.2987045288085937,0.3553333282470703
0.2991268157958984,0.3577989578247070
0.2991268157958984,0.3577989578247070
0.2968442916870117,0.3559673309326172
0.2968442916870117,0.3559673309326172
0.2995450973510742,0.3565149307250977
0.2995450973510742,0.3565149307250977
0.2973775863647461,0.3556188583374023
0.2973775863647461,0.3556188583374023
0.2976739883422851,0.3537363052368164
0.2976739883422851,0.3537363052368164
0.2968740463256836,0.3544710159301758
0.2968740463256836,0.3544710159301758
0.2942350387573242,0.3511568069458008
0.2942350387573242,0.3511568069458008
0.2961341857910156,0.3506853103637695
0.2961341857910156,0.3506853103637695
0.2936267852783203,0.3492685317993164
0.2936267852783203,0.3492685317993164
0.2935895919799805,0.3473985671997070
0.2935895919799805,0.3473985671997070
0.2936439514160156,0.3485115051269531
0.2936439514160156,0.3485115051269531
0.2909082412719726,0.3456481933593750
0.2909082412719726,0.3456481933593750
0.2930162429809570,0.3457408905029297
0.2919227600097656,0.3457408905029297
0.2907897949218750,0.3450181961059570
0.2907897949218750,0.3450181961059570
0.2916950225830078,0.3437999725341797
0.2916950225830078,0.3437999725341797
0.2919084548950195,0.3451738357543945
0.2919084548950195,0.3420679092407227
0.2896173477172851,0.3436363220214844
0.2920017242431641,0.3444362640380859
0.2910776138305664,0.3444362640380859
0.2905672073364258,0.3443601608276367
0.2905672073364258,0.3443601608276367
0.2915142059326172,0.3435104370117187
0.2915142059326172,0.3435104370117187
0.2919593811035156,0.3457363128662109
0.2919593811035156,0.3457363128662109
0.2895240783691406,0.3436729431152344
0.2895240783691406,0.3436729431152344
0.2926397323608398,0.3450885772705078
0.2926397323608398,0.3450885772705078
0.2908246994018555,0.3449460983276367
0.2908246994018555,0.3449460983276367
0.2919765472412109,0.3441673278808594
0.2919765472412109,0.3441673278808594
0.2921510696411133,0.3466037750244140
0.2921510696411133,0.3466037750244140
0.2901077270507812,0.3443853378295899
0.2901077270507812,0.3443853378295899
0.2931352615356445,0.3458845138549805
0.2931352615356445,0.3458845138549805
0.2913774490356445,0.3458261489868164
0.2913774490356445,0.3458261489868164
0.2924171447753906,0.3452871322631836
0.2924171447753906,0.3452871322631836
0.2931959152221680,0.3479719161987305
0.2948627471923828,0.3479719161987305
0.2910804748535156,0.3461179733276367
0.2910804748535156,0.3461179733276367
0.2940141677856445,0.3475130081176758
0.2940141677856445,0.3475130081176758
0.2922380447387695,0.3476331710815430
0.2922380447387695,0.3476331710815430
0.2934551239013672,0.3469230651855469
0.2934551239013672,0.3469230651855469
0.2939970016479492,0.3494459152221679
0.2939970016479492,0.3494459152221679
0.2919176101684570,0.3475559234619141
0.2919176101684570,0.3475559234619141
0.2945949554443359,0.3490264892578125
0.2945949554443359,0.3490264892578125
0.2932680130004883,0.3491827011108398
0.2932680130004883,0.3491827011108398
0.2942934036254883,0.3484359741210937
0.2942934036254883,0.3484359741210937
0.2947465896606445,0.3511047363281250
0.2947465896606445,0.3511047363281250
0.2925922393798828,0.3493480682373047
0.2925922393798828,0.3493480682373047
0.2958297729492188,0.3510938644409179
0.2958297729492188,0.3510938644409179
0.2945960998535156,0.3514801025390625
0.2945960998535156,0.3514801025390625
0.2957839965820312,0.3508598327636719
0.2957839965820312,0.3508598327636719
0.2960123062133789,0.3533723831176758
0.2960123062133789,0.3533723831176758
0.2936422348022461,0.3502492904663086
0.2936422348022461,0.3502492904663086
0.2959648132324219,0.3505765914916992
0.2959648132324219,0.3505765914916992
0.2933961868286133,0.3490802764892578
0.2933961868286133,0.3490802764892578
0.2933464050292969,0.3467044830322266
0.2933464050292969,0.3467044830322266
0.2932451248168945,0.3479719161987305
0.2932451248168945,0.3479719161987305
0.2901660919189453,0.3442955017089844
0.2901660919189453,0.3442955017089844
0.2925212860107422,0.3449077606201172
0.2925212860107422,0.3449077606201172
0.2901197433471679,0.3440940856933594
0.2901197433471679,0.3440940856933594
0.2911302566528320,0.3425897598266601
0.2911302566528320,0.3425897598266601
0.2913042068481445,0.3446245193481445
0.2913042068481445,0.3446245193481445
0.2886245727539062,0.3416198730468750
0.2886245727539062,0.3416198730468750
0.2910947799682617,0.3426807403564453
0.2910947799682617,0.3426807403564453
0.2893175125122070,0.3422012329101562
0.2893175125122070,0.3422012329101562
0.2902175903320313,0.3408725738525391
0.2902175903320313,0.3408725738525391
0.2903949737548828,0.3432077407836914
0.2903949737548828,0.3432077407836914
0.2876604080200195,0.3405509948730469
0.2876604080200195,0.3405509948730469
0.2906536102294922,0.3419042587280273
0.2906536102294922,0.3419042587280273
0.2892620086669922,0.3420083999633789
0.2892620086669922,0.3420083999633789
0.2900882720947265,0.3411466598510742
0.2900882720947265,0.3411466598510742
0.2904258728027344,0.3438205718994141
0.2904258728027344,0.3438205718994141
0.2886205673217773,0.3418687820434570
0.2886205673217773,0.3418687820434570
0.2914535522460938,0.3436597824096679
0.2914535522460938,0.3436597824096679
0.2903514862060547,0.3441192626953125
0.2903514862060547,0.3441192626953125
0.2912939071655273,0.3437633514404297
0.2912939071655273,0.3437633514404297
0.2923330307006836,0.3468023300170898
0.2923330307006836,0.3468023300170898
0.2904150009155274,0.3450410842895508
0.2904150009155274,0.3450410842895508
0.2932228088378906,0.3468166351318359
0.2932228088378906,0.3468166351318359
0.2919496536254882,0.3473150253295899
0.2919496536254882,0.3473150253295899
0.2932909011840820,0.3467708587646484
0.2932909011840820,0.3467708587646484
0.2940055847167969,0.3496524810791016
0.2940055847167969,0.3496524810791016
0.2913368225097656,0.3474935531616211
0.2913368225097656,0.3474935531616211
0.2943655014038086,0.3491249084472656
0.2935729980468750,0.3491249084472656
0.2935947418212890,0.3495174407958984
0.2935947418212890,0.3495174407958984
0.2945016860961914,0.3487146377563476
0.2945016860961914,0.3487146377563476
0.2950801849365234,0.3514148712158203
0.2950801849365234,0.3514148712158203
0.2928714752197266,0.3495386123657226
0.2928714752197266,0.3495386123657226
0.2955905914306641,0.3509096145629882
0.2955905914306641,0.3509096145629882
0.2945062637329102,0.3511161804199219
0.2945062637329102,0.3511161804199219
0.2953903198242188,0.3502561569213867
0.2953903198242188,0.3502561569213867
0.2956312179565430,0.3529535293579101
0.2956312179565430,0.3529535293579101
0.2936977386474609,0.3506555557250977
0.2936977386474609,0.3506555557250977
0.2964025497436523,0.3522920608520508
0.2964025497436523,0.3522920608520508
0.2952283859252929,0.3524190902709961
0.2952283859252929,0.3524190902709961
0.2956644058227539,0.3512935638427734
0.2956644058227539,0.3512935638427734
0.2962572097778320,0.3535560607910156
0.2962572097778320,0.3535560607910156
0.2936759948730469,0.3505371093750000
0.2936759948730469,0.3505371093750000
0.2957015991210937,0.3511425018310547
0.2957015991210937,0.3511425018310547
0.2937915802001953,0.3503305435180664
0.2937915802001953,0.3503305435180664
0.2941726684570312,0.3483839035034180
0.2941726684570312,0.3483839035034180
0.2943826675415039,0.3504026412963867
0.2943826675415039,0.3504026412963867
0.2917270660400391,0.3472583770751953
0.2917270660400391,0.3472583770751953
0.2933847427368164,0.3476926803588867
0.2933847427368164,0.3476926803588867
0.2916040420532227,0.3462467193603516
0.2916040420532227,0.3462467193603516
0.2915033340454101,0.3440723419189453
0.2915033340454101,0.3440723419189453
0.2915811538696289,0.3457620620727539
0.2915811538696289,0.3457620620727539
0.2886600494384766,0.3425291061401367
0.2886600494384766,0.3425291061401367
0.2909013748168945,0.3433107376098632
0.2909013748168945,0.3433107376098632
0.2895326614379883,0.3427780151367187
