REDsignal,IRsignal
0.4143774032592774,0.4801774978637695
0.4391613006591797,0.4868328094482421
0.4391613006591797,0.4868328094482421
0.4246793746948242,0.4973928451538085
0.4423273086547851,0.4973928451538085
0.4236797332763672,0.4766584396362304
0.4236797332763672,0.4766584396362304
0.4400047302246093,0.5007219314575195
0.4400047302246093,0.5007219314575195
0.4151018142700195,0.4815090179443359
0.4151018142700195,0.4815090179443359
0.4400173187255859,0.4884149551391601
0.4400173187255859,0.4884149551391601
0.4253425598144531,0.4987712860107422
0.4253425598144531,0.4987712860107422
0.4244647979736328,0.4780265808105468
0.4244647979736328,0.4780265808105468
0.4410015106201172,0.5020763397216796
0.4410015106201172,0.5020763397216796
0.4158096313476562,0.4831809997558594
0.4158096313476562,0.4831809997558594
0.4410415649414062,0.4901418685913086
0.4410415649414062,0.4901418685913086
0.4264709472656250,0.5008157730102539
0.4264709472656250,0.5008157730102539
0.4256738662719726,0.4798484802246094
0.4256738662719726,0.4798484802246094
0.4422277450561523,0.5042593002319335
0.4422277450561523,0.5042593002319335
0.4170839309692383,0.4847728729248046
0.4170839309692383,0.4847728729248046
0.4423931121826172,0.4919311523437500
0.4193613052368164,0.4919311523437500
0.4274414062500000,0.5023687362670898
0.4274414062500000,0.5023687362670898
0.4270568847656250,0.4818483352661133
0.4270568847656250,0.4818483352661133
0.4432319641113281,0.5061149597167969
0.4432319641113281,0.5061149597167969
0.4183101654052734,0.4866554260253906
0.4183101654052734,0.4866554260253906
0.4434619903564453,0.4938652038574218
0.4434619903564453,0.4938652038574218
0.4287099838256836,0.5045511245727539
0.4287099838256836,0.5045511245727539
0.4282865524291992,0.4836318969726562
0.4282865524291992,0.4836318969726562
0.4443889617919922,0.5082738876342773
0.4443889617919922,0.5082738876342773
0.4194179534912109,0.4886032104492187
0.4194179534912109,0.4886032104492187
0.4447923660278320,0.4959308624267578
0.4447923660278320,0.4959308624267578
0.4298332214355469,0.5062494277954102
0.4298332214355469,0.5062494277954102
0.4291494369506836,0.4852546691894531
0.4291494369506836,0.4852546691894531
0.4453422546386719,0.5092844009399414
0.4453422546386719,0.5092844009399414
0.4200130462646484,0.4894569396972656
0.4200130462646484,0.4894569396972656
0.4449085235595703,0.4961156845092773
0.4449085235595703,0.4961156845092773
0.4294801712036133,0.5056068420410156
0.4294801712036133,0.5056068420410156
0.4283454895019531,0.4838996887207031
0.4283454895019531,0.4838996887207031
0.4442167282104492,0.5077291488647461
0.4442167282104492,0.5077291488647461
0.4184188842773438,0.4868700027465820
0.4184188842773438,0.4868700027465820
0.4432811737060547,0.4931087493896484
0.4432811737060547,0.4931087493896484
0.4273939132690430,0.5023532867431640
0.4273939132690430,0.5023532867431640
0.4263593673706055,0.4804309844970703
0.4263593673706055,0.4804309844970703
0.4418003082275391,0.5038421630859374
0.4418003082275391,0.5038421630859374
0.4159463882446289,0.4827627182006836
0.4159463882446289,0.4827627182006836
0.4406633377075195,0.4887577056884765
0.4406633377075195,0.4887577056884765
0.4247400283813477,0.4982408523559570
0.4247400283813477,0.4982408523559570
0.4236974716186523,0.4758436203002929
0.4236974716186523,0.4758436203002929
0.4391378402709961,0.4994407653808594
0.4391378402709961,0.4994407653808594
0.4133440017700195,0.4782932281494141
0.4133440017700195,0.4782932281494141
0.4381307601928711,0.4848478317260742
0.4145793914794922,0.4848478317260742
0.4223951339721679,0.4943773269653320
0.4223951339721679,0.4943773269653320
0.4215305328369141,0.4726032257080078
0.4215305328369141,0.4726032257080078
0.4374813079833984,0.4968286514282226
0.4297273635864258,0.4968286514282226
0.4119707107543945,0.4760021209716797
0.4119707107543945,0.4760021209716797
0.4371362686157226,0.4830957412719726
0.4371362686157226,0.4830957412719726
0.4215391159057617,0.4930280685424804
0.4399108886718750,0.4930280685424804
0.4209417343139648,0.4715818405151367
0.4209417343139648,0.4715818405151367
0.4369222640991211,0.4960075378417969
0.4369222640991211,0.4960075378417969
0.4116170883178711,0.4754236221313476
0.4116170883178711,0.4754236221313476
0.4371311187744141,0.4828725814819336
0.4371311187744141,0.4828725814819336
0.4212667465209961,0.4928014755249023
0.4212667465209961,0.4928014755249023
0.4209692001342774,0.4716293334960937
0.4209692001342774,0.4716293334960937
0.4370515823364258,0.4960510253906250
0.4293622970581055,0.4960510253906250
0.4117898941040039,0.4755117416381835
0.4331331253051758,0.4755117416381835
0.4370183944702148,0.4830202102661132
0.4136444091796875,0.4830202102661132
0.4214962005615234,0.4917348861694336
0.4211494445800781,0.4916347503662109
0.4211494445800781,0.4710250854492187
0.4116285324096680,0.4857564926147461
0.4389902114868164,0.4857564926147461
0.4297594070434570,0.4763626098632812
0.4297594070434570,0.4763626098632812
0.4310365676879883,0.4972423553466797
0.4310365676879883,0.4972423553466797
0.4152654647827148,0.4702285766601562
0.4152654647827148,0.4702285766601562
0.4395183563232422,0.4921434402465820
0.4395183563232422,0.4921434402465820
0.4120119094848633,0.4861003875732421
0.4120119094848633,0.4861003875732421
0.4300117492675781,0.4771631240844726
0.4300117492675781,0.4771631240844726
0.4315555572509766,0.4981372833251953
0.4315555572509766,0.4981372833251953
0.4161203384399414,0.4711349487304687
0.4161203384399414,0.4711349487304687
0.4398736953735352,0.4930984497070312
0.4398736953735352,0.4930984497070312
0.4124158859252929,0.4874673843383789
0.4124158859252929,0.4874673843383789
0.4307865142822265,0.4783235549926758
0.4307865142822265,0.4783235549926758
0.4326009750366211,0.4991460800170898
0.4326009750366211,0.4991460800170898
0.4166090011596680,0.4720487594604492
0.4166090011596680,0.4720487594604492
0.4407199859619140,0.4944368362426758
0.4407199859619140,0.4944368362426758
0.4132141113281250,0.4886495590209960
0.4132141113281250,0.4886495590209960
0.4320344924926758,0.4797626495361328
0.4320344924926758,0.4797626495361328
0.4330438613891601,0.5002773284912109
0.4330438613891601,0.5002773284912109
0.4175697326660156,0.4737882614135742
0.4175697326660156,0.4737882614135742
0.4415811538696289,0.4959062576293945
0.4415811538696289,0.4959062576293945
0.4144031524658203,0.4903581619262695
0.4144031524658203,0.4903581619262695
0.4328058242797851,0.4813230514526367
0.4328058242797851,0.4813230514526367
0.4340469360351563,0.5022228240966796
0.4340469360351563,0.5022228240966796
0.4187725067138672,0.4755981445312500
0.4187725067138672,0.4755981445312500
0.4428686141967773,0.4979021072387695
0.4428686141967773,0.4979021072387695
0.4152929306030274,0.4917886734008789
0.4152929306030274,0.4917886734008789
0.4339187622070312,0.4835781097412109
0.4339187622070312,0.4835781097412109
0.4353973388671875,0.5043754577636719
0.4353973388671875,0.5043754577636719
0.4203083038330078,0.4778772354125976
0.4203083038330078,0.4778772354125976
0.4439706802368164,0.4999797821044922
0.4439706802368164,0.4999797821044922
0.4168001174926758,0.4943464279174805
0.4168001174926758,0.4943464279174805
0.4354465484619141,0.4859527587890625
0.4354465484619141,0.4859527587890625
0.4370321273803711,0.5065498352050781
0.4370321273803711,0.5065498352050781
0.4216197967529297,0.4800001144409179
0.4216197967529297,0.4800001144409179
0.4455345153808594,0.5026983261108399
0.4455345153808594,0.5026983261108399
0.4182912826538086,0.4967960357666015
0.4182912826538086,0.4967960357666015
0.4372695922851562,0.4884361267089843
0.4372695922851562,0.4884361267089843
0.4381805419921875,0.5090738296508789
0.4381805419921875,0.5090738296508789
0.4233833312988281,0.4829898834228515
0.4233833312988281,0.4829898834228515
0.4469816207885742,0.5054740905761719
0.4469816207885742,0.5054740905761719
0.4201269149780273,0.4994356155395507
0.4201269149780273,0.4994356155395507
0.4385410308837890,0.4906785964965820
0.4394508361816406,0.5111766815185547
0.4239051818847656,0.4837686538696289
0.4239051818847656,0.4837686538696289
0.4472396850585937,0.5052738189697266
0.4472396850585937,0.5052738189697266
0.4189664840698242,0.4976903915405273
0.4189664840698242,0.4976903915405273
0.4369119644165039,0.4879920959472656
0.4369119644165039,0.4879920959472656
0.4370201110839844,0.5074848175048828
0.4370201110839844,0.5074848175048828
0.4216449737548828,0.4793666839599609
0.4216449737548828,0.4793666839599609
0.4442453384399414,0.5005050659179687
0.4442453384399414,0.5005050659179687
0.4161151885986328,0.4933879852294922
0.4161151885986328,0.4933879852294922
0.4343250274658203,0.4842046737670898
0.4343250274658203,0.4842046737670898
0.4349624633789063,0.5038009643554687
0.4349624633789063,0.5038009643554687
0.4193252563476562,0.4760988235473633
0.4193252563476562,0.4760988235473633
0.4425344467163086,0.4982791900634765
0.4425344467163086,0.4982791900634765
0.4147567749023438,0.4911930084228515
0.4147567749023438,0.4911930084228515
0.4335628509521484,0.4824731826782226
0.4335628509521484,0.4824731826782226
0.4337139129638672,0.5021644592285156
0.4337139129638672,0.5021644592285156
0.4186717987060547,0.4752004623413086
0.4186717987060547,0.4752004623413086
0.4420766830444336,0.4976394653320312
0.4420766830444336,0.4976394653320312
0.4148294448852539,0.4908771514892578
0.4148294448852539,0.4908771514892578
0.4332120895385742,0.4820062637329101
0.4332120895385742,0.4820062637329101
0.4339010238647461,0.5026273727416992
0.4339010238647461,0.5026273727416992
0.4190322875976563,0.4758447647094726
0.4190322875976563,0.4758447647094726
0.4428022384643555,0.4982185363769531
0.4428022384643555,0.4982185363769531
0.4150291442871094,0.4914264678955078
0.4150291442871094,0.4914264678955078
0.4338626861572266,0.4832324981689453
0.4338626861572266,0.4832324981689453
0.4343622207641601,0.5035835266113281
0.4343622207641601,0.5035835266113281
0.4199323654174805,0.4766550064086914
0.4199323654174805,0.4766550064086914
0.4430774688720703,0.4989915847778320
0.4430774688720703,0.4989915847778320
0.4156419754028320,0.4925485610961914
0.4156419754028320,0.4925485610961914
0.4345075607299805,0.4841772079467773
0.4345075607299805,0.4841772079467773
0.4352457046508789,0.5043210983276367
0.4352457046508789,0.5043210983276367
0.4202630996704101,0.4771705627441406
0.4202630996704101,0.4771705627441406
0.4434522628784179,0.5000381469726562
0.4253969192504883,0.5000381469726562
0.4160161972045898,0.4929702758789062
0.4160161972045898,0.4929702758789062
0.4350460052490234,0.4847185134887695
0.4350460052490234,0.4847185134887695
0.4351112365722656,0.5043525695800781
0.4351112365722656,0.5043525695800781
0.4204055786132813,0.4776815414428711
0.4204055786132813,0.4776815414428711
0.4436874389648438,0.5003580093383789
0.4436874389648438,0.5003580093383789
0.4167749404907227,0.4932661056518555
0.4167749404907227,0.4932661056518555
0.4351255416870117,0.4851900100708008
0.4351255416870117,0.4851900100708008
0.4353143692016602,0.5050117492675781
0.4353143692016602,0.5050117492675781
0.4211751937866211,0.4787658691406250
0.4211751937866211,0.4787658691406250
0.4443031311035156,0.5013439178466796
0.4443031311035156,0.5013439178466796
0.4171726226806641,0.4941295623779297
0.4442087173461914,0.4941295623779297
0.4358270645141601,0.4866834640502929
0.4165735244750977,0.4866834640502929
0.4359638214111328,0.5063295364379883
0.4359638214111328,0.5063295364379883
0.4224426269531250,0.4798873901367187
0.4224426269531250,0.4798873901367187
0.4448907852172851,0.5024236679077149
0.4448907852172851,0.5024236679077149
0.4177911758422851,0.4955240249633789
0.4177911758422851,0.4955240249633789
0.4367792129516602,0.4878850936889648
0.4367792129516602,0.4878850936889648
0.4372592926025390,0.5077468872070312
0.4448455810546875,0.5077468872070312
0.4230068206787109,0.4812252044677734
0.4230068206787109,0.4812252044677734
0.4457210540771484,0.5042032241821289
0.4457210540771484,0.5042032241821289
0.4188011169433594,0.4970952987670898
0.4188011169433594,0.4970952987670898
0.4379579544067383,0.4895021438598632
0.4379579544067383,0.4895021438598632
0.4379047393798828,0.5090755462646485
0.4379047393798828,0.5090755462646485
0.4237398147583007,0.4827283859252929
0.4237398147583007,0.4827283859252929
0.4468568801879882,0.5058786392211914
0.4468568801879882,0.5058786392211914
0.4198104858398438,0.4987249374389648
0.4198104858398438,0.4987249374389648
0.4386423110961914,0.4907730102539062
0.4190752029418945,0.4907730102539062
0.4389793395996094,0.5111400604248046
0.4389793395996094,0.5111400604248046
0.4247571945190430,0.4844398498535156
0.4247571945190430,0.4844398498535156
0.4482221603393555,0.5074167251586914
0.4482221603393555,0.5074167251586914
0.4205091476440430,0.5000169754028320
0.4205091476440430,0.5000169754028320
0.4398307800292969,0.4926733016967773
0.4398307800292969,0.4926733016967773
0.4399337768554688,0.5128995895385742
0.4399337768554688,0.5128995895385742
0.4262981414794922,0.4861930847167968
0.4262981414794922,0.4861930847167968
0.4489299774169922,0.5091785430908203
0.4489299774169922,0.5091785430908203
0.4215042114257813,0.5017879486083984
0.4215042114257813,0.5017879486083984
0.4406822204589844,0.4939922332763672
0.4406822204589844,0.4939922332763672
0.4407062530517578,0.5136434555053710
0.4407062530517578,0.5136434555053710
0.4261533737182617,0.4858818054199219
0.4261533737182617,0.4858818054199219
0.4486032485961914,0.5087465286254883
0.4486032485961914,0.5087465286254883
0.4205217361450195,0.5002744674682617
0.4205217361450195,0.5002744674682617
0.4395446777343750,0.4917217254638672
0.4395446777343750,0.4917217254638672
0.4383504867553711,0.5099086761474609
0.4383504867553711,0.5099086761474609
0.4237312316894531,0.4822019577026367
0.4237312316894531,0.4822019577026367
0.4460655212402344,0.5046152114868164
0.4460655212402344,0.5046152114868164
0.4183004379272461,0.4961826324462890
0.4183004379272461,0.4961826324462890
0.4368793487548828,0.4876893997192382
0.4368793487548828,0.4876893997192382
0.4362133026123047,0.5068914413452148
0.4362133026123047,0.5068914413452148
0.4218017578125000,0.4791835784912109
0.4218017578125000,0.4791835784912109
0.4448507308959961,0.5019510269165038
0.4448507308959961,0.5019510269165038
0.4163120269775391,0.4934309005737305
0.4163120269775391,0.4934309005737305
0.4354648590087891,0.4855201721191406
0.4354648590087891,0.4855201721191406
0.4348291397094726,0.5047422409057617
0.4348291397094726,0.5047422409057617
0.4208765029907227,0.4771797180175781
0.4208765029907227,0.4771797180175781
0.4431524276733398,0.4997674942016601
0.4431524276733398,0.4997674942016601
0.4152414321899414,0.4917114257812500
0.4428319931030273,0.4917114257812500
0.4345252990722656,0.4837594985961914
0.4345252990722656,0.4837594985961914
0.4340927124023438,0.5031440734863281
0.4340927124023438,0.5031440734863281
0.4198081970214844,0.4753990173339844
0.4198081970214844,0.4753990173339844
0.4422855377197266,0.4987283706665039
0.4422855377197266,0.4987283706665039
0.4146102905273437,0.4902740478515625
0.4146102905273437,0.4902740478515625
0.4340417861938476,0.4827049255371094
0.4340417861938476,0.4827049255371094
0.4331090927124023,0.5019767761230468
0.4331090927124023,0.5019767761230468
0.4194768905639648,0.4750253677368164
0.4194768905639648,0.4750253677368164
0.4421665191650391,0.4986436843872070
0.4421665191650391,0.4986436843872070
0.4148368835449219,0.4903484344482422
0.4148368835449219,0.4903484344482422
0.4340847015380859,0.4830196380615234
0.4340847015380859,0.4830196380615234
0.4335988998413086,0.5029575347900390
0.4335988998413086,0.5029575347900390
0.4199426651000976,0.4760232925415039
0.4199426651000976,0.4760232925415039
0.4432285308837891,0.4997125625610351
0.4432285308837891,0.4997125625610351
0.4154102325439453,0.4912576675415039
0.4429738998413086,0.4912576675415039
0.4348073959350586,0.4842235565185546
0.4348073959350586,0.4842235565185546
0.4343381881713867,0.5038307189941406
0.4343381881713867,0.5038307189941406
0.4210086822509765,0.4768083572387695
0.4210086822509765,0.4768083572387695
0.4268783569335937,0.5001565933227539
0.4268783569335937,0.4788780212402344
0.4157032012939453,0.4919534683227539
0.4157032012939453,0.4919534683227539
0.4351598739624024,0.4848924636840820
0.4351598739624024,0.4848924636840820
0.4346334457397461,0.5039731979370117
0.4346334457397461,0.5039731979370117
0.4207723617553711,0.4767871856689453
0.4207723617553711,0.4767871856689453
0.4435157775878906,0.5007894515991210
0.4435157775878906,0.5007894515991210
0.4159132003784179,0.4923362731933594
0.4159132003784179,0.4923362731933594
0.4357486724853515,0.4853754043579102
0.4357486724853515,0.4853754043579102
0.4347232818603515,0.5045602798461913
0.4347232818603515,0.5045602798461913
0.4213594436645507,0.4779636383056640
0.4213594436645507,0.4779636383056640
0.4439941406250000,0.5019487380981446
0.4439941406250000,0.5019487380981446
0.4169866561889649,0.4932855606079101
0.4169866561889649,0.4932855606079101
0.4361331939697266,0.4863721847534179
0.4166095733642578,0.4863721847534179
0.4355752944946289,0.5061950683593750
0.4355752944946289,0.5061950683593750
0.4222846984863281,0.4794610977172851
0.4222846984863281,0.4794610977172851
0.4453691482543945,0.5035097122192382
0.4453691482543945,0.5035097122192382
0.4175788879394531,0.4946571350097656
0.4175788879394531,0.4946571350097656
0.4373622894287109,0.4885116577148437
0.4373622894287109,0.4885116577148437
0.4365772247314453,0.5079517364501953
0.4365772247314453,0.5079517364501953
0.4237094879150390,0.4811347961425781
0.4237094879150390,0.4811347961425781
0.4460529327392578,0.5050209045410156
0.4460529327392578,0.5050209045410156
0.4187650680541992,0.4966140747070312
0.4187650680541992,0.4966140747070312
0.4384769439697265,0.4902591705322266
0.4384769439697265,0.4902591705322266
0.4379671096801758,0.5096214294433593
0.4379671096801758,0.5096214294433593
0.4245088577270508,0.4828044891357421
0.4245088577270508,0.4828044891357421
0.4471744537353515,0.5072233200073242
0.4471744537353515,0.5072233200073242
0.4199409484863281,0.4984937667846679
0.4199409484863281,0.4984937667846679
0.4400339126586914,0.4920558929443359
0.4400339126586914,0.4920558929443359
0.4386514663696289,0.5113901138305664
0.4386514663696289,0.5113901138305664
0.4257837295532226,0.4849210739135742
0.4257837295532226,0.4849210739135742
0.4482175827026367,0.5092266082763671
0.4482175827026367,0.5092266082763671
0.4214166641235351,0.5001451492309570
0.4214166641235351,0.5001451492309570
0.4407062530517578,0.4937953948974609
0.4407062530517578,0.4937953948974609
0.4396339416503906,0.5132846832275391
0.4396339416503906,0.5132846832275391
0.4267650604248047,0.4865226745605469
0.4267650604248047,0.4865226745605469
0.4492881774902344,0.5104288101196289
0.4492881774902344,0.5104288101196289
0.4214464187622070,0.5002550125122071
0.4214464187622070,0.5002550125122071
0.4405128479003906,0.4935487747192382
0.4405128479003906,0.4935487747192382
0.4386714935302734,0.5116081237792969
0.4386714935302734,0.5116081237792969
0.4254020690917968,0.4834384918212891
0.4254020690917968,0.4834384918212891
0.4466274261474609,0.5062746047973633
0.4466274261474609,0.5062746047973633
0.4185333251953125,0.4957580566406250
0.4185333251953125,0.4957580566406250
0.4374933242797852,0.4886381149291992
0.4374933242797852,0.4886381149291992
0.4356719970703125,0.5065544128417968
0.4356719970703125,0.5065544128417968
0.4222434997558593,0.4786079406738281
0.4222434997558593,0.4786079406738281
0.4439723968505859,0.5022542953491210
0.4439723968505859,0.5022542953491210
0.4160448074340820,0.4920089721679687
0.4160448074340820,0.4920089721679687
0.4358339309692383,0.4853313446044922
0.4358339309692383,0.4853313446044922
0.4333230972290039,0.5034364700317383
0.4333230972290039,0.5034364700317383
0.4205869674682617,0.4760633468627929
0.4205869674682617,0.4760633468627929
0.4424457550048828,0.5001382827758789
0.4424457550048828,0.5001382827758789
0.4152952194213867,0.4899124145507812
0.4152952194213867,0.4899124145507812
0.4344142913818359,0.4836439132690429
0.4344142913818359,0.4836439132690429
0.4327949523925781,0.5025564193725586
0.4327949523925781,0.5025564193725586
0.4201229095458984,0.4755575180053710
0.4201229095458984,0.4755575180053710
0.4425006866455078,0.4997468948364258
0.4425006866455078,0.4997468948364258
0.4149461746215820,0.4896348953247070
0.4149461746215820,0.4896348953247070
0.4347061157226562,0.4842287063598633
0.4347061157226562,0.4842287063598633
0.4329872131347656,0.5030954360961913
0.4329872131347656,0.5030954360961913
0.4208187103271484,0.4762046813964844
0.4208187103271484,0.4762046813964844
0.4427850723266601,0.5005451202392578
0.4427850723266601,0.5005451202392578
0.4155069351196289,0.4908102035522461
0.4155069351196289,0.4908102035522461
0.4355215072631836,0.4853038787841797
0.4355215072631836,0.4853038787841797
0.4339410781860352,0.5042787551879883
0.4339410781860352,0.5042787551879883
0.4214023590087890,0.4774097442626953
0.4214023590087890,0.4774097442626953
0.4436994552612304,0.5021015167236328
0.4436994552612304,0.5021015167236328
0.4164482116699219,0.4921051025390625
0.4164482116699219,0.4921051025390625
0.4366355895996094,0.4867441177368164
0.4366355895996094,0.4867441177368164
0.4343667984008789,0.5053070068359374
0.4343667984008789,0.5053070068359374
0.4221376419067382,0.4789300918579101
0.4221376419067382,0.4789300918579101
0.4442756652832031,0.5035114288330078
0.4442756652832031,0.5035114288330078
0.4176280975341797,0.4933782577514648
0.4176280975341797,0.4933782577514648
0.4372529983520508,0.4878816604614258
0.4372529983520508,0.4878816604614258
0.4351850509643554,0.5067123413085938
0.4351850509643554,0.5067123413085938
0.4230737686157227,0.4804636001586914
0.4230737686157227,0.4804636001586914
0.4454006195068359,0.5046907424926758
0.4454006195068359,0.5046907424926758
0.4180423736572266,0.4941112518310546
0.4180423736572266,0.4941112518310546
0.4378475189208984,0.4894912719726562
0.4378475189208984,0.4894912719726562
0.4360376358032226,0.5080169677734375
0.4360376358032226,0.5080169677734375
0.4241168975830078,0.4814409255981445
0.4241168975830078,0.4814409255981445
0.4457033157348633,0.5058883666992188
0.4457033157348633,0.5058883666992188
0.4190002441406250,0.4956556320190429
0.4190002441406250,0.4956556320190429
0.4386343002319336,0.4906534194946289
0.4386343002319336,0.4906534194946289
0.4368936538696289,0.5090938568115234
0.4368936538696289,0.5090938568115234
0.4247291564941406,0.4823822021484375
0.4247291564941406,0.4823822021484375
0.4466754913330078,0.5076593399047852
0.4466754913330078,0.5076593399047852
0.4195781707763672,0.4968252182006836
0.4195781707763672,0.4968252182006836
0.4397586822509765,0.4922018051147461
0.4397586822509765,0.4922018051147461
0.4373313903808594,0.5101501464843750
0.4373313903808594,0.5101501464843750
0.4256710052490234,0.4836450576782226
0.4256710052490234,0.4836450576782226
0.4472963333129883,0.5089582443237305
0.4472963333129883,0.5089582443237305
0.4207363128662109,0.4978048324584960
0.4207363128662109,0.4978048324584960
0.4405740737915039,0.4930458068847656
0.4405740737915039,0.4930458068847656
0.4378423690795898,0.5118129730224609
0.4378423690795898,0.5118129730224609
0.4261213302612304,0.4847385406494140
0.4261213302612304,0.4847385406494140
0.4488183975219727,0.5099996566772461
0.4488183975219727,0.5099996566772461
0.4209915161132812,0.4984451293945312
0.4209915161132812,0.4984451293945312
0.4415954589843750,0.4947538375854492
0.4415954589843750,0.4947538375854492
0.4390113830566406,0.5128995895385742
0.4488573074340820,0.5128995895385742
0.4273435592651367,0.4867795944213867
0.4273435592651367,0.4867795944213867
0.4490512847900390,0.5111337661743164
0.4490512847900390,0.5111337661743164
0.4222131729125976,0.5003213882446289
0.4222131729125976,0.5003213882446289
0.4421150207519531,0.4960573196411133
0.4421150207519531,0.4960573196411133
0.4401323318481445,0.5143163681030273
0.4401323318481445,0.5143163681030273
0.4277040481567383,0.4874044418334961
0.4277040481567383,0.4874044418334961
0.4496543884277344,0.5124572753906250
0.4496543884277344,0.5124572753906250
0.4225027084350586,0.5007648468017578
0.4225027084350586,0.5007648468017578
0.4425247192382812,0.4962747573852539
0.4425247192382812,0.4962747573852539
0.4394817352294922,0.5135787963867188
0.4394817352294922,0.5135787963867188
0.4272766113281250,0.4864849090576172
0.4272766113281250,0.4864849090576172
0.4486513137817383,0.5107366561889648
0.4486513137817383,0.5107366561889648
0.4218292236328125,0.4983564376831054
0.4218292236328125,0.4983564376831054
0.4409557342529297,0.4935419082641601
0.4409557342529297,0.4935419082641601
0.4375762939453125,0.5110530853271484
0.4375762939453125,0.5110530853271484
0.4252859115600586,0.4836336135864258
0.4252859115600586,0.4836336135864258
0.4474376678466797,0.5077325820922851
0.4474376678466797,0.5077325820922851
0.4191106796264648,0.4955720901489258
0.4191106796264648,0.4955720901489258
0.4388420104980469,0.4907981872558593
0.4388420104980469,0.4907981872558593
0.4358831405639648,0.5084524154663086
0.4358831405639648,0.5084524154663086
0.4239675521850586,0.4810043334960937
0.4239675521850586,0.4810043334960937
0.4453325271606445,0.5055021286010742
0.4453325271606445,0.5055021286010742
0.4179777145385742,0.4931018829345703
0.4179777145385742,0.4931018829345703
0.4378887176513672,0.4889797210693359
0.4378887176513672,0.4889797210693359
0.4347770690917969,0.5066350936889649
0.4347770690917969,0.5066350936889649
0.4229043960571289,0.4793466567993164
0.4229043960571289,0.4793466567993164
0.4445703506469726,0.5042329788208008
0.4445703506469726,0.5042329788208008
0.4171125411987305,0.4917989730834961
0.4171125411987305,0.4917989730834961
0.4375928878784179,0.4881380081176758
0.4375928878784179,0.4881380081176758
0.4340188980102539,0.5056606292724609
0.4340188980102539,0.5056606292724609
0.4225330352783203,0.4789272308349609
0.4225330352783203,0.4789272308349609
0.4443529129028320,0.5040664672851562
0.4443529129028320,0.5040664672851562
0.4174804687500000,0.4918018341064453
0.4174804687500000,0.4918018341064453
0.4374286651611328,0.4879514694213867
0.4374286651611328,0.4879514694213867
0.4341527938842774,0.5062631607055664
0.4341527938842774,0.5062631607055664
0.4229404449462891,0.4794496536254882
0.4229404449462891,0.4794496536254882
0.4450487136840820,0.5046861648559570
0.4450487136840820,0.5046861648559570
0.4175233840942383,0.4922344207763671
0.4175233840942383,0.4922344207763671
0.4380489349365234,0.4890352249145508
0.4380489349365234,0.4890352249145508
0.4345104217529297,0.5071231842041015
0.4345104217529297,0.5071231842041015
0.4239063262939453,0.4803800582885742
0.4239063262939453,0.4803800582885742
0.4453840255737305,0.5059925079345703
0.4453840255737305,0.5059925079345703
0.4185213088989257,0.4931751251220703
0.4185213088989257,0.4931751251220703
0.4389547348022461,0.4902683258056640
0.4389547348022461,0.4902683258056640
0.4355123519897461,0.5081892013549805
0.4355123519897461,0.5081892013549805
0.4240974426269531,0.4813476562500000
0.4240974426269531,0.4813476562500000
0.4461553573608398,0.5065132141113281
0.4461553573608398,0.5065132141113281
0.4189275741577148,0.4935625076293945
0.4189275741577148,0.4935625076293945
0.4393232345581055,0.4910373687744141
0.4393232345581055,0.4910373687744141
0.4356342315673828,0.5080324172973633
0.4461101531982422,0.5080324172973633
0.4242856979370117,0.4819021224975586
0.4242856979370117,0.4819021224975586
0.4310606002807617,0.4840112686157226
0.4310606002807617,0.4847465515136719
0.4310606002807617,0.4847465515136719
0.4426820755004883,0.5102273941040039
0.4426820755004883,0.5102273941040039
0.4209463119506836,0.4839883804321289
0.4209463119506836,0.4839883804321289
0.4454973220825195,0.4996536254882812
0.4454973220825195,0.4996536254882812
0.4265132904052734,0.5038908004760742
0.4265132904052734,0.5038908004760742
0.4315732955932617,0.4855699539184570
0.4315732955932617,0.4855699539184570
0.4435747146606445,0.5107543945312499
0.4435747146606445,0.5107543945312499
0.4214664459228515,0.4849262237548828
0.4214664459228515,0.4849262237548828
0.4460414886474609,0.5005737304687500
0.4460414886474609,0.5005737304687500
0.4271942138671875,0.5050724029541015
0.4271942138671875,0.5050724029541015
0.4323869705200195,0.4864757537841797
0.4323869705200195,0.4864757537841797
0.4436662673950195,0.5123668670654297
0.4436662673950195,0.5123668670654297
0.4222063064575195,0.4853382110595703
0.4222063064575195,0.4853382110595703
0.4470142364501953,0.5019533157348632
0.4470142364501953,0.5019533157348632
0.4277709960937500,0.5059438705444336
0.4277709960937500,0.5059438705444336
0.4330055236816406,0.4883869171142578
0.4330055236816406,0.4883869171142578
0.4449033737182617,0.5133579254150390
0.4449033737182617,0.5133579254150390
0.4229576110839844,0.4872425079345703
0.4229576110839844,0.4872425079345703
0.4475858688354492,0.5033357620239257
0.4475858688354492,0.5033357620239257
0.4282871246337890,0.5073921203613281
0.4282871246337890,0.5073921203613281
0.4338958740234375,0.4896011352539062
0.4338958740234375,0.4896011352539062
0.4457548141479492,0.5146350860595703
0.4457548141479492,0.5146350860595703
0.4238525390625000,0.4886753082275390
0.4238525390625000,0.4886753082275390
0.4485082626342773,0.5050489425659179
0.4485082626342773,0.5050489425659179
0.4293783187866211,0.5091150283813476
0.4293783187866211,0.5091150283813476
0.4349962234497070,0.4910528182983398
0.4349962234497070,0.4910528182983398
0.4465656280517578,0.5168111801147460
0.4465656280517578,0.5168111801147460
0.4247108459472656,0.4895158767700195
0.4247108459472656,0.4895158767700195
0.4494335174560547,0.5060703277587890
0.4494335174560547,0.5060703277587890
0.4294721603393555,0.5088151931762696
0.4294721603393555,0.5088151931762696
0.4347707748413086,0.4904531478881836
0.4347707748413086,0.4904531478881836
0.4452604293823242,0.5147661209106446
0.4452604293823242,0.5147661209106446
0.4230806350708008,0.4869712829589843
0.4230806350708008,0.4869712829589843
0.4468397140502929,0.5025833129882812
0.4468397140502929,0.5025833129882812
0.4267066955566406,0.5044034957885742
0.4267066955566406,0.5044034957885742
0.4316116333007812,0.4856969833374023
0.4316116333007812,0.4856969833374023
0.4419822692871094,0.5095590591430664
0.4419822692871094,0.5095590591430664
0.4198654174804687,0.4813001632690430
0.4198654174804687,0.4813001632690430
0.4433532714843750,0.4972795486450195
0.4433532714843750,0.4972795486450195
0.4234594345092773,0.4993537902832031
0.4234594345092773,0.4993537902832031
0.4288702011108398,0.4810758590698242
0.4288702011108398,0.4810758590698242
0.4393672943115234,0.5053293228149414
0.4393672943115234,0.5053293228149414
0.4172687530517578,0.4776466369628906
0.4172687530517578,0.4776466369628906
0.4412950515747070,0.4943475723266602
0.4412950515747070,0.4943475723266602
0.4216913223266601,0.4965934753417969
0.4216913223266601,0.4965934753417969
0.4275609970092774,0.4788419723510742
0.4275609970092774,0.4788419723510742
0.4383481979370117,0.5034833908081054
0.4383481979370117,0.5034833908081054
0.4164705276489258,0.4763929367065429
0.4164705276489258,0.4763929367065429
0.4407754898071289,0.4933794021606445
0.4407754898071289,0.4933794021606445
0.4211236953735352,0.4960000991821289
0.4211236953735352,0.4960000991821289
0.4274791717529297,0.4788156509399414
0.4122917175292969,0.4788156509399414
0.4381633758544922,0.5036624908447266
0.4381633758544922,0.5036624908447266
0.4167995452880859,0.4769468307495117
0.4167995452880859,0.4769468307495117
0.4411542892456055,0.4941244125366211
0.4411542892456055,0.4941244125366211
0.4217239379882812,0.4969036102294921
0.4217239379882812,0.4969036102294921
0.4280124664306640,0.4797208786010742
0.4280124664306640,0.4797208786010742
0.4390811920166016,0.5045814514160156
0.4390811920166016,0.5045814514160156
0.4173986434936524,0.4777976989746093
0.4173986434936524,0.4777976989746093
0.4416046142578125,0.4953054428100586
0.4416046142578125,0.4953054428100586
0.4221891403198242,0.4973934173583984
0.4221891403198242,0.4973934173583984
0.4289600372314453,0.4804012298583984
0.4289600372314453,0.4804012298583984
0.4390359878540039,0.5056228637695312
0.4390359878540039,0.5056228637695312
0.4176052093505859,0.4784591674804687
0.4176052093505859,0.4784591674804687
0.4421459197998047,0.4957838058471680
0.4421459197998047,0.4957838058471680
0.4223356246948242,0.4980377197265625
0.4223356246948242,0.4980377197265625
0.4295728683471680,0.4815690994262695
0.4295728683471680,0.4815690994262695
0.4394931793212891,0.5061515808105469
0.4394931793212891,0.5061515808105469
0.4181390762329101,0.4790885925292969
0.4181390762329101,0.4790885925292969
0.4428657531738281,0.4969316482543945
0.4428657531738281,0.4969316482543945
0.4228466033935547,0.4990854263305664
0.4228466033935547,0.4990854263305664
0.4297777175903320,0.4826683044433593
0.4297777175903320,0.4826683044433593
0.4400722503662109,0.5072690963745117
0.4400722503662109,0.5072690963745117
0.4189247131347656,0.4801162719726562
0.4189247131347656,0.4801162719726562
0.4433687210083008,0.4980457305908203
0.4433687210083008,0.4980457305908203
0.4234989166259766,0.5002532958984375
0.4234989166259766,0.5002532958984375
0.4305387496948242,0.4840999603271484
0.4305387496948242,0.4840999603271484
0.4409030914306640,0.5085113525390624
0.4409030914306640,0.5085113525390624
0.4197475433349609,0.4815107345581054
0.4197475433349609,0.4815107345581054
0.4442419052124023,0.4994625091552734
0.4442419052124023,0.4994625091552734
0.4240196228027344,0.5014709472656250
0.4240196228027344,0.5014709472656250
0.4314205169677734,0.4854949951171875
0.4314205169677734,0.4854949951171875
0.4416681289672851,0.5098880767822266
0.4416681289672851,0.5098880767822266
0.4204805374145508,0.4827409744262695
0.4204805374145508,0.4827409744262695
0.4451545715332031,0.5010915756225586
0.4451545715332031,0.5010915756225586
0.4250867843627930,0.5027154922485352
0.4250867843627930,0.5027154922485352
0.4324058532714843,0.4870897293090820
0.4324058532714843,0.4870897293090820
0.4425750732421875,0.5112419128417969
0.4425750732421875,0.5112419128417969
0.4214241027832031,0.4842950820922851
0.4214241027832031,0.4842950820922851
0.4460723876953125,0.5025815963745117
0.4460723876953125,0.5025815963745117
0.4257837295532226,0.5042049407958984
0.4257837295532226,0.5042049407958984
0.4334072113037109,0.4887393951416015
0.4334072113037109,0.4887393951416015
0.4434116363525391,0.5127714157104492
0.4434116363525391,0.5127714157104492
0.4222875595092773,0.4854692459106445
0.4222875595092773,0.4854692459106445
0.4470897674560547,0.5041494369506836
0.4470897674560547,0.5041494369506836
0.4265670776367188,0.5055490493774414
0.4265670776367188,0.5055490493774414
0.4343851089477539,0.4901424407958984
0.4343851089477539,0.4901424407958984
0.4441217422485351,0.5141841888427734
0.4441217422485351,0.5141841888427734
0.4231035232543945,0.4867721557617187
0.4231035232543945,0.4867721557617187
0.4478204727172851,0.5054723739624023
0.4256727218627930,0.5054723739624023
0.4270202636718750,0.5069206237792968
0.4503067016601562,0.5069206237792968
0.4192932128906250,0.4910476684570312
0.4192932128906250,0.4910476684570312
0.4445096969604492,0.5145526885986328
0.4432851791381836,0.5145526885986328
0.4230989456176757,0.4865060806274414
0.4230989456176757,0.4865060806274414
0.4474033355712890,0.5048515319824218
0.4474033355712890,0.5048515319824218
0.4260852813720703,0.5053630828857422
0.4260852813720703,0.5053630828857422
0.4337259292602539,0.4892423629760742
0.4337259292602539,0.4892423629760742
0.4428234100341797,0.5120161056518554
0.4428234100341797,0.5120161056518554
0.4211139678955078,0.4835689544677734
0.4211139678955078,0.4835689544677734
0.4453205108642578,0.5013542175292969
0.4453205108642578,0.5013542175292969
0.4236207962036133,0.5013462066650390
0.4236207962036133,0.5013462066650390
0.4312911987304687,0.4851911544799805
0.4312911987304687,0.4851911544799805
0.4402730941772461,0.5080106735229492
0.4402730941772461,0.5080106735229492
0.4184389114379883,0.4790971755981445
0.4184389114379883,0.4790971755981445
0.4426786422729492,0.4970758438110351
0.4426786422729492,0.4970758438110351
0.4206716537475586,0.4970849990844726
0.4206716537475586,0.4970849990844726
0.4287809371948242,0.4811742782592773
0.4287809371948242,0.4811742782592773
0.4377399444580078,0.5041471481323242
0.4377399444580078,0.5041471481323242
0.4165735244750977,0.4760908126831054
0.4165735244750977,0.4760908126831054
0.4411502838134765,0.4944002151489257
0.4411502838134765,0.4944002151489257
0.4192926406860352,0.4949661254882812
0.4192926406860352,0.4949661254882812
0.4278877258300781,0.4796539306640625
0.4278877258300781,0.4796539306640625
0.4370859146118164,0.5032018661499024
0.4370859146118164,0.5032018661499024
0.4162073135375977,0.4754116058349609
0.4162073135375977,0.4754116058349609
0.4408927917480469,0.4946434020996093
0.4408927917480469,0.4946434020996093
0.4196308135986328,0.4952379226684570
0.4196308135986328,0.4952379226684570
0.4284610748291016,0.4806358337402343
0.4284610748291016,0.4806358337402343
0.4376031875610352,0.5040195465087890
0.4376031875610352,0.5040195465087890
0.4168573379516601,0.4765560150146484
0.4168573379516601,0.4765560150146484
0.4418191909790039,0.4957363128662109
0.4418191909790039,0.4957363128662109
0.4200616836547851,0.4960264205932617
0.4200616836547851,0.4960264205932617
0.4288913726806641,0.4813745498657226
0.4288913726806641,0.4813745498657226
0.4379590988159179,0.5049448013305664
0.4379590988159179,0.5049448013305664
0.4171010971069336,0.4768449783325195
0.4171010971069336,0.4768449783325195
0.4421482086181641,0.4962295532226562
0.4421482086181641,0.4962295532226562
0.4202293395996093,0.4964761734008789
0.4202293395996093,0.4964761734008789
0.4293079376220703,0.4820331573486328
0.4293079376220703,0.4820331573486328
0.4384637832641601,0.5053287506103515
0.4384637832641601,0.5053287506103515
0.4175474166870117,0.4775550842285156
0.4175474166870117,0.4775550842285156
0.4428085327148437,0.4969797134399414
0.4428085327148437,0.4969797134399414
0.4204736709594726,0.4974071502685546
0.4204736709594726,0.4974071502685546
0.4299991607666016,0.4830362319946289
0.4299991607666016,0.4830362319946289
0.4389925003051758,0.5064182281494141
0.4389925003051758,0.5064182281494141
0.4182523727416992,0.4786428451538086
0.4182523727416992,0.4786428451538086
0.4435323715209961,0.4984937667846679
0.4435323715209961,0.4984937667846679
0.4212598800659180,0.4985481262207031
0.4212598800659180,0.4985481262207031
0.4309919357299805,0.4844696044921875
0.4309919357299805,0.4844696044921875
0.4395023345947265,0.5075597763061523
0.4395023345947265,0.5075597763061523
0.4189693450927734,0.4796951293945312
0.4189693450927734,0.4796951293945312
0.4439970016479492,0.4991003036499023
0.4439970016479492,0.4991003036499023
0.4213491439819336,0.4988891601562500
0.4213491439819336,0.4988891601562500
0.4165420532226562,0.4894701004028320
0.4165420532226562,0.4894701004028320
0.4399852752685547,0.4909498214721679
0.4399852752685547,0.4909498214721679
0.4322725296020508,0.5055776596069336
0.4322725296020508,0.5055776596069336
0.4242925643920898,0.4815788269042969
0.4210687637329101,0.4815788269042969
0.4442098617553711,0.5069028854370117
0.4442098617553711,0.5069028854370117
0.4168624877929688,0.4898609161376953
0.4168624877929688,0.4898609161376953
0.4405431747436523,0.4916301727294922
0.4405431747436523,0.4916301727294922
0.4322725296020508,0.5059873580932617
0.4322725296020508,0.5059873580932617
0.4249013900756836,0.4828193664550781
0.4249013900756836,0.4828193664550781
0.4445394515991211,0.5079208374023437
0.4445394515991211,0.5079208374023437
0.4176240921020508,0.4907300949096680
0.4176240921020508,0.4907300949096680
0.4410312652587891,0.4924089431762695
0.4410312652587891,0.4924089431762695
0.4327703475952148,0.5070436477661132
0.4327703475952148,0.5070436477661132
0.4255599975585938,0.4837005615234375
0.4255599975585938,0.4837005615234375
0.4454595565795899,0.5088592529296875
0.4454595565795899,0.5088592529296875
0.4179553985595703,0.4915540695190430
0.4179553985595703,0.4915540695190430
0.4417551040649414,0.4937730789184570
0.4417551040649414,0.4937730789184570
0.4333517074584961,0.5080404281616211
0.4333517074584961,0.5080404281616211
0.4265802383422851,0.4849170684814453
0.4265802383422851,0.4849170684814453
0.4457233428955078,0.5097301483154296
0.4457233428955078,0.5097301483154296
0.4187461853027344,0.4928094863891601
0.4187461853027344,0.4928094863891601
0.4424016952514648,0.4948173522949219
0.4424016952514648,0.4948173522949219
0.4340320587158203,0.5086097717285156
0.4340320587158203,0.5086097717285156
0.4266317367553711,0.4849422454833984
0.4266317367553711,0.4849422454833984
0.4452816009521484,0.5092283248901367
0.4452816009521484,0.5092283248901367
0.4175846099853516,0.4909944534301758
0.4175846099853516,0.4909944534301758
0.4413402557373047,0.4923694610595703
0.4413402557373047,0.4923694610595703
0.4316333770751953,0.5052474975585938
0.4316333770751953,0.5052474975585938
0.4244968414306641,0.4817819595336914
0.4244968414306641,0.4817819595336914
0.4431976318359375,0.5057716369628906
0.4431976318359375,0.5057716369628906
0.4158634185791015,0.4878004074096680
0.4158634185791015,0.4878004074096680
0.4392442703247070,0.4892148971557617
0.4392442703247070,0.4892148971557617
0.4298154830932617,0.5027629852294921
0.4298154830932617,0.5027629852294921
0.4227659225463867,0.4795291900634766
0.4227659225463867,0.4795291900634766
0.4419387817382812,0.5036905288696288
0.4419387817382812,0.5036905288696288
0.4143796920776367,0.4854755401611328
0.4143796920776367,0.4854755401611328
0.4382326126098633,0.4877225875854492
0.4382326126098633,0.4877225875854492
0.4287168502807617,0.5011510848999023
0.4287168502807617,0.5011510848999023
0.4224357604980469,0.4779830932617187
0.4224357604980469,0.4779830932617187
0.4410037994384766,0.5021329879760742
0.4410037994384766,0.5021329879760742
0.4390628814697266,0.4847419738769531
0.4390628814697266,0.4847419738769531
0.4378017425537109,0.4872739791870117
0.4162942886352539,0.4872739791870117
0.4285932540893554,0.5007820129394531
0.4285932540893554,0.5007820129394531
0.4220987319946289,0.4779401779174804
0.4220987319946289,0.4779401779174804
0.4411222457885742,0.5029106140136719
0.4411222457885742,0.5029106140136719
0.4142480850219726,0.4854360580444336
0.4142480850219726,0.4854360580444336
0.4388488769531250,0.4884292602539062
0.4388488769531250,0.4884292602539062
0.4288908004760742,0.5016317367553711
0.4288908004760742,0.5016317367553711
0.4231876373291015,0.4794158935546875
0.4231876373291015,0.4794158935546875
0.4419445037841797,0.5039834976196289
0.4419445037841797,0.5039834976196289
0.4152156829833984,0.4865278244018554
0.4152156829833984,0.4865278244018554
0.4393604278564453,0.4894020080566406
0.4393604278564453,0.4894020080566406
0.4293176651000977,0.5029243469238281
0.4293176651000977,0.5029243469238281
0.4235361099243164,0.4805643081665039
0.4235361099243164,0.4805643081665039
0.4428314208984375,0.5051073074340821
0.4428314208984375,0.5051073074340821
0.4155527114868164,0.4872762680053710
0.4155527114868164,0.4872762680053710
0.4400024414062500,0.4905052185058594
0.4400024414062500,0.4905052185058594
0.4298252105712890,0.5038805007934570
0.4298252105712890,0.5038805007934570
0.4246118545532226,0.4816091537475586
0.4246118545532226,0.4816091537475586
0.4430562973022461,0.5060205459594727
0.4430562973022461,0.5060205459594727
0.4162107467651367,0.4885414123535156
0.4162107467651367,0.4885414123535156
0.4406993865966797,0.4918407440185547
0.4406993865966797,0.4918407440185547
0.4307287216186523,0.5050477981567383
0.4307287216186523,0.5050477981567383
0.4250003814697266,0.4825487136840820
0.4250003814697266,0.4825487136840820
0.4437023162841797,0.5073085784912109
0.4437023162841797,0.5073085784912109
0.4168184280395508,0.4896474838256836
0.4168184280395508,0.4896474838256836
0.4416257858276367,0.4930103302001953
0.4416257858276367,0.4930103302001953
0.4310457229614258,0.5059667587280273
0.4310457229614258,0.5059667587280273
0.4257705688476562,0.4841983795166016
0.4257705688476562,0.4841983795166016
0.4444622039794922,0.5087934494018554
0.4444622039794922,0.5087934494018554
0.4178318023681640,0.4908857345581055
0.4178318023681640,0.4908857345581055
0.4424571990966797,0.4944002151489257
0.4424571990966797,0.4944002151489257
0.4319452285766601,0.5076581954956054
0.4319452285766601,0.5076581954956054
0.4269733428955078,0.4857089996337891
0.4269733428955078,0.4857089996337891
0.4458309173583984,0.5100894927978515
0.4458309173583984,0.5100894927978515
0.4186534881591797,0.4922773361206054
0.4186534881591797,0.4922773361206054
0.4433658599853516,0.4960378646850586
0.4433658599853516,0.4960378646850586
0.4324928283691406,0.5088123321533203
0.4324928283691406,0.5088123321533203
0.4279598236083984,0.4868854522705078
0.4279598236083984,0.4868854522705078
0.4459728240966797,0.5107995986938476
0.4459728240966797,0.5107995986938476
0.4192285537719727,0.4930366516113281
0.4192285537719727,0.4930366516113281
0.4437669754028320,0.4967067718505859
0.4437669754028320,0.4967067718505859
0.4330169677734375,0.5094154357910156
0.4330169677734375,0.5094154357910156
0.4280588150024414,0.4871000289916992
0.4280588150024414,0.4871000289916992
0.4462903976440429,0.5116521835327148
0.4462903976440429,0.5116521835327148
0.4193910598754882,0.4936906814575195
0.4193910598754882,0.4936906814575195
0.4445823669433593,0.4974117279052734
0.4445823669433593,0.4974117279052734
0.4329820632934570,0.5098068237304687
0.4329820632934570,0.5098068237304687
0.4285097122192383,0.4882072448730468
0.4285097122192383,0.4882072448730468
0.4469552993774414,0.5123983383178711
0.4469552993774414,0.5123983383178711
0.4202814102172852,0.4944087982177734
0.4202814102172852,0.4944087982177734
0.4448593139648437,0.4980514526367187
0.4448593139648437,0.4980514526367187
0.4333219528198242,0.5104299545288086
0.4333219528198242,0.5104299545288086
0.4284090042114257,0.4881334304809570
0.4284090042114257,0.4881334304809570
0.4465908050537109,0.5112287521362304
0.4465908050537109,0.5112287521362304
0.4184623718261719,0.4916828155517578
0.4184623718261719,0.4916828155517578
0.4427776336669922,0.4944568634033203
0.4427776336669922,0.4944568634033203
0.4302703857421875,0.5056108474731446
0.4302703857421875,0.5056108474731446
0.4254409790039063,0.4824560165405273
0.4254409790039063,0.4824560165405273
0.4426179885864258,0.5050586700439453
0.4426179885864258,0.5050586700439453
0.4148632049560547,0.4859069824218750
0.4148632049560547,0.4859069824218750
0.4391115188598633,0.4888498306274414
0.4391115188598633,0.4888498306274414
0.4268600463867188,0.5000501632690429
0.4268600463867188,0.5000501632690429
0.4220260620117187,0.4771699905395508
0.4220260620117187,0.4771699905395508
0.4395200729370117,0.5006515502929687
0.4395200729370117,0.5006515502929687
0.4123443603515625,0.4814695358276367
0.4372209548950195,0.4851202011108398
0.4243726730346680,0.4964166641235351
0.4243726730346680,0.4964166641235351
0.4201715469360351,0.4741121292114258
0.4201715469360351,0.4741121292114258
0.4377513885498047,0.4977910995483398
0.4377513885498047,0.4977910995483398
0.4112537384033203,0.4792139053344726
0.4112537384033203,0.4792139053344726
0.4356657028198242,0.4832279205322265
0.4356657028198242,0.4832279205322265
0.4233037948608399,0.4950639724731445
0.4233037948608399,0.4950639724731445
0.4197360992431641,0.4731817245483398
0.4197360992431641,0.4731817245483398
0.4374549865722656,0.4970111846923828
0.4374549865722656,0.4970111846923828
0.4104772567749023,0.4780826568603516
0.4104772567749023,0.4780826568603516
0.4352703094482422,0.4828319549560547
0.4352703094482422,0.4828319549560547
0.4227493286132812,0.4943326950073242
0.4227493286132812,0.4943326950073242
0.4195129394531250,0.4725317001342773
0.4195129394531250,0.4725317001342773
0.4368541717529297,0.4960939407348632
0.4368541717529297,0.4960939407348632
0.4101253509521484,0.4777725219726562
0.4101253509521484,0.4777725219726562
0.4353824615478515,0.4825567245483398
0.4353824615478515,0.4825567245483398
0.4229541778564453,0.4943979263305664
0.4229541778564453,0.4943979263305664
0.4195112228393554,0.4727359771728515
0.4195112228393554,0.4727359771728515
0.4371929168701172,0.4969997406005859
0.4371929168701172,0.4969997406005859
0.4106460571289062,0.4787567138671875
0.4106460571289062,0.4787567138671875
0.4362854003906250,0.4836256027221679
0.4362854003906250,0.4836256027221679
0.4231727600097656,0.4953231811523438
0.4231727600097656,0.4953231811523438
0.4202138900756836,0.4741670608520507
0.4202138900756836,0.4741670608520507
0.4379362106323242,0.4984354019165039
0.4379362106323242,0.4984354019165039
0.4118219375610351,0.4797449111938477
0.4118219375610351,0.4797449111938477
0.4366876602172852,0.4847705841064453
0.4366876602172852,0.4847705841064453
0.4238348007202148,0.4965660095214843
0.4238348007202148,0.4965660095214843
0.4209789276123047,0.4749361038208008
0.4209789276123047,0.4749361038208008
0.4386480331420898,0.4990556716918945
0.4386480331420898,0.4990556716918945
0.4117635726928711,0.4798576354980468
0.4117635726928711,0.4798576354980468
0.4369028091430664,0.4851373672485351
0.4369028091430664,0.4851373672485351
0.4236116409301758,0.4965328216552734
0.4236116409301758,0.4965328216552734
0.4211757659912109,0.4747867584228516
0.4211757659912109,0.4747867584228516
0.4383550643920898,0.4984960556030273
0.4383550643920898,0.4984960556030273
0.4116485595703125,0.4798147201538085
0.4116485595703125,0.4798147201538085
0.4370218276977539,0.4851362228393554
0.4370218276977539,0.4851362228393554
0.4238067626953125,0.4965225219726562
0.4238067626953125,0.4965225219726562
0.4208021163940430,0.4744640350341797
0.4208021163940430,0.4744640350341797
0.4383665084838867,0.4990516662597656
0.4383665084838867,0.4990516662597656
0.4119106292724609,0.4799943923950195
0.4119106292724609,0.4799943923950195
0.4374784469604492,0.4854537963867187
0.4374784469604492,0.4854537963867187
0.4236282348632812,0.4965677261352539
0.4236282348632812,0.4965677261352539
0.4213388442993164,0.4751981735229492
0.4213388442993164,0.4751981735229492
0.4297531127929687,0.4791475296020508
0.4106924057006836,0.4791475296020508
0.4330896377563476,0.5008804321289062
0.4378904342651367,0.5008804321289062
0.4155441284179687,0.4736000061035156
0.4155441284179687,0.4736000061035156
0.4404104232788086,0.4946142196655273
0.4404104232788086,0.4946142196655273
0.4136054992675781,0.4904577255249023
0.4136054992675781,0.4904577255249023
0.4301908493041992,0.4797557830810547
0.4301908493041992,0.4797557830810547
0.4333276748657227,0.5011562347412110
0.4333276748657227,0.5011562347412110
0.4156499862670898,0.4738855361938477
0.4237581253051758,0.4738855361938477
0.4404201507568359,0.4947744369506836
0.4404201507568359,0.4947744369506836
0.4137485504150391,0.4903226852416992
0.4137485504150391,0.4903226852416992
0.4302131652832031,0.4798908233642578
0.4302131652832031,0.4798908233642578
0.4331966400146484,0.5014011383056640
0.4331966400146484,0.5014011383056640
0.4158885955810547,0.4742197036743164
0.4158885955810547,0.4742197036743164
0.4408681869506836,0.4952207565307617
0.4408681869506836,0.4952207565307617
0.4137651443481445,0.4909235000610351
0.4137651443481445,0.4909235000610351
0.4307561874389648,0.4808464050292969
0.4307561874389648,0.4808464050292969
0.4337007522583008,0.5020769119262695
0.4337007522583008,0.5020769119262695
0.4164579391479492,0.4753068923950195
0.4164579391479492,0.4753068923950195
0.4412755966186523,0.4961574554443359
0.4412755966186523,0.4961574554443359
0.4143442153930664,0.4917285919189453
0.4143442153930664,0.4917285919189453
0.4312459945678711,0.4813299179077148
0.4312459945678711,0.4813299179077148
0.4340234756469726,0.5025993347167969
0.4340234756469726,0.5025993347167969
0.4166416168212890,0.4753406524658203
0.4166416168212890,0.4753406524658203
0.4413265228271484,0.4962970733642578
0.4413265228271484,0.4962970733642578
0.4142452239990234,0.4916868209838867
0.4142452239990234,0.4916868209838867
0.4312889099121094,0.4812412261962891
0.4312889099121094,0.4812412261962891
0.4337505340576172,0.5023029327392577
0.4337505340576172,0.5023029327392577
0.4167486190795898,0.4753131866455078
0.4167486190795898,0.4753131866455078
0.4412744522094726,0.4964624404907226
0.4412744522094726,0.4964624404907226
0.4143470764160156,0.4914733886718750
0.4143470764160156,0.4914733886718750
0.4314376831054688,0.4816492080688476
0.4314376831054688,0.4816492080688476
0.4339004516601562,0.5028848648071289
0.4339004516601562,0.5028848648071289
0.4170679092407226,0.4759237289428710
0.4170679092407226,0.4759237289428710
0.4417636871337891,0.4973854064941406
0.4417636871337891,0.4973854064941406
0.4145994186401367,0.4923751831054687
0.4145994186401367,0.4923751831054687
0.4322278976440430,0.4827226638793945
0.4322278976440430,0.4827226638793945
0.4344966888427734,0.5038307189941406
0.4344966888427734,0.5038307189941406
0.4178730010986328,0.4770738601684570
0.4178730010986328,0.4770738601684570
0.4421115875244140,0.4981069564819336
0.4421115875244140,0.4981069564819336
0.4153221130371094,0.4934103012084960
0.4153221130371094,0.4934103012084960
0.4327611923217773,0.4837726593017578
0.4327611923217773,0.4837726593017578
0.4349132537841797,0.5046483993530273
0.4349132537841797,0.5046483993530273
0.4185167312622070,0.4780963897705078
0.4185167312622070,0.4780963897705078
0.4428674697875977,0.4994899749755859
0.4428674697875977,0.4994899749755859
0.4160018920898437,0.4943973541259765
0.4160018920898437,0.4943973541259765
0.4335130691528320,0.4849416732788085
0.4335130691528320,0.4849416732788085
0.4354116439819336,0.5055644989013671
0.4354116439819336,0.5055644989013671
0.4192136764526367,0.4790485382080078
0.4192136764526367,0.4790485382080078
0.4432519912719726,0.5004587173461914
0.4432519912719726,0.5004587173461914
0.4163949966430664,0.4953992843627930
0.4163949966430664,0.4953992843627930
0.4340990066528320,0.4859344482421875
0.4340990066528320,0.4859344482421875
0.4361400604248047,0.5069171905517578
0.4361400604248047,0.5069171905517578
0.4200736999511719,0.4803606033325195
0.4200736999511719,0.4803606033325195
0.4443283081054688,0.5021604537963867
0.4443283081054688,0.5021604537963867
0.4171371459960938,0.4969453811645508
0.4171371459960938,0.4969453811645508
0.4351919174194336,0.4878044128417969
0.4351919174194336,0.4878044128417969
0.4370819091796875,0.5085353851318359
0.4370819091796875,0.5085353851318359
0.4211488723754883,0.4820131301879882
0.4211488723754883,0.4820131301879882
0.4452157974243164,0.5037946701049805
0.4452157974243164,0.5037946701049805
0.4182271957397461,0.4984771728515625
0.4182271957397461,0.4984771728515625
0.4363122940063476,0.4895204544067382
0.4170959472656250,0.4895204544067382
0.4379688262939453,0.5104007720947266
0.4379688262939453,0.5104007720947266
0.4221307754516602,0.4837440490722656
0.4221307754516602,0.4837440490722656
0.4462589263916015,0.4852289199829101
0.4286510467529297,0.4860729217529297
0.4198133468627930,0.4911426544189453
0.4198133468627930,0.4904090881347656
0.4297674179077148,0.5118638992309570
0.4473134994506836,0.5074367523193359
0.4457096099853515,0.4904857635498047
0.4385244369506836,0.4904857635498047
0.4385244369506836,0.4930263519287109
0.4463853836059570,0.4998756408691406
0.4463853836059570,0.5003602981567382
0.4463853836059570,0.4870445251464843
0.4244842529296875,0.4870445251464843
0.4309461593627930,0.4888755798339843
0.4309461593627930,0.4888755798339843
0.4309461593627930,0.4893138885498047
0.4466794967651367,0.5143798828125000
0.4466794967651367,0.5143798828125000
0.4220735549926758,0.4938177108764648
0.4220735549926758,0.4938177108764648
0.4476894378662109,0.5020700454711914
0.4476894378662109,0.5020700454711914
0.4317220687866211,0.5116373062133789
0.4317220687866211,0.5116373062133789
0.4318262100219726,0.4910608291625976
0.4318262100219726,0.4910608291625976
0.4475601196289062,0.5155042648315430
0.4475601196289062,0.5155042648315430
0.4234645843505859,0.4950965881347656
0.4234645843505859,0.4950965881347656
0.4480447769165039,0.5031005859375000
0.4480447769165039,0.5031005859375000
0.4322364807128906,0.5128223419189453
0.4322364807128906,0.5128223419189453
0.4327217102050781,0.4921274185180664
0.4327217102050781,0.4921274185180664
0.4482696533203125,0.5166669845581054
0.4482696533203125,0.5166669845581054
0.4237684249877929,0.4955085754394531
0.4440542221069336,0.4955085754394531
0.4486261367797851,0.5039405822753906
0.4486261367797851,0.5039405822753906
0.4325145721435547,0.5130392074584961
0.4325145721435547,0.5130392074584961
0.4329935073852539,0.4918298721313477
0.4329935073852539,0.4918298721313477
0.4472843170166015,0.5153760910034180
0.4472843170166015,0.5153760910034180
0.4227172851562500,0.4936408996582031
0.4227172851562500,0.4936408996582031
0.4469095230102539,0.5012706756591797
0.4469095230102539,0.5012706756591797
0.4306600570678711,0.5095762252807617
0.4306600570678711,0.5095762252807617
0.4303791046142578,0.4879623413085937
0.4303791046142578,0.4879623413085937
0.4447294235229492,0.5116659164428711
0.4447294235229492,0.5116659164428711
0.4201835632324218,0.4894752502441406
0.4201835632324218,0.4894752502441406
0.4449182510375976,0.4973985671997070
0.4449182510375976,0.4973985671997070
0.4278505325317383,0.5053573608398437
0.4278505325317383,0.5053573608398437
0.4280101776123047,0.4841011047363281
0.4280101776123047,0.4841011047363281
0.4425779342651367,0.5080066680908203
0.4425779342651367,0.5080066680908203
0.4184389114379883,0.4859098434448242
0.4184389114379883,0.4859098434448242
0.4424966812133789,0.4939762115478515
0.4424966812133789,0.4939762115478515
0.4257465362548828,0.5025930404663086
0.4257465362548828,0.5025930404663086
0.4264772415161133,0.4815439224243164
0.4264772415161133,0.4815439224243164
0.4413311004638672,0.5056715011596680
0.4413311004638672,0.5056715011596680
0.4167423248291016,0.4834241867065430
0.4167423248291016,0.4834241867065430
0.4415382385253906,0.4922201156616210
0.4415382385253906,0.4922201156616210
0.4247039794921875,0.5009445190429688
0.4247039794921875,0.5009445190429688
0.4257951736450195,0.4800727844238281
0.4257951736450195,0.4800727844238281
0.4401546478271484,0.5043909072875976
0.4401546478271484,0.5043909072875976
0.4163944244384766,0.4828565597534180
0.4163944244384766,0.4828565597534180
0.4412979125976562,0.4920507431030273
0.4412979125976562,0.4920507431030273
0.4250896453857422,0.5009519577026367
0.4250896453857422,0.5009519577026367
0.4258438110351562,0.4800596237182617
0.4258438110351562,0.4800596237182617
0.4404653549194336,0.5050186157226563
0.4404653549194336,0.5050186157226563
0.4167686462402344,0.4830385208129883
0.4167686462402344,0.4830385208129883
0.4419244766235351,0.4924341201782226
0.4419244766235351,0.4924341201782226
0.4248275756835938,0.5008644104003906
0.4248275756835938,0.5008644104003906
0.4258506774902344,0.4804361343383789
0.4258506774902344,0.4804361343383789
0.4405683517456054,0.5052211761474609
0.4405683517456054,0.5052211761474609
0.4172080993652343,0.4829572677612304
0.4172080993652343,0.4829572677612304
0.4415742874145508,0.4924976348876953
0.4415742874145508,0.4924976348876953
0.4249917984008789,0.5011407852172851
0.4249917984008789,0.5011407852172851
0.4262002944946289,0.4809688568115234
0.4262002944946289,0.4809688568115234
0.4411113739013672,0.5057012557983398
0.4411113739013672,0.5057012557983398
0.4172521591186523,0.4834545135498047
0.4172521591186523,0.4834545135498047
0.4421962738037109,0.4934732437133789
0.4421962738037109,0.4934732437133789
0.4254575729370117,0.5020568847656249
0.4254575729370117,0.5020568847656249
0.4271558761596679,0.4818717956542968
0.4271558761596679,0.4818717956542968
0.4413917541503906,0.5066139221191406
0.4413917541503906,0.5066139221191406
0.4178976058959961,0.4845920562744140
0.4178976058959961,0.4845920562744140
0.4429315567016601,0.4946050643920898
0.4429315567016601,0.4946050643920898
0.4263902664184570,0.5032911300659180
0.4263902664184570,0.5032911300659180
0.4278247833251953,0.4829612731933594
0.4278247833251953,0.4829612731933594
0.4419107437133789,0.5080787658691406
0.4419107437133789,0.5080787658691406
0.4189252853393555,0.4856889724731445
0.4189252853393555,0.4856889724731445
0.4440879821777344,0.4960550308227539
0.4440879821777344,0.4960550308227539
0.4268365859985351,0.5043645858764648
0.4268365859985351,0.5043645858764648
0.4286258697509766,0.4843294143676757
0.4286258697509766,0.4843294143676757
0.4428691864013672,0.5093976974487304
0.4428691864013672,0.5093976974487304
0.4201389312744140,0.4869987487792968
0.4201389312744140,0.4869987487792968
0.4444067001342774,0.4972005844116211
0.4444067001342774,0.4972005844116211
0.4276983261108399,0.5057458877563477
0.4276983261108399,0.5057458877563477
0.4294795989990234,0.4858474731445312
0.4294795989990234,0.4858474731445312
0.4441446304321289,0.5108734130859375
0.4441446304321289,0.5108734130859375
0.4206974029541016,0.4880533218383789
0.4206974029541016,0.4880533218383789
0.4453702926635742,0.4990894317626953
0.4453702926635742,0.4990894317626953
0.4285984039306641,0.5074481964111328
0.4285984039306641,0.5074481964111328
0.4308460235595703,0.4876350402832031
0.4308460235595703,0.4876350402832031
0.4392442703247070,0.4934572219848632
0.4392442703247070,0.4934572219848632
0.4473987579345703,0.5129007339477539
0.4473987579345703,0.5129007339477539
0.4253070831298828,0.4861358642578125
0.4253070831298828,0.4861358642578125
0.4478284835815430,0.5099555969238281
0.4478284835815430,0.5099555969238281
0.4203472137451172,0.5013370513916016
0.4203472137451172,0.5013370513916016
0.4399515151977539,0.4944150924682617
0.4399515151977539,0.4944150924682617
0.4390623092651367,0.5137985229492187
0.4390623092651367,0.5137985229492187
0.4257825851440429,0.4868099212646484
0.4257825851440429,0.4868099212646484
0.4482376098632813,0.5107378005981446
0.4482376098632813,0.5107378005981446
0.4207202911376953,0.5017856597900391
0.4207202911376953,0.5017856597900391
0.4402050018310547,0.4951314926147461
0.4402050018310547,0.4951314926147461
0.4393043518066406,0.5142660140991211
0.4393043518066406,0.5142660140991211
0.4258804321289062,0.4869340896606445
0.4258804321289062,0.4869340896606445
0.4484424591064453,0.5110204696655273
0.4484424591064453,0.5110204696655273
0.4206447601318359,0.5015573501586914
0.4206447601318359,0.5015573501586914
0.4400230407714844,0.4944814682006836
0.4400230407714844,0.4944814682006836
0.4385799407958984,0.5131347656249999
0.4474971771240234,0.5131347656249999
0.4250507354736328,0.4854955673217773
0.4250507354736328,0.4854955673217773
0.4471378326416016,0.5087768554687500
0.4471378326416016,0.5087768554687500
0.4192571640014648,0.4988725662231445
0.4192571640014648,0.4988725662231445
0.4384168624877929,0.4916324615478516
0.4384168624877929,0.4916324615478516
0.4366830825805664,0.5102451324462890
0.4366830825805664,0.5102451324462890
0.4232408523559570,0.4824668884277343
0.4232408523559570,0.4824668884277343
0.4452661514282226,0.5058528900146484
0.4452661514282226,0.5058528900146484
0.4173666000366211,0.4956785202026367
0.4173666000366211,0.4956785202026367
0.4366189956665039,0.4888755798339843
0.4366189956665039,0.4888755798339843
0.4347787857055664,0.5072233200073242
0.4347787857055664,0.5072233200073242
0.4214601516723633,0.4795886993408203
0.4214601516723633,0.4795886993408203
0.4435523986816406,0.5032888412475586
0.4435523986816406,0.5032888412475586
0.4158645629882812,0.4935607910156250
0.4158645629882812,0.4935607910156250
0.4355936050415039,0.4871875762939453
0.4355936050415039,0.4871875762939453
0.4338363647460937,0.5060291290283203
0.4338363647460937,0.5060291290283203
0.4211362838745117,0.4789392471313476
0.4211362838745117,0.4789392471313476
0.4433858871459961,0.5031818389892578
0.4433858871459961,0.5031818389892578
0.4161489486694336,0.4934274673461914
0.4161489486694336,0.4934274673461914
0.4357114791870117,0.4874942779541016
0.4357114791870117,0.4874942779541016
0.4341957092285156,0.5064256668090820
0.4341957092285156,0.5064256668090820
0.4215408325195312,0.4797254562377929
0.4215408325195312,0.4797254562377929
0.4438899993896484,0.5040567398071288
0.4438899993896484,0.5040567398071288
0.4167022705078125,0.4942903518676758
0.4167022705078125,0.4942903518676758
0.4364416122436524,0.4886444091796875
0.4364416122436524,0.4886444091796875
0.4347112655639648,0.5074550628662109
0.4347112655639648,0.5074550628662109
0.4222795486450195,0.4805854797363281
0.4222795486450195,0.4805854797363281
0.4443740844726562,0.5048549652099609
0.4443740844726562,0.5048549652099609
0.4169746398925781,0.4947469711303711
0.4169746398925781,0.4947469711303711
0.4369932174682617,0.4893144607543945
0.4369932174682617,0.4893144607543945
0.4349052429199219,0.5081382751464844
0.4349052429199219,0.5081382751464844
0.4228134155273438,0.4813470840454102
0.4228134155273438,0.4813470840454102
0.4445714950561523,0.5057435989379883
0.4445714950561523,0.5057435989379883
0.4176887512207031,0.4956584930419922
0.4176887512207031,0.4956584930419922
0.4376106262207031,0.4906047821044922
0.4376106262207031,0.4906047821044922
0.4356857299804687,0.5093307495117188
0.4356857299804687,0.5093307495117188
0.4236968994140625,0.4828611373901367
0.4236968994140625,0.4828611373901367
0.4458389282226562,0.5076501846313476
0.4458389282226562,0.5076501846313476
0.4188663482666016,0.4974586486816406
0.4188663482666016,0.4974586486816406
0.4387075424194336,0.4925811767578125
0.4387075424194336,0.4925811767578125
0.4368724822998047,0.5112739562988281
0.4368724822998047,0.5112739562988281
0.4250146865844727,0.4850412368774414
0.4250146865844727,0.4850412368774414
0.4469484329223632,0.5097702026367187
0.4469484329223632,0.5097702026367187
0.4201595306396484,0.4992542266845703
0.4201595306396484,0.4992542266845703
0.4399497985839844,0.4946771621704101
0.4399497985839844,0.4946771621704101
0.4378177642822266,0.5130615234375000
0.4378177642822266,0.5130615234375000
0.4261098861694336,0.4866107940673828
0.4261098861694336,0.4866107940673828
0.4480447769165039,0.5113603591918945
0.4480447769165039,0.5113603591918945
0.4208890914916992,0.5005376815795898
0.4208890914916992,0.5005376815795898
0.4409208297729492,0.4960058212280273
0.4409208297729492,0.4960058212280273
0.4383888244628906,0.5141784667968750
0.4488996505737304,0.5141784667968750
0.4266208648681640,0.4876316070556641
0.4266208648681640,0.4876316070556641
0.4485191345214843,0.5121036529541015
0.4485191345214843,0.5121036529541015
0.4212987899780273,0.5012826919555664
0.4212987899780273,0.5012826919555664
0.4413545608520508,0.4964979171752930
0.4413545608520508,0.4964979171752930
0.4389616012573242,0.5149669647216797
0.4389616012573242,0.5149669647216797
0.4270963668823242,0.4882736206054688
0.4270963668823242,0.4882736206054688
0.4491165161132812,0.5132377624511718
0.4491165161132812,0.5132377624511718
0.4218904495239258,0.5021358489990234
0.4218904495239258,0.5021358489990234
0.4418861389160156,0.4975507736206055
0.4418861389160156,0.4975507736206055
0.4394954681396484,0.5162549972534179
0.4394954681396484,0.5162549972534179
0.4279226303100586,0.4894826889038086
0.4279226303100586,0.4894826889038086
0.4497619628906250,0.5144914627075196
0.4497619628906250,0.5144914627075196
0.4228191375732422,0.5031354904174804
0.4228191375732422,0.5031354904174804
0.4426820755004883,0.4988290786743164
0.4426820755004883,0.4988290786743164
0.4399188995361328,0.5169261932373047
0.4399188995361328,0.5169261932373047
0.4280519485473633,0.4896434783935547
0.4280519485473633,0.4896434783935547
0.4493162155151367,0.5136863708496093
0.4493162155151367,0.5136863708496093
0.4215396881103515,0.5008563995361328
0.4215396881103515,0.5008563995361328
0.4406810760498047,0.4954736709594726
0.4406810760498047,0.4954736709594726
0.4368535995483399,0.5118736267089844
0.4368535995483399,0.5118736267089844
0.4245420455932617,0.4837463378906250
0.4245420455932617,0.4837463378906250
0.4452106475830078,0.5070659637451171
0.4452106475830078,0.5070659637451171
0.4174106597900391,0.4941890716552734
0.4174106597900391,0.4941890716552734
0.4366813659667969,0.4887748718261719
0.4366813659667969,0.4887748718261719
0.4329362869262695,0.5055324554443359
0.4329362869262695,0.5055324554443359
0.4208965301513672,0.4777101516723632
0.4208965301513672,0.4777101516723632
0.4416452407836914,0.5015481948852539
0.4416452407836914,0.5015481948852539
0.4143098831176757,0.4887445449829101
0.4143098831176757,0.4887445449829101
0.4336469650268555,0.4838361740112305
0.4336469650268555,0.4838361740112305
0.4299957275390625,0.5007991790771484
0.4299957275390625,0.5007991790771484
0.4184497833251953,0.4735136032104492
0.4184497833251953,0.4735136032104492
0.4391870498657227,0.4974123001098633
0.4391870498657227,0.4974123001098633
0.4120828628540039,0.4847534179687500
0.4120828628540039,0.4847534179687500
0.4314783096313476,0.4806089401245117
0.4314783096313476,0.4806089401245117
0.4281932830810547,0.4980480194091796
0.4281932830810547,0.4980480194091796
0.4168258666992187,0.4712081909179687
0.4168258666992187,0.4712081909179687
0.4381622314453125,0.4957151412963867
0.4381622314453125,0.4957151412963867
0.4111461639404297,0.4832914352416992
0.4111461639404297,0.4832914352416992
0.4311773300170899,0.4799480438232422
0.4311773300170899,0.4799480438232422
0.4277835845947265,0.4974403381347656
0.4277835845947265,0.4974403381347656
0.4167457580566406,0.4709444046020508
0.4167457580566406,0.4709444046020508
0.4382703781127930,0.4959291458129882
0.4382703781127930,0.4959291458129882
0.4114213943481445,0.4838150024414062
0.4114213943481445,0.4838150024414062
0.4315172195434570,0.4804321289062500
0.4315172195434570,0.4804321289062500
0.4283712387084961,0.4982030868530273
0.4283712387084961,0.4982030868530273
0.4173316955566406,0.4718358993530273
0.4173316955566406,0.4718358993530273
0.4388088226318359,0.4971250534057617
0.4388088226318359,0.4971250534057617
0.4118854522705078,0.4845651626586914
0.4118854522705078,0.4845651626586914
0.4322462081909180,0.4814558029174805
0.4322462081909180,0.4814558029174805
0.4286607742309570,0.4990825653076172
0.4286607742309570,0.4990825653076172
0.4178678512573242,0.4726535797119140
0.4178678512573242,0.4726535797119140
0.4392808914184570,0.4978649139404296
0.4392808914184570,0.4978649139404296
0.4124107360839844,0.4850687026977539
0.4392030715942383,0.4850687026977539
0.4325094223022461,0.4820743560791015
0.4325094223022461,0.4820743560791015
0.4289657592773438,0.4998184204101562
0.4289657592773438,0.4998184204101562
0.4180892944335937,0.4731599807739257
0.4180892944335937,0.4731599807739257
0.4395343780517578,0.4983781814575195
0.4395343780517578,0.4983781814575195
0.4127861022949219,0.4851894378662109
0.4127861022949219,0.4851894378662109
0.4328996658325195,0.4826059341430664
0.4328996658325195,0.4826059341430664
0.4292879104614258,0.4999694824218750
0.4292879104614258,0.4999694824218750
0.4183662414550781,0.4738288879394531
0.4183662414550781,0.4738288879394531
0.4397541046142578,0.4988874435424804
0.4397541046142578,0.4988874435424804
0.4131053924560547,0.4860872268676757
0.4131053924560547,0.4860872268676757
0.4334953308105469,0.4836742401123046
0.4334953308105469,0.4836742401123046
0.4298664093017578,0.5011808395385742
0.4298664093017578,0.5011808395385742
0.4193309783935547,0.4750688552856445
0.4193309783935547,0.4750688552856445
0.4406204223632812,0.5003293991088867
0.4406204223632812,0.5003293991088867
0.4139259338378906,0.4874233245849609
0.4139259338378906,0.4874233245849609
0.4344377517700195,0.4851802825927734
0.4344377517700195,0.4851802825927734
0.4305204391479492,0.5024837493896485
0.4305204391479492,0.5024837493896485
0.4202888488769531,0.4766847610473632
0.4202888488769531,0.4766847610473632
0.4413465499877929,0.5018669128417969
0.4413465499877929,0.5018669128417969
0.4146835327148438,0.4884452819824219
0.4146835327148438,0.4884452819824219
0.4351575851440430,0.4862491607666015
0.4351575851440430,0.4862491607666015
0.4309501647949219,0.5034456253051758
0.4309501647949219,0.5034456253051758
0.4207849502563477,0.4775321960449219
0.4207849502563477,0.4775321960449219
0.4416812896728515,0.5026622772216797
0.4416812896728515,0.5026622772216797
0.4151681900024414,0.4891530990600585
0.4151681900024414,0.4891530990600585
0.4356994628906250,0.4871686935424804
0.4356994628906250,0.4871686935424804
0.4315584182739258,0.5044967651367187
0.4315584182739258,0.5044967651367187
0.4213205337524414,0.4786451339721680
0.4213205337524414,0.4786451339721680
0.4426935195922851,0.5038633346557617
0.4426935195922851,0.5038633346557617
0.4158834457397461,0.4904989242553711
0.4158834457397461,0.4904989242553711
0.4365211486816406,0.4885305404663086
0.4170524597167969,0.4885305404663086
0.4324899673461914,0.5059015274047851
0.4436285018920899,0.5059015274047851
0.4222309112548828,0.4800653457641602
0.4222309112548828,0.4800653457641602
0.4435163497924804,0.5055507659912110
0.4435163497924804,0.5055507659912110
0.4167612075805664,0.4918064117431640
0.4167612075805664,0.4918064117431640
0.4376289367675781,0.4899616241455078
0.4376289367675781,0.4899616241455078
0.4331159591674805,0.5067180633544922
0.4331159591674805,0.5067180633544922
0.4225822448730469,0.4805379867553711
0.4225822448730469,0.4805379867553711
0.4433670043945312,0.5050151824951171
0.4433670043945312,0.5050151824951171
0.4161455154418945,0.4904663085937500
0.4161455154418945,0.4904663085937500
0.4363151550292969,0.4876384735107422
0.4363151550292969,0.4876384735107422
0.4309410095214843,0.5035703659057617
0.4309410095214843,0.5035703659057617
0.4203649520874023,0.4767534255981445
0.4203649520874023,0.4767534255981445
0.4406953811645508,0.5010738372802734
0.4406953811645508,0.5010738372802734
0.4135419845581055,0.4860929489135742
0.4135419845581055,0.4860929489135742
0.4335851669311523,0.4837045669555664
0.4335851669311523,0.4837045669555664
0.4287265777587890,0.4996736526489258
0.4287265777587890,0.4996736526489258
0.4181665420532226,0.4731101989746094
0.4181665420532226,0.4731101989746094
0.4385524749755859,0.4975999832153320
0.4385524749755859,0.4975999832153320
0.4114831924438476,0.4826551437377929
0.4114831924438476,0.4826551437377929
0.4317861557006836,0.4803783416748046
0.4317861557006836,0.4803783416748046
0.4267215728759766,0.4964052200317383
0.4267215728759766,0.4964052200317383
0.4163045883178711,0.4700798034667968
0.4163045883178711,0.4700798034667968
0.4367849349975586,0.4950473785400391
0.4367849349975586,0.4950473785400391
0.4335210800170898,0.4968544006347656
0.4307882308959961,0.4968544006347656
0.4369720458984375,0.4949764251708984
0.4355466842651367,0.4861816406250000
0.4355466842651367,0.4865844726562500
0.4221782684326172,0.4715583801269531
0.4227413177490234,0.4715583801269531
0.4074062347412109,0.4725608825683594
0.4329282760620117,0.4968097686767578
0.4329282760620117,0.4968097686767578
0.4117692947387695,0.4701353073120117
0.4117692947387695,0.4701353073120117
0.4361297607421875,0.4876647949218750
0.4361297607421875,0.4876647949218750
0.4170209884643555,0.4902826309204101
0.4170209884643555,0.4902826309204101
0.4233037948608399,0.4736755371093750
0.4233037948608399,0.4736755371093750
0.4338523864746094,0.4984222412109375
0.4338523864746094,0.4984222412109375
0.4127695083618164,0.4718009948730468
0.4127695083618164,0.4718009948730468
0.4374658584594727,0.4895038604736328
0.4374658584594727,0.4895038604736328
0.4174873352050781,0.4918745040893555
0.4174873352050781,0.4918745040893555
0.4244499206542969,0.4755701065063476
0.4244499206542969,0.4755701065063476
0.4348749160766601,0.5002058029174804
0.4348749160766601,0.5002058029174804
0.4142143249511719,0.4733499526977539
0.4142143249511719,0.4733499526977539
0.4382944107055664,0.4910139083862304
0.4382944107055664,0.4910139083862304
0.4185693740844726,0.4935579299926758
0.4411325454711914,0.4935579299926758
0.4253957748413086,0.4772941589355468
0.4253957748413086,0.4772941589355468
0.4361652374267578,0.5016866683959961
0.4361652374267578,0.5016866683959961
0.4147287368774414,0.4745286941528320
0.4147287368774414,0.4745286941528320
0.4389249801635742,0.4926429748535156
0.4389249801635742,0.4926429748535156
0.4193166732788086,0.4948179244995117
0.4193166732788086,0.4948179244995117
0.4265579223632812,0.4788768768310547
0.4265579223632812,0.4788768768310547
0.4366727828979492,0.5028659820556640
0.4366727828979492,0.5028659820556640
0.4156454086303711,0.4765199661254882
0.4156454086303711,0.4765199661254882
0.4399354934692383,0.4943058013916015
0.4179920196533203,0.4943058013916015
0.4205188751220703,0.4964962005615234
0.4205188751220703,0.4964962005615234
0.4273721694946289,0.4803228378295898
0.4273721694946289,0.4803228378295898
0.4376323699951172,0.5049213409423828
0.4376323699951172,0.5049213409423828
0.4168807983398438,0.4782554626464843
0.4168807983398438,0.4782554626464843
0.4413700103759766,0.4963846206665039
0.4413700103759766,0.4963846206665039
0.4213554382324219,0.4983055114746093
0.4213554382324219,0.4983055114746093
0.4287706375122070,0.4829452514648437
0.4287706375122070,0.4829452514648437
0.4389347076416015,0.5071477890014648
0.4389347076416015,0.5071477890014648
0.4184583663940429,0.4803834915161133
0.4184583663940429,0.4803834915161133
0.4425321578979492,0.4986396789550781
0.4425321578979492,0.4986396789550781
0.4226388931274414,0.5006847381591797
0.4226388931274414,0.5006847381591797
0.4302909851074219,0.4853387832641601
0.4302909851074219,0.4853387832641601
0.4405992507934570,0.5094789505004883
0.4405992507934570,0.5094789505004883
0.4195575714111328,0.4825075149536133
0.4195575714111328,0.4825075149536133
0.4439575195312500,0.5011556625366210
0.4439575195312500,0.5011556625366210
0.4238376617431641,0.5029523849487304
0.4238376617431641,0.5029523849487304
0.4318782806396484,0.4873672485351562
0.4318782806396484,0.4873672485351562
0.4415719985961914,0.5112464904785156
0.4415719985961914,0.5112464904785156
0.4206430435180664,0.4844890594482422
0.4206430435180664,0.4844890594482422
0.4452821731567383,0.5030662536621093
0.4452821731567383,0.5030662536621093
0.4254140853881836,0.5046850204467773
0.4480190277099609,0.5046850204467773
0.4328161239624023,0.4893127441406250
0.4328161239624023,0.4893127441406250
0.4427129745483399,0.5134901046752930
0.4427129745483399,0.5134901046752930
0.4219047546386719,0.4863767623901367
0.4219047546386719,0.4863767623901367
0.4463859558105469,0.5042707443237304
0.4463859558105469,0.5042707443237304
0.4250255584716797,0.5041448593139648
0.4250255584716797,0.5041448593139648
0.4316699981689453,0.4872694015502930
0.4316699981689453,0.4872694015502930
0.4403463363647461,0.5092723846435546
0.4403463363647461,0.5092723846435546
0.4186792373657227,0.4802387237548828
0.4186792373657227,0.4802387237548828
0.4415102005004883,0.4965345382690429
0.4415102005004883,0.4965345382690429
0.4199249267578125,0.4963880538940429
0.4199249267578125,0.4963880538940429
0.4267856597900391,0.4795434951782226
0.4267856597900391,0.4795434951782226
0.4357669830322266,0.5015350341796875
0.4357669830322266,0.5015350341796875
0.4138750076293945,0.4727153778076172
0.4138750076293945,0.4727153778076172
0.4373920440673828,0.4899324417114257
0.4373920440673828,0.4899324417114257
0.4158565521240234,0.4896577835083007
0.4158565521240234,0.4896577835083007
0.4233598709106445,0.4732006072998047
0.4233598709106445,0.4732006072998047
0.4317598342895508,0.4953248977661133
0.4305273056030273,0.4953248977661133
0.4102821350097656,0.4674728393554687
0.4102821350097656,0.4674728393554687
0.4343730926513672,0.4850395202636719
0.4343730926513672,0.4850395202636719
0.4133937835693359,0.4853015899658203
0.4133937835693359,0.4853015899658203
0.4047031402587891,0.4694635391235351
0.4047031402587891,0.4694635391235351
0.4299573898315430,0.4925004959106445
0.4288616180419922,0.4925004959106445
0.4087062835693359,0.4646879196166992
0.4219167709350586,0.4646879196166992
0.4332201004028320,0.4826631546020508
0.4332201004028320,0.4826631546020508
0.4117218017578125,0.4829956054687500
0.4117218017578125,0.4829956054687500
0.4198362350463867,0.4680187225341796
0.4198362350463867,0.4680187225341796
0.4291248321533203,0.4914945602416992
0.4291248321533203,0.4914945602416992
0.4087211608886719,0.4639629364013672
0.4087211608886719,0.4639629364013672
0.4328704833984375,0.4824457168579102
0.4328704833984375,0.4824457168579102
0.4119455337524414,0.4835523605346679
0.4119455337524414,0.4835523605346679
0.4202402114868164,0.4688953399658203
0.4202402114868164,0.4688953399658203
0.4299367904663086,0.4923322677612305
0.4299367904663086,0.4923322677612305
0.4090541839599609,0.4648338317871094
0.4090541839599609,0.4648338317871094
0.4336366653442383,0.4840101242065429
0.4336366653442383,0.4840101242065429
0.4127775192260742,0.4849599838256836
0.4127775192260742,0.4849599838256836
0.4215883255004882,0.4703882217407226
0.4215883255004882,0.4703882217407226
0.4305273056030273,0.4937221527099609
0.4300140380859375,0.4937221527099609
0.4098724365234375,0.4667358398437500
0.4232637405395508,0.4667358398437500
0.4347467422485352,0.4855882644653320
0.4129325866699219,0.4855882644653320
0.4138532638549804,0.4863498687744141
0.4368398666381836,0.4863498687744141
0.4220443725585937,0.4716276168823242
0.4058338165283203,0.4716276168823242
0.4314393997192383,0.4949604034423828
0.4314393997192383,0.4949604034423828
0.4105430603027344,0.4677532196044922
0.4105430603027344,0.4677532196044922
0.4355953216552734,0.4864923477172851
0.4355953216552734,0.4864923477172851
0.4138927459716797,0.4868505477905273
0.4138927459716797,0.4868505477905273
0.4226903915405273,0.4724927902221679
0.4226903915405273,0.4724927902221679
0.4317409515380859,0.4957305908203125
0.4317409515380859,0.4957305908203125
0.4114597320556641,0.4683900833129883
0.4114597320556641,0.4683900833129883
0.4358636856079102,0.4872613906860351
0.4358636856079102,0.4872613906860351
0.4144100189208984,0.4880882263183594
0.4378824234008789,0.4880882263183594
0.4234685897827148,0.4737676620483398
0.4234685897827148,0.4737676620483398
0.4328664779663086,0.4971513748168945
0.4328664779663086,0.4971513748168945
0.4121200561523438,0.4694171905517578
0.4121200561523438,0.4694171905517578
0.4367786407470703,0.4890495300292969
0.4367786407470703,0.4890495300292969
0.4152557373046875,0.4894895553588867
0.4152557373046875,0.4894895553588867
0.4247480392456054,0.4755163192749023
0.4247480392456054,0.4755163192749023
0.4333837509155273,0.4986207962036133
0.4333837509155273,0.4986207962036133
0.4131322860717773,0.4715921401977539
0.4131322860717773,0.4715921401977539
0.4377799987792969,0.4907987594604492
0.4377799987792969,0.4907987594604492
0.4165489196777344,0.4912158966064453
0.4165489196777344,0.4912158966064453
0.4254667282104492,0.4768724441528320
0.4254667282104492,0.4768724441528320
0.4343313217163086,0.5001708984375000
0.4343313217163086,0.5001708984375000
0.4138498306274414,0.4729059219360351
0.4138498306274414,0.4729059219360351
0.4389713287353516,0.4919820785522461
0.4389713287353516,0.4919820785522461
0.4169654846191406,0.4922298431396484
0.4169654846191406,0.4922298431396484
0.4263296127319336,0.4783590316772461
0.4263296127319336,0.4783590316772461
0.4350774765014648,0.5013319015502929
0.4350774765014648,0.5013319015502929
0.4150314331054688,0.4740898132324218
0.4150314331054688,0.4740898132324218
0.4392539978027344,0.4929399490356445
0.4392539978027344,0.4929399490356445
0.4174896240234375,0.4932941436767578
0.4174896240234375,0.4932941436767578
0.4267295837402343,0.4790811538696289
0.4267295837402343,0.4790811538696289
0.4357446670532226,0.5020689010620117
0.4357446670532226,0.5020689010620117
0.4151390075683594,0.4745653152465820
0.4151390075683594,0.4745653152465820
0.4397472381591797,0.4939384460449219
0.4397472381591797,0.4939384460449219
0.4179725646972656,0.4943567276000976
0.4179725646972656,0.4943567276000976
0.4278511047363281,0.4804470062255859
0.4278511047363281,0.4804470062255859
0.4362527847290039,0.5032075881958008
0.4362527847290039,0.5032075881958008
0.4289531707763672,0.5037780761718750
0.4289531707763672,0.5037780761718750
0.4289531707763672,0.5015636444091797
0.4211477279663086,0.4779087066650390
0.4211477279663086,0.4779087066650390
0.4403331756591797,0.5023653030395507
0.4403331756591797,0.5023653030395507
0.4132289886474609,0.4848066329956054
0.4132289886474609,0.4848066329956054
0.4355678558349609,0.4853668212890625
0.4355678558349609,0.4853668212890625
0.4274499893188476,0.4991283416748047
0.4274499893188476,0.4991283416748047
0.4192708969116211,0.4749509811401367
0.4192708969116211,0.4749509811401367
0.4385181427001953,0.4991397857666016
0.4385181427001953,0.4991397857666016
0.4111558914184570,0.4819370269775390
0.4111558914184570,0.4819370269775390
0.4339553833007813,0.4825572967529297
0.4339553833007813,0.4825572967529297
0.4261625289916992,0.4967714309692383
0.4261625289916992,0.4967714309692383
0.4180406570434570,0.4729843139648438
0.4180406570434570,0.4729843139648438
0.4374240875244140,0.4974580764770508
0.4374240875244140,0.4974580764770508
0.4102077484130859,0.4804653167724609
0.4102077484130859,0.4804653167724609
0.4332653045654297,0.4813722610473632
0.4332653045654297,0.4813722610473632
0.4254381179809570,0.4956315994262695
0.4254381179809570,0.4956315994262695
0.4176635742187500,0.4720956802368164
0.4176635742187500,0.4720956802368164
0.4370092391967773,0.4968194961547852
0.4370092391967773,0.4968194961547852
0.4098421096801758,0.4797489166259765
0.4098421096801758,0.4797489166259765
0.4331943511962891,0.4812269210815430
0.4331943511962891,0.4812269210815430
0.4251331329345703,0.4955142974853515
0.4251331329345703,0.4955142974853515
0.4176120758056641,0.4720424652099609
0.4176120758056641,0.4720424652099609
0.4369737625122070,0.4969665527343750
0.4369737625122070,0.4969665527343750
0.4099782943725586,0.4798353195190430
0.4099782943725586,0.4798353195190430
0.4332126617431640,0.4815301895141602
0.4178558349609375,0.4900800704956054
0.4149461746215820,0.4895393371582031
0.4149461746215820,0.4895393371582031
0.4250965118408203,0.4760971069335938
0.4250965118408203,0.4760971069335938
0.4335433959960938,0.4991380691528320
0.4335433959960938,0.4991380691528320
0.4136198043823242,0.4718364715576172
0.4136198043823242,0.4718364715576172
0.4384614944458008,0.4912714004516601
0.4384614944458008,0.4912714004516601
0.4156717300415039,0.4912273406982421
0.4156717300415039,0.4912273406982421
0.4261453628540039,0.4778142929077148
0.4261453628540039,0.4778142929077148
0.4347644805908203,0.5007659912109375
0.4347644805908203,0.5007659912109375
0.4143493652343750,0.4733264923095703
0.4143493652343750,0.4733264923095703
0.4392288208007812,0.4929588317871094
0.4392288208007812,0.4929588317871094
0.4168012619018555,0.4927425384521484
0.4168012619018555,0.4927425384521484
0.4275186538696289,0.4795349121093750
0.4275186538696289,0.4795349121093750
0.4353372573852539,0.5023200988769531
0.4353372573852539,0.5023200988769531
0.4153404235839844,0.4751907348632812
0.4153404235839844,0.4751907348632812
0.4402788162231445,0.4945993423461914
0.4402788162231445,0.4945993423461914
0.4181224822998047,0.4944431304931640
0.4181224822998047,0.4944431304931640
0.4282705307006836,0.4810941696166992
0.4282705307006836,0.4810941696166992
0.4362693786621094,0.5042587280273437
0.4362693786621094,0.5042587280273437
0.4164825439453125,0.4770406723022461
0.4164825439453125,0.4770406723022461
0.4416990280151367,0.4967576980590820
0.4416990280151367,0.4967576980590820
0.4190139770507812,0.4963640213012695
0.4190139770507812,0.4963640213012695
0.4296867370605469,0.4836261749267578
0.4296867370605469,0.4836261749267578
0.4377485275268554,0.5065652847290039
0.4377485275268554,0.5065652847290039
0.4182580947875976,0.4796567916870117
0.4182580947875976,0.4796567916870117
0.4430294036865234,0.4990934371948242
0.4430294036865234,0.4990934371948242
0.4202877044677734,0.4992015838623047
0.4202877044677734,0.4992015838623047
0.4312969207763672,0.4862154006958008
0.4312969207763672,0.4862154006958008
0.4394325256347656,0.5088815689086914
0.4394325256347656,0.5088815689086914
0.4194688796997070,0.4816165924072265
0.4194688796997070,0.4816165924072265
0.4441257476806640,0.5013221740722656
0.4441257476806640,0.5013221740722656
0.4214567184448242,0.5007196426391601
0.4214567184448242,0.5007196426391601
0.4328561782836914,0.4880458831787109
0.4328561782836914,0.4880458831787109
0.4400373458862304,0.5103057861328125
0.4400373458862304,0.5103057861328125
0.4204570770263672,0.4834894180297851
0.4204570770263672,0.4834894180297851
0.4452724456787109,0.5033386230468749
0.4452724456787109,0.5033386230468749
0.4227201461791992,0.5025043487548828
0.4227201461791992,0.5025043487548828
0.4335966110229492,0.4894432067871093
0.4335966110229492,0.4894432067871093
0.4411045074462890,0.5124418258666992
0.4411045074462890,0.5124418258666992
0.4214607238769531,0.4851768493652344
0.4214607238769531,0.4851768493652344
0.4468185424804688,0.5052183151245117
0.4468185424804688,0.5052183151245117
0.4234354019165039,0.5042112350463867
0.4234354019165039,0.5042112350463867
0.4347015380859375,0.4915781021118164
0.4347015380859375,0.4915781021118164
0.4424291610717773,0.5144966125488281
0.4424291610717773,0.5144966125488281
0.4228134155273438,0.4872150421142578
0.4228134155273438,0.4872150421142578
0.4473878860473633,0.5064571380615234
0.4473878860473633,0.5064571380615234
0.4237157821655274,0.5048961639404297
0.4237157821655274,0.5048961639404297
0.4342626571655273,0.4906345367431640
0.4342626571655273,0.4906345367431640
0.4410278320312500,0.5113689422607421
0.4410278320312500,0.5113689422607421
0.4198917388916015,0.4823936462402343
0.4198917388916015,0.4823936462402343
0.4436136245727539,0.5005651473999023
0.4223928451538086,0.5005651473999023
0.4194391250610351,0.4978334426879882
0.4194391250610351,0.4978334426879882
0.4302417755126953,0.4838207244873047
0.4302417755126953,0.4838207244873047
0.4362270355224609,0.5043233871459961
0.4362270355224609,0.5043233871459961
0.4158554077148438,0.4759843826293945
0.4265310287475586,0.4759843826293945
0.4394742965698242,0.4941392898559570
0.4394742965698242,0.4941392898559570
0.4158851623535156,0.4916038513183594
0.4158851623535156,0.4916038513183594
0.4264486312866211,0.4776014328002929
0.4264486312866211,0.4776014328002929
0.4326004028320312,0.4988325119018555
0.4326004028320312,0.4988325119018555
0.4126235961914063,0.4706354141235352
0.4126235961914063,0.4706354141235352
0.4368667602539062,0.4892045974731445
0.4368667602539062,0.4892045974731445
0.4125532150268554,0.4866102218627930
0.4125532150268554,0.4866102218627930
0.4237300872802734,0.4735067367553711
0.4237300872802734,0.4735067367553711
0.4302268981933594,0.4948322296142578
0.4302268981933594,0.4948322296142578
0.4111839294433594,0.4677841186523437
0.4111839294433594,0.4677841186523437
0.4348451614379883,0.4864820480346679
0.4348451614379883,0.4864820480346679
0.4113252639770508,0.4846693038940429
0.4113252639770508,0.4846693038940429
0.4229925155639648,0.4724132537841796
0.4229925155639648,0.4724132537841796
0.4299196243286132,0.4937948226928711
0.4299196243286132,0.4937948226928711
0.4104017257690429,0.4667072296142578
0.4104017257690429,0.4667072296142578
0.4347404479980468,0.4865472793579101
0.4347404479980468,0.4865472793579101
0.4112348556518555,0.4848243713378906
0.4112348556518555,0.4848243713378906
0.4236763000488281,0.4727027893066406
0.4236763000488281,0.4727027893066406
0.4298046112060547,0.4941278457641601
0.4298046112060547,0.4941278457641601
0.4106597900390625,0.4676376342773437
0.4106597900390625,0.4676376342773437
0.4354488372802734,0.4871149063110352
0.4354488372802734,0.4871149063110352
0.4119466781616211,0.4855321884155273
0.4119466781616211,0.4855321884155273
0.4237855911254882,0.4729785919189453
0.4237855911254882,0.4729785919189453
0.4303173065185547,0.4953357696533203
0.4303173065185547,0.4953357696533203
0.4111616134643555,0.4682235717773438
0.4111616134643555,0.4682235717773438
0.4361343383789062,0.4880035400390625
0.4361343383789062,0.4880035400390625
0.4121137619018554,0.4859172821044921
0.4121137619018554,0.4859172821044921
0.4243572235107422,0.4739479064941406
0.4243572235107422,0.4739479064941406
0.4309020996093750,0.4961654663085937
0.4309020996093750,0.4961654663085937
0.4120176315307617,0.4689353942871093
0.4120176315307617,0.4689353942871093
0.4363883972167968,0.4886953353881835
0.4363883972167968,0.4886953353881835
0.4125984191894531,0.4872001647949218
0.4125984191894531,0.4872001647949218
0.4250329971313476,0.4750373840332031
0.4250329971313476,0.4750373840332031
0.4320161819458008,0.4973596572875976
0.4320161819458008,0.4973596572875976
0.4123329162597656,0.4701622009277344
0.4123329162597656,0.4701622009277344
0.4371654510498047,0.4901378631591797
0.4371654510498047,0.4901378631591797
0.4133972167968750,0.4884687423706054
0.4133972167968750,0.4884687423706054
0.4262969970703125,0.4764593124389648
0.4262969970703125,0.4764593124389648
0.4324985504150390,0.4982837677001953
0.4324985504150390,0.4982837677001953
0.4131963729858398,0.4716041564941406
0.4131963729858398,0.4716041564941406
0.4380964279174804,0.4913572311401367
0.4380964279174804,0.4913572311401367
0.4145839691162109,0.4899650573730469
0.4145839691162109,0.4899650573730469
0.4268486022949219,0.4777027130126953
0.4268486022949219,0.4777027130126953
0.4333631515502930,0.5001565933227539
0.4333631515502930,0.5001565933227539
0.4143018722534180,0.4733831405639648
0.4143018722534180,0.4733831405639648
0.4395229339599609,0.4933181762695312
0.4395229339599609,0.4933181762695312
0.4150011062622070,0.4913852691650391
0.4150011062622070,0.4913852691650391
0.4280055999755859,0.4797122955322266
0.4280055999755859,0.4797122955322266
0.4343948364257812,0.5021404266357422
0.4367168426513672,0.5021404266357422
0.4158107757568359,0.4752399444580078
0.4158107757568359,0.4752399444580078
0.4404842376708984,0.4952630996704102
0.4404842376708984,0.4952630996704102
0.4162857055664063,0.4938051223754882
0.4162857055664063,0.4938051223754882
0.4294223785400391,0.4818815231323242
0.4294223785400391,0.4818815231323242
0.4361206054687500,0.5044612884521484
0.4361206054687500,0.5044612884521484
0.4168790817260742,0.4772140502929687
0.4275403976440429,0.4772140502929687
0.4418363571166992,0.4977710723876953
0.4418363571166992,0.4977710723876953
0.4176715850830078,0.4956762313842773
0.4176715850830078,0.4956762313842773
0.4311063766479492,0.4838922500610351
0.4311063766479492,0.4838922500610351
0.4368484497070312,0.5057064056396484
0.4368484497070312,0.5057064056396484
0.4176950454711914,0.4789718627929687
0.4176950454711914,0.4789718627929687
0.4425573348999023,0.4988365173339844
0.4425573348999023,0.4988365173339844
0.4185739517211914,0.4966970443725586
0.4185739517211914,0.4966970443725586
0.4311401367187500,0.4843706130981445
0.4311401367187500,0.4843706130981445
0.4369091033935547,0.5060188293457031
0.4369091033935547,0.5060188293457031
0.4174306869506836,0.4784425735473632
0.4174306869506836,0.4784425735473632
0.4423702239990234,0.4976943969726562
0.4423702239990234,0.4976943969726562
0.4167177200317383,0.4941015243530273
0.4167177200317383,0.4941015243530273
0.4291666030883789,0.4809511184692383
0.4291666030883789,0.4809511184692383
0.4339536666870117,0.5014532089233398
0.4339536666870117,0.5014532089233398
0.4242897033691406,0.4990854263305664
0.4242897033691406,0.4962924957275390
0.4186002731323242,0.4731645584106445
0.4186002731323242,0.4731645584106445
0.4359008789062500,0.4957363128662109
0.4359008789062500,0.4957363128662109
0.4085626602172852,0.4766859054565429
0.4085626602172852,0.4766859054565429
0.4320602416992188,0.4791143417358398
0.4320602416992188,0.4791143417358398
0.4205406188964844,0.4905469894409180
0.4205406188964844,0.4905469894409180
0.4152111053466797,0.4681337356567383
0.4152111053466797,0.4681337356567383
0.4328264236450195,0.4907896041870117
0.4328264236450195,0.4907896041870117
0.4057943344116211,0.4723440170288086
0.4057943344116211,0.4723440170288086
0.4297296524047852,0.4752553939819336
0.4297296524047852,0.4752553939819336
0.4184972763061524,0.4873340606689453
0.4184972763061524,0.4873340606689453
0.4137199401855469,0.4652664184570312
0.4137199401855469,0.4652664184570312
0.4317380905151367,0.4889711380004882
0.4317380905151367,0.4889711380004882
0.4050029754638672,0.4711572647094726
0.4050029754638672,0.4711572647094726
0.4295419692993164,0.4747741699218750
0.4295419692993164,0.4747741699218750
0.4183210372924804,0.4871011734008789
0.4183210372924804,0.4871011734008789
0.4139602661132812,0.4656675338745117
0.4139602661132812,0.4656675338745117
0.4319990158081055,0.4895067214965820
0.4319990158081055,0.4895067214965820
0.4055654525756836,0.4719263076782226
0.4055654525756836,0.4719263076782226
0.4302474975585938,0.4758573532104492
0.4302474975585938,0.4758573532104492
0.4189172744750976,0.4882255554199219
0.4189172744750976,0.4882255554199219
0.4147470474243164,0.4668073654174805
0.4147470474243164,0.4668073654174805
0.4328281402587891,0.4909990310668945
0.4328281402587891,0.4909990310668945
0.4062206268310547,0.4730764389038086
0.4062206268310547,0.4730764389038086
0.4310022354125976,0.4770498275756836
0.4310022354125976,0.4770498275756836
0.4196359634399414,0.4895072937011719
0.4196359634399414,0.4895072937011719
0.4155155181884765,0.4681549072265625
0.4155155181884765,0.4681549072265625
0.4336029052734375,0.4922664642333984
0.4336029052734375,0.4922664642333984
0.4070875167846680,0.4741350173950195
0.4070875167846680,0.4741350173950195
0.4319154739379883,0.4783544540405273
0.4319154739379883,0.4783544540405273
0.4203025817871094,0.4907644271850586
0.4203025817871094,0.4907644271850586
0.4163955688476562,0.4693273544311523
0.4163955688476562,0.4693273544311523
0.4344011306762695,0.4934400558471679
0.4344011306762695,0.4934400558471679
0.4077936172485351,0.4753921508789062
0.4077936172485351,0.4753921508789062
0.4326433181762695,0.4797832489013671
0.4326433181762695,0.4797832489013671
0.4211832046508789,0.4921073913574219
0.4211832046508789,0.4921073913574219
0.4172000885009766,0.4707996368408203
0.4172000885009766,0.4707996368408203
0.4352273941040039,0.4947664260864257
0.4352273941040039,0.4947664260864257
0.4086862564086914,0.4770383834838867
0.4086862564086914,0.4770383834838867
0.4335359573364257,0.4811353683471680
0.4335359573364257,0.4811353683471680
0.4220935821533203,0.4935321807861328
0.4220935821533203,0.4935321807861328
0.4181745529174805,0.4722764968872070
0.4181745529174805,0.4722764968872070
0.4360450744628906,0.4960630416870117
0.4360450744628906,0.4960630416870117
0.4097116470336914,0.4782960891723633
0.4097116470336914,0.4782960891723633
0.4344320297241211,0.4824102401733398
0.4344320297241211,0.4824102401733398
0.4227676391601562,0.4947217941284179
0.4227676391601562,0.4947217941284179
0.4190511703491211,0.4735639572143555
0.4190511703491211,0.4735639572143555
0.4369033813476562,0.4974140167236328
0.4369033813476562,0.4974140167236328
0.4105573654174804,0.4796081542968750
0.4105573654174804,0.4796081542968750
0.4352542877197266,0.4839065551757812
0.4352542877197266,0.4839065551757812
0.4236087799072266,0.4963783264160156
0.4236087799072266,0.4963783264160156
0.4199066162109375,0.4751146316528320
0.4199066162109375,0.4751146316528320
0.4378211975097656,0.4990436553955078
0.4378211975097656,0.4990436553955078
0.4114505767822266,0.4813179016113281
0.4114505767822266,0.4813179016113281
0.4363615036010742,0.4860139846801758
0.4363615036010742,0.4860139846801758
0.4246381759643554,0.4980474472045898
0.4246381759643554,0.4980474472045898
0.4210893630981445,0.4771064758300781
0.4210893630981445,0.4771064758300781
0.4390371322631836,0.5009634017944335
0.4390371322631836,0.5009634017944335
0.4128353118896484,0.4833812713623047
0.4128353118896484,0.4833812713623047
0.4377027511596679,0.4880556106567382
0.4377027511596679,0.4880556106567382
0.4259885787963867,0.5002796173095703
0.4421092987060547,0.5002796173095703
0.4224048614501953,0.4791028976440430
0.4224048614501953,0.4791028976440430
0.4402519226074219,0.5031681060791016
0.4402519226074219,0.5031681060791016
0.4136901855468750,0.4849210739135742
0.4136901855468750,0.4849210739135742
0.4384992599487305,0.4890975952148438
0.4384992599487305,0.4890975952148438
0.4262294769287109,0.5006698608398438
0.4262294769287109,0.5006698608398438
0.4223264694213867,0.4785827636718750
0.4223264694213867,0.4785827636718750
0.4394508361816406,0.5015178680419922
0.4394508361816406,0.5015178680419922
0.4122562408447266,0.4820920944213867
0.4122562408447266,0.4820920944213867
0.4361806869506836,0.4852752685546875
0.4361806869506836,0.4852752685546875
0.4231653213500977,0.4959634780883789
0.4231653213500977,0.4959634780883789
0.4190042495727539,0.4731914520263671
0.4190042495727539,0.4731914520263671
0.4358425140380859,0.4960264205932617
0.4358425140380859,0.4960264205932617
0.4088310241699218,0.4764507293701172
0.4088310241699218,0.4764507293701172
0.4328035354614257,0.4800207138061523
0.4328035354614257,0.4800207138061523
0.4198671340942383,0.4905412673950195
0.4198671340942383,0.4905412673950195
0.4157684326171875,0.4681011199951172
0.4157684326171875,0.4681011199951172
0.4327125549316406,0.4907598495483398
0.4327125549316406,0.4907598495483398
0.4057966232299804,0.4716144561767578
0.4057966232299804,0.4716144561767578
0.4299785614013672,0.4752737045288086
0.4299785614013672,0.4752737045288086
0.4170993804931640,0.4860614776611328
0.4170993804931640,0.4860614776611328
0.4134155273437500,0.4640041351318359
0.4056512832641602,0.4640041351318359
0.4304151535034180,0.4871234893798828
0.4304151535034180,0.4871234893798828
0.4038013458251953,0.4681777954101562
0.4038013458251953,0.4681777954101562
0.4282230377197265,0.4722295761108398
0.4282230377197265,0.4722295761108398
0.4154033660888672,0.4834333419799804
0.4154033660888672,0.4834333419799804
0.4119220733642578,0.4617748260498047
0.4119220733642578,0.4617748260498047
0.4291723251342773,0.4850280761718750
0.4291723251342773,0.4850280761718750
0.4029058456420898,0.4668056488037109
0.4029058456420898,0.4668056488037109
0.4276399612426758,0.4712734222412109
0.4276399612426758,0.4712734222412109
0.4151498794555664,0.4831609725952148
0.4151498794555664,0.4831609725952148
0.4120708465576172,0.4618486404418945
0.4120708465576172,0.4618486404418945
0.4296586990356445,0.4856826782226562
0.4296586990356445,0.4856826782226562
0.4033847808837890,0.4673223495483398
0.4033847808837890,0.4673223495483398
0.4284049987792969,0.4723548889160156
0.4284049987792969,0.4723548889160156
0.4157289505004882,0.4840902328491211
0.4157289505004882,0.4840902328491211
0.4127443313598633,0.4627653121948242
0.4127443313598633,0.4627653121948242
0.4301210403442383,0.4868110656738281
0.4301210403442383,0.4868110656738281
0.4041246414184570,0.4684324264526367
0.4041246414184570,0.4684324264526367
0.4290973663330078,0.4737951278686523
0.4290973663330078,0.4737951278686523
0.4164390563964844,0.4854143142700195
0.4164390563964844,0.4854143142700195
0.4135986328125000,0.4641981124877930
0.4135986328125000,0.4641981124877930
0.4311973571777344,0.4882438659667969
0.4214870452880859,0.4882438659667969
0.4048925399780273,0.4700523376464844
0.4048925399780273,0.4700523376464844
0.4300060272216797,0.4753091812133789
0.4300060272216797,0.4753091812133789
0.4173603057861328,0.4870153427124023
0.4173603057861328,0.4870153427124023
0.4147527694702148,0.4660417556762695
0.4147527694702148,0.4660417556762695
0.4322885513305664,0.4902368545532226
0.4322885513305664,0.4902368545532226
0.4061988830566406,0.4719749450683594
0.4061988830566406,0.4719749450683594
0.4314474105834961,0.4771236419677734
0.4314474105834961,0.4771236419677734
0.4185710906982422,0.4892246246337890
0.4185710906982422,0.4892246246337890
0.4160333633422851,0.4678585052490234
0.4160333633422851,0.4678585052490234
0.4334941864013672,0.4922956466674804
0.4334941864013672,0.4922956466674804
0.4074251174926758,0.4739559173583984
0.4074251174926758,0.4739559173583984
0.4324739456176758,0.4793397903442382
0.4324739456176758,0.4793397903442382
0.4199369430541992,0.4911203384399414
0.4199369430541992,0.4911203384399414
0.4172086715698242,0.4699396133422851
0.4172086715698242,0.4699396133422851
0.4348033905029297,0.4939418792724609
0.4348033905029297,0.4939418792724609
0.4086839675903320,0.4758476257324218
0.4086839675903320,0.4758476257324218
0.4338020324707031,0.4812480926513671
0.4338020324707031,0.4812480926513671
0.4211471557617187,0.4929868698120117
0.4211471557617187,0.4929868698120117
0.4182929992675781,0.4717884063720703
0.4182929992675781,0.4717884063720703
0.4360691070556640,0.4962186813354492
0.4360691070556640,0.4962186813354492
0.4099857330322266,0.4781038284301757
0.4099857330322266,0.4781038284301757
0.4352697372436523,0.4835243225097656
0.4352697372436523,0.4835243225097656
0.4223539352416992,0.4952882766723632
0.4223539352416992,0.4952882766723632
0.4201131820678711,0.4744365692138672
0.4201131820678711,0.4744365692138672
0.4375871658325195,0.4986499786376953
0.4375871658325195,0.4986499786376953
0.4115718841552734,0.4804956436157226
0.4115718841552734,0.4804956436157226
0.4368770599365234,0.4858217239379883
0.4368770599365234,0.4858217239379883
0.4236963272094726,0.4975393295288086
0.4236963272094726,0.4975393295288086
0.4213279724121093,0.4761468887329101
0.4134183883666992,0.4761468887329101
0.4383968353271484,0.4999317169189453
0.4383968353271484,0.4999317169189453
0.4122007369995117,0.4812904357910156
0.4122007369995117,0.4812904357910156
0.4373371124267578,0.4864225387573242
0.4373371124267578,0.4864225387573242
0.4238027572631836,0.4977006912231445
0.4238027572631836,0.4977006912231445
0.4212427139282227,0.4760805130004883
0.4212427139282227,0.4760805130004883
0.4383579254150390,0.5000244140625000
0.4383579254150390,0.5000244140625000
0.4119083404541016,0.4809110641479492
0.4119083404541016,0.4809110641479492
0.4368890762329101,0.4859498977661132
0.4368890762329101,0.4859498977661132
0.4232860565185547,0.4967393875122070
0.4232860565185547,0.4967393875122070
0.4203203201293945,0.4744817733764648
0.4203203201293945,0.4744817733764648
0.4369863510131836,0.4977561950683593
0.4369863510131836,0.4977561950683593
0.4102449417114258,0.4779144287109375
0.4102449417114258,0.4779144287109375
0.4347484588623047,0.4820749282836914
0.4347484588623047,0.4820749282836914
0.4204164505004883,0.4920856475830078
0.4204164505004883,0.4920856475830078
0.4174203872680664,0.4694091796875000
0.4174203872680664,0.4694091796875000
0.4339010238647461,0.4924066543579101
0.4339010238647461,0.4924066543579101
0.4069215774536133,0.4724390029907226
0.4069215774536133,0.4724390029907226
0.4089935302734375,0.4641632080078125
0.4169048309326172,0.4641632080078125
0.4334089279174805,0.4840192794799805
0.4135814666748047,0.4840192794799805
0.4068134307861328,0.4791498184204102
0.4068134307861328,0.4791498184204102
0.4221851348876953,0.4676914215087891
0.4221851348876953,0.4676914215087891
0.4251462936401367,0.4885557174682617
0.4251462936401367,0.4885557174682617
0.4071258544921875,0.4612970352172852
0.4071258544921875,0.4612970352172852
0.4320470809936524,0.4815422058105469
0.4320470809936524,0.4815422058105469
0.4051832199096679,0.4771448135375976
0.4051832199096679,0.4771448135375976
0.4213588714599609,0.4664680480957031
0.4213588714599609,0.4664680480957031
0.4245740890502930,0.4875852584838867
0.4245740890502930,0.4875852584838867
0.4072237014770508,0.4605531692504883
0.4072237014770508,0.4605531692504883
0.4314542770385742,0.4808944702148437
0.4314542770385742,0.4808944702148437
0.4051059722900390,0.4769588470458984
0.4051059722900390,0.4769588470458984
0.4213479995727539,0.4665761947631836
0.4213479995727539,0.4665761947631836
0.4249763488769531,0.4877958297729492
0.4249763488769531,0.4877958297729492
0.4071693420410156,0.4607219696044922
0.4071693420410156,0.4607219696044922
0.4318696975708008,0.4817871093750000
0.4318696975708008,0.4817871093750000
0.4055116653442383,0.4777456283569336
0.4055116653442383,0.4777456283569336
0.4224037170410156,0.4677228927612305
0.4224037170410156,0.4677228927612305
0.4253557205200195,0.4890117645263672
0.4253557205200195,0.4890117645263672
0.4081970214843750,0.4625387191772461
0.4081970214843750,0.4625387191772461
0.4331010818481445,0.4836479187011719
0.4331010818481445,0.4836479187011719
0.4069931030273438,0.4796195983886719
0.4069931030273438,0.4796195983886719
0.4233633041381836,0.4693101882934570
0.4233633041381836,0.4693101882934570
0.4263095855712891,0.4908588409423828
0.4263095855712891,0.4908588409423828
0.4090856552124023,0.4641294479370117
0.4090856552124023,0.4641294479370117
0.4341636657714844,0.4850475311279296
0.4341636657714844,0.4850475311279296
0.4072065353393555,0.4805986404418945
0.4072065353393555,0.4805986404418945
0.4240797042846680,0.4706388473510742
0.4240797042846680,0.4706388473510742
0.4271066665649414,0.4919591903686523
0.4271066665649414,0.4919591903686523
0.4102186203002929,0.4653030395507812
0.4102186203002929,0.4653030395507812
0.4346111297607422,0.4860918045043945
0.4346111297607422,0.4860918045043945
0.4079549789428711,0.4821212768554687
0.4079549789428711,0.4821212768554687
0.4249443054199218,0.4720355987548828
0.4249443054199218,0.4720355987548828
0.4281148910522461,0.4932506561279297
0.4281148910522461,0.4932506561279297
0.4106031417846679,0.4663661956787109
0.4185173034667969,0.4663661956787109
0.4352771759033203,0.4874897003173828
0.4352771759033203,0.4874897003173828
0.4086959838867187,0.4830745697021484
0.4086959838867187,0.4830745697021484
0.4258758544921875,0.4730169296264648
0.4258758544921875,0.4730169296264648
0.4283117294311523,0.4938508987426757
0.4283117294311523,0.4938508987426757
0.4113183975219726,0.4674407958984375
0.4113183975219726,0.4674407958984375
0.4358379364013672,0.4884801864624023
0.4358379364013672,0.4884801864624023
0.4097545623779297,0.4842378616333007
0.4097545623779297,0.4842378616333007
0.4264526367187500,0.4743324279785156
0.4264526367187500,0.4743324279785156
0.4294607162475586,0.4957906723022460
0.4294607162475586,0.4957906723022460
0.4124422073364258,0.4695413589477539
0.4124422073364258,0.4695413589477539
0.4374401092529297,0.4906391143798828
0.4374401092529297,0.4906391143798828
0.4107473373413086,0.4863218307495117
0.4107473373413086,0.4863218307495117
0.4279180526733398,0.4768026351928711
0.4279180526733398,0.4768026351928711
0.4308208465576172,0.4981704711914062
0.4308208465576172,0.4981704711914062
0.4144397735595703,0.4720310211181640
0.4144397735595703,0.4720310211181640
0.4386291503906250,0.4930446624755859
0.4386291503906250,0.4930446624755859
0.4123374938964844,0.4891542434692382
0.4123374938964844,0.4891542434692382
0.4295190811157226,0.4795572280883789
0.4295190811157226,0.4795572280883789
0.4327194213867188,0.5008220672607422
0.4327194213867188,0.5008220672607422
0.4157106399536133,0.4742105484008789
0.4157106399536133,0.4742105484008789
0.4402284622192383,0.4957569122314453
0.4402284622192383,0.4957569122314453
0.4138223648071289,0.4913612365722656
0.4138223648071289,0.4913612365722656
0.4311429977416992,0.4815118789672851
0.4311429977416992,0.4815118789672851
0.4331148147583008,0.5016014099121093
0.4331148147583008,0.5016014099121093
0.4153907775878906,0.4739490509033203
0.4153907775878906,0.4739490509033203
0.4390108108520508,0.4933679580688476
0.4390108108520508,0.4933679580688476
0.4114294052124023,0.4870130538940429
0.4114294052124023,0.4870130538940429
0.4272840499877930,0.4754762649536133
0.4272840499877930,0.4754762649536133
0.4289302825927734,0.4951246261596680
0.4289302825927734,0.4951246261596680
0.4111501693725586,0.4668880462646484
0.4111501693725586,0.4668880462646484
0.4350116729736328,0.4866062164306640
0.4350116729736328,0.4866062164306640
0.4068500518798828,0.4798667907714844
0.4068500518798828,0.4798667907714844
0.4231430053710937,0.4687534332275390
0.4231430053710937,0.4687534332275390
0.4244235992431640,0.4879978179931641
0.4244235992431640,0.4879978179931641
0.4074411392211914,0.4601314544677734
0.4074411392211914,0.4601314544677734
0.4303785324096679,0.4797964096069336
0.4303785324096679,0.4797964096069336
0.4030649185180664,0.4739009857177734
0.4030649185180664,0.4739009857177734
0.4199398040771484,0.4634113311767578
0.4199398040771484,0.4634113311767578
0.4218240737915039,0.4831993103027343
0.4218240737915039,0.4831993103027343
0.4046401977539062,0.4556596755981445
0.4046401977539062,0.4556596755981445
0.4283666610717773,0.4764713287353515
0.4283666610717773,0.4764713287353515
0.4012458801269531,0.4708854675292968
0.4012458801269531,0.4708854675292968
0.4186397552490234,0.4610435485839843
0.4186397552490234,0.4610435485839843
0.4202098846435547,0.4811719894409179
0.4202098846435547,0.4811719894409179
0.4036926269531250,0.4544466018676758
0.4036926269531250,0.4544466018676758
0.4276559829711914,0.4755483627319336
0.4276559829711914,0.4755483627319336
0.4010971069335937,0.4701467514038086
0.4010971069335937,0.4701467514038086
0.4181276321411133,0.4606298446655273
0.4181276321411133,0.4606298446655273
0.4201240539550781,0.4811519622802734
0.4201240539550781,0.4811519622802734
0.4037939071655273,0.4547893524169921
0.4037939071655273,0.4547893524169921
0.4282979965209961,0.4759202957153320
0.4282979965209961,0.4759202957153320
0.4011886596679687,0.4706565856933593
0.4011886596679687,0.4706565856933593
0.4187988281250000,0.4614910125732422
0.4187988281250000,0.4614910125732422
0.4206968307495117,0.4821470260620117
0.4206968307495117,0.4821470260620117
0.4048736572265625,0.4557849884033203
0.4048736572265625,0.4557849884033203
0.4284364700317383,0.4766956329345703
0.4284364700317383,0.4766956329345703
0.4018547058105469,0.4718215942382812
0.4018547058105469,0.4718215942382812
0.4194442749023438,0.4625123977661132
0.4194442749023438,0.4625123977661132
0.4216072082519531,0.4830762863159179
0.4216072082519531,0.4830762863159179
0.4052398681640625,0.4564338684082031
0.4052398681640625,0.4564338684082031
0.4291746139526367,0.4781587600708008
0.4291746139526367,0.4781587600708008
0.4024698257446289,0.4730323791503906
0.4024698257446289,0.4730323791503906
0.4205881118774414,0.4638708114624023
0.4205881118774414,0.4638708114624023
0.4219808578491211,0.4844987869262695
0.4219808578491211,0.4844987869262695
0.4060100555419922,0.4581138610839843
0.4060100555419922,0.4581138610839843
0.4301244735717774,0.4797752380371094
0.4301244735717774,0.4797752380371094
0.4036966323852539,0.4744297027587890
0.4036966323852539,0.4744297027587890
0.4211477279663086,0.4653676986694336
0.4211477279663086,0.4653676986694336
0.4231601715087890,0.4864231109619140
0.4231601715087890,0.4864231109619140
0.4072809219360352,0.4601411819458008
0.4072809219360352,0.4601411819458008
0.4317340850830078,0.4817859649658203
0.4317340850830078,0.4817859649658203
0.4043695449829102,0.4762384414672851
0.4043695449829102,0.4762384414672851
0.4224666595458984,0.4673114776611328
0.4224666595458984,0.4673114776611328
0.4243080139160156,0.4880933761596680
0.4243080139160156,0.4880933761596680
0.4086931228637695,0.4616283416748047
0.4086931228637695,0.4616283416748047
0.4324504852294922,0.4830659866333007
0.4324504852294922,0.4830659866333007
0.4054607391357422,0.4782297134399414
0.4054607391357422,0.4782297134399414
0.4235870361328125,0.4691734313964844
0.4235870361328125,0.4691734313964844
0.4256355285644531,0.4899341583251953
0.4256355285644531,0.4899341583251953
0.4095142364501953,0.4633323669433593
0.4095142364501953,0.4633323669433593
0.4336595535278320,0.4855207443237304
0.4336595535278320,0.4855207443237304
0.4068632125854492,0.4802684783935547
0.4068632125854492,0.4802684783935547
0.4251394271850586,0.4713146209716796
0.4251394271850586,0.4713146209716796
0.4266277313232422,0.4920198440551757
0.4266277313232422,0.4920198440551757
0.4112262725830078,0.4659061431884766
0.4112262725830078,0.4659061431884766
0.4348188400268554,0.4874931335449219
0.4348188400268554,0.4874931335449219
0.4082656860351562,0.4821012496948242
0.4082656860351562,0.4821012496948242
0.4258718490600586,0.4726833343505859
0.4258718490600586,0.4726833343505859
0.4273435592651367,0.4932655334472656
0.4273435592651367,0.4932655334472656
0.4116291046142578,0.4666706085205078
0.4116291046142578,0.4666706085205078
0.4357446670532226,0.4880716323852539
0.4357446670532226,0.4880716323852539
0.4083498001098633,0.4824491500854492
0.4083498001098633,0.4824491500854492
0.4264446258544922,0.4737470626831055
0.4264446258544922,0.4737470626831055
0.4281005859375000,0.4942903518676758
0.4281005859375000,0.4942903518676758
0.4127180099487305,0.4677715301513672
0.4127180099487305,0.4677715301513672
0.4363248825073242,0.4896492004394531
0.4363248825073242,0.4896492004394531
0.4091669082641601,0.4843282699584961
0.4091669082641601,0.4843282699584961
0.4274677276611328,0.4751747131347656
0.4274677276611328,0.4751747131347656
0.4290521621704101,0.4952545166015625
0.4290521621704101,0.4952545166015625
0.4125062942504883,0.4676433563232422
0.4125062942504883,0.4676433563232422
0.4357561111450195,0.4885831832885742
0.4357561111450195,0.4885831832885742
0.4077501296997070,0.4816268920898437
0.4347009658813477,0.4816268920898437
0.4254947662353515,0.4710582733154297
0.4254947662353515,0.4710582733154297
0.4257242202758789,0.4900611877441406
0.4257242202758789,0.4900611877441406
0.4091611862182617,0.4621496200561523
0.4091611862182617,0.4621496200561523
0.4320459365844727,0.4829000473022461
0.4320459365844727,0.4829000473022461
0.4045097351074219,0.4758035659790039
0.4045097351074219,0.4758035659790039
0.4217142105102539,0.4655754089355468
0.4217142105102539,0.4655754089355468
0.4221370697021484,0.4850875854492187
0.4221370697021484,0.4850875854492187
0.4061428070068359,0.4571971893310547
0.4061428070068359,0.4571971893310547
0.4294023513793945,0.4782268524169921
0.4294023513793945,0.4782268524169921
0.4015857696533203,0.4712390899658203
0.4286184310913086,0.4712390899658203
0.4192543029785156,0.4617685317993164
0.3995258331298828,0.4617685317993164
0.4203569412231445,0.4817184448242187
0.4203569412231445,0.4817184448242187
0.4106517791748047,0.4776580810546875
0.4290224075317383,0.4776580810546875
0.4105047225952148,0.4566661834716796
0.4105047225952148,0.4566661834716796
0.4261402130126953,0.4811267852783203
0.4261402130126953,0.4811267852783203
0.4015783309936523,0.4604621887207031
0.4015783309936523,0.4604621887207031
0.4268777847290039,0.4686985015869141
0.4268777847290039,0.4686985015869141
0.4111501693725586,0.4786548614501953
0.4111501693725586,0.4786548614501953
0.4115501403808594,0.4581607818603515
0.4115501403808594,0.4581607818603515
0.4274030685424804,0.4832061767578125
0.4274030685424804,0.4832061767578125
0.4028148651123047,0.4626268386840820
0.4028148651123047,0.4626268386840820
0.4049835205078125,0.4710245132446289
0.4049835205078125,0.4710245132446289
0.4126625061035156,0.4812469482421875
0.4313747406005859,0.4812469482421875
0.4129257202148438,0.4603477478027344
0.4024972915649414,0.4603477478027344
0.4287895202636718,0.4853925704956055
0.4287895202636718,0.4853925704956055
0.4042476654052734,0.4646341323852539
0.4042476654052734,0.4646341323852539
0.4296632766723633,0.4731966018676758
0.4296632766723633,0.4731966018676758
0.4139316558837891,0.4832244873046875
0.4139316558837891,0.4832244873046875
0.4142366409301758,0.4624729156494141
0.4142366409301758,0.4624729156494141
0.4299201965332031,0.4874462127685547
0.4299201965332031,0.4874462127685547
0.4055185317993164,0.4665430068969726
0.4055185317993164,0.4665430068969726
0.4307813644409180,0.4748359680175781
0.4307813644409180,0.4748359680175781
0.4148838043212891,0.4843906402587890
0.4148838043212891,0.4843906402587890
0.4038877487182617,0.4637094497680664
0.4038877487182617,0.4637094497680664
0.4307865142822265,0.4887714385986328
0.4235429763793945,0.4887714385986328
0.4063734054565429,0.4680067062377929
0.4063734054565429,0.4680067062377929
0.4317901611328125,0.4764347076416016
0.4317901611328125,0.4764347076416016
0.4158382415771484,0.4864425659179688
0.4158382415771484,0.4864425659179688
0.4164911270141601,0.4659044265747070
