REDsignal,IRsignal
0.5205139160156250,0.6120986938476562
0.5205139160156250,0.6120986938476562
0.5073120117187500,0.6108467102050781
0.5223438262939453,0.6108467102050781
0.5160947799682617,0.6083250045776367
0.5160947799682617,0.6083250045776367
0.5177965164184570,0.6176273345947265
0.5177965164184570,0.6176273345947265
0.5093948364257812,0.6035608291625977
0.5093948364257812,0.6035608291625977
0.5228919982910156,0.6157602310180664
0.5228919982910156,0.6157602310180664
0.5086687088012695,0.6162574768066406
0.5086687088012695,0.6162574768066406
0.5178857803344726,0.6101972579956054
0.5178857803344726,0.6101972579956054
0.5196830749511718,0.6215503692626952
0.5196830749511718,0.6215503692626952
0.5123422622680663,0.6080486297607421
0.5123422622680663,0.6080486297607421
0.5245370864868164,0.6218044281005859
0.5245370864868164,0.6218044281005859
0.5107852935791015,0.6189371109008789
0.5107852935791015,0.6189371109008789
0.5196166992187500,0.6147806167602539
0.5196166992187500,0.6147806167602539
0.5225715637207031,0.6259895324707031
0.5225715637207031,0.6259895324707031
0.5139822006225586,0.6141786575317383
0.5139822006225586,0.6141786575317383
0.5266582489013671,0.6242494583129883
0.5266582489013671,0.6242494583129883
0.5128990173339844,0.6233951568603515
0.5128990173339844,0.6233951568603515
0.5226940155029297,0.6192609786987304
0.5226940155029297,0.6192609786987304
0.5241788864135742,0.6322471618652343
0.5241788864135742,0.6322471618652343
0.5160381317138671,0.6164691925048827
0.5160381317138671,0.6164691925048827
0.5280784606933594,0.6282091140747070
0.5280784606933594,0.6282091140747070
0.5153211593627930,0.6271791458129883
0.5153211593627930,0.6271791458129883
0.5238321304321288,0.6242826461791992
0.5238321304321288,0.6242826461791992
0.5256837844848633,0.6332468032836914
0.5256837844848633,0.6332468032836914
0.5170789718627929,0.6187837600708007
0.5170789718627929,0.6187837600708007
0.5297189712524414,0.6293558120727539
0.5297189712524414,0.6293558120727539
0.5144691467285156,0.6277994155883789
0.5144691467285156,0.6277994155883789
0.5217035293579101,0.6171192169189453
0.5217035293579101,0.6171192169189453
0.5203594207763672,0.6218347549438477
0.5203594207763672,0.6218347549438477
0.5088867187500000,0.5991594314575195
0.5088867187500000,0.5991594314575195
0.5164667129516601,0.6032255172729492
0.5164667129516601,0.6032255172729492
0.4986162185668945,0.5929378509521485
0.4986162185668945,0.5929378509521485
0.5045076370239258,0.5823881149291992
0.5045076370239258,0.5823881149291992
0.5049247741699219,0.5896385192871093
0.5049247741699219,0.5896385192871093
0.4945129394531250,0.5744825363159179
0.4945129394531250,0.5744825363159179
0.5062282562255859,0.5823011398315430
0.5062282562255859,0.5823011398315430
0.4913108825683594,0.5799728393554687
0.5062414169311523,0.5799728393554687
0.5008237838745117,0.5744865417480468
0.5008237838745117,0.5744865417480468
0.5021667480468750,0.5868461608886718
0.5021667480468750,0.5868461608886718
0.4936603546142578,0.5710750579833984
0.4936603546142578,0.5710750579833984
0.5063667297363281,0.5826593399047851
0.5063667297363281,0.5826593399047851
0.4934331893920898,0.5827926635742188
0.4934331893920898,0.5827926635742188
0.5026536941528320,0.5811653137207031
0.5026536941528320,0.5811653137207031
0.5057664871215820,0.5929183959960938
0.5057664871215820,0.5929183959960938
0.4981813430786133,0.5818748474121094
0.4981813430786133,0.5818748474121094
0.5131811141967774,0.5960226058959961
0.5131811141967774,0.5960226058959961
0.5002567291259765,0.5995519638061523
0.5002567291259765,0.5995519638061523
0.5101879119873046,0.5949405670166016
0.5101879119873046,0.5949405670166016
0.5131301879882812,0.6076429367065429
0.5131301879882812,0.6076429367065429
0.5057596206665039,0.5951980590820313
0.5057596206665039,0.5951980590820313
0.5184734344482421,0.6087770462036133
0.5184734344482421,0.6087770462036133
0.5048463821411132,0.6067869186401367
0.5048463821411132,0.6067869186401367
0.5133659362792968,0.6021120071411132
0.5133659362792968,0.6021120071411132
0.5166778564453125,0.6135749816894531
0.5166778564453125,0.6135749816894531
0.5076496124267578,0.6015884399414062
0.5076496124267578,0.6015884399414062
0.5203325271606445,0.6107585906982421
0.5203325271606445,0.6107585906982421
0.5066173553466796,0.6099620819091797
0.5215879440307617,0.6099620819091797
0.5159465789794921,0.6054319381713867
0.5159465789794921,0.6054319381713867
0.5177867889404296,0.6184112548828125
0.5177867889404296,0.6184112548828125
0.5090995788574219,0.6030166625976562
0.5090995788574219,0.6030166625976562
0.5216257095336914,0.6141752243041992
0.5216257095336914,0.6141752243041992
0.5087568283081054,0.6138719558715821
0.5233852386474609,0.6138719558715821
0.5171630859374999,0.6107660293579101
0.5171630859374999,0.6107660293579101
0.5198095321655273,0.6207761764526367
0.5198095321655273,0.6207761764526367
0.5111961364746094,0.6074850082397460
0.5111961364746094,0.6074850082397460
0.5247310638427735,0.6189279556274414
0.5247310638427735,0.6189279556274414
0.5107412338256836,0.6205541610717773
0.5257947921752929,0.6205541610717773
0.5196304321289062,0.6140722274780274
0.5196304321289062,0.6140722274780274
0.5219627380371094,0.6257972717285156
0.5219627380371094,0.6257972717285156
0.5141756057739257,0.6125524520874023
0.5141756057739257,0.6125524520874023
0.5266365051269531,0.6253807067871093
0.5266365051269531,0.6253807067871093
0.5130495071411133,0.6233350753784179
0.5130495071411133,0.6233350753784179
0.5216680526733398,0.6184043884277344
0.5216680526733398,0.6184043884277344
0.5249742507934571,0.6299383163452148
0.5249742507934571,0.6299383163452148
0.5155122756958007,0.6182670593261719
0.5155122756958007,0.6182670593261719
0.5284051895141602,0.6272283554077148
0.5284051895141602,0.6272283554077148
0.5143209457397461,0.6267625808715820
0.5143209457397461,0.6267625808715820
0.5136960983276367,0.6216424942016602
0.5257472991943359,0.6341823577880860
0.5257472991943359,0.6341823577880860
0.5163133621215820,0.6176616668701171
0.5163133621215820,0.6176616668701171
0.5282684326171875,0.6262939453124999
0.5282684326171875,0.6262939453124999
0.5134151458740234,0.6221803665161133
0.5134151458740234,0.6221803665161133
0.5187177658081055,0.6124814987182617
0.5187177658081055,0.6124814987182617
0.5175413131713867,0.6134902954101562
0.5175413131713867,0.6134902954101562
0.5034170150756836,0.5907703399658203
0.5034170150756836,0.5907703399658203
0.5132108688354492,0.5936885833740234
0.5132108688354492,0.5936885833740234
0.4959154129028320,0.5892436981201171
0.4959154129028320,0.5892436981201171
0.5020837783813477,0.5779741287231445
0.5020837783813477,0.5779741287231445
0.5033592224121094,0.5865989685058594
0.5033592224121094,0.5865989685058594
0.4938285827636719,0.5712484359741211
0.4938285827636719,0.5712484359741211
0.5056325912475585,0.5821260452270508
0.5056325912475585,0.5821260452270508
0.4916370391845703,0.5794961929321288
0.4916370391845703,0.5794961929321288
0.4994018554687500,0.5736196517944335
0.4994018554687500,0.5736196517944335
0.5031045913696289,0.5851100921630860
0.5031045913696289,0.5851100921630860
0.4935916900634765,0.5735401153564453
0.4935916900634765,0.5735401153564453
0.5069572448730468,0.5831354141235351
0.5069572448730468,0.5831354141235351
0.4939950942993164,0.5845750808715821
0.4939950942993164,0.5845750808715821
0.5038919448852539,0.5815755844116210
0.5038919448852539,0.5815755844116210
0.5076261520385742,0.5972568511962890
0.5076261520385742,0.5972568511962890
0.4997692108154297,0.5848943710327148
0.4997692108154297,0.5848943710327148
0.5136589050292969,0.5979555130004882
0.5136589050292969,0.5979555130004882
0.5021415710449219,0.6000686645507812
0.5021415710449219,0.6000686645507812
0.5106897354125977,0.5978084564208984
0.5106897354125977,0.5978084564208984
0.5141916275024414,0.6086963653564453
0.5141916275024414,0.6086963653564453
0.5054037094116210,0.5961736679077149
0.5054037094116210,0.5961736679077149
0.5191989898681640,0.6071107864379882
0.5191989898681640,0.6071107864379882
0.5056531906127929,0.6091272354125976
0.5056531906127929,0.6091272354125976
0.5136692047119140,0.6019449234008789
0.5136692047119140,0.6019449234008789
0.5164398193359375,0.6136213302612304
0.5164398193359375,0.6136213302612304
0.5079998016357422,0.6004131317138671
0.5079998016357422,0.6004131317138671
0.5206192016601562,0.6126525878906249
0.5206192016601562,0.6126525878906249
0.5073703765869141,0.6108758926391601
0.5073703765869141,0.6108758926391601
0.5152570724487304,0.6053432464599610
0.5152570724487304,0.6053432464599610
0.5189294815063477,0.6171627044677734
0.5189294815063477,0.6171627044677734
0.5092117309570312,0.6056579589843750
0.5092117309570312,0.6056579589843750
0.5224010467529296,0.6142341613769531
0.5224010467529296,0.6142341613769531
0.5086292266845703,0.6145568847656250
0.5086292266845703,0.6145568847656250
0.5177770614624023,0.6094877243041992
0.5177770614624023,0.6094877243041992
0.5206380844116211,0.6232246398925781
0.5206380844116211,0.6232246398925781
0.5114187240600586,0.6084566116333008
0.5114187240600586,0.6084566116333008
0.5245399475097656,0.6189926147460937
0.5245399475097656,0.6189926147460937
0.5121088027954102,0.6196786880493164
0.5263120651245117,0.6196786880493164
0.5195600509643554,0.6160852432250976
0.5195600509643554,0.6160852432250976
0.5231300354003906,0.6262247085571289
0.5231300354003906,0.6262247085571289
0.5132429122924804,0.6132843017578125
0.5132429122924804,0.6132843017578125
0.5274850845336914,0.6237985610961914
0.5274850845336914,0.6237985610961914
0.5139810562133789,0.6257938385009766
0.5139810562133789,0.6257938385009766
0.5217618942260742,0.6185337066650390
0.5217618942260742,0.6185337066650390
0.5250492095947266,0.6303216934204101
0.5250492095947266,0.6303216934204101
0.5160598754882812,0.6172594070434571
0.5160598754882812,0.6172594070434571
0.5287290573120117,0.6291246414184570
0.5287290573120117,0.6291246414184570
0.5156187057495117,0.6273645401000977
0.5156187057495117,0.6273645401000977
0.5225509643554688,0.6210250854492188
0.5225509643554688,0.6210250854492188
0.5265151977539062,0.6320400238037109
0.5265151977539062,0.6320400238037109
0.5156885147094726,0.6186779022216796
0.5156885147094726,0.6186779022216796
0.5271474838256835,0.6230781555175781
0.5271474838256835,0.6230781555175781
0.5115423202514648,0.6175907135009765
0.5115423202514648,0.6175907135009765
0.5155654907226562,0.6034292221069336
0.5155654907226562,0.6034292221069336
0.5139999389648438,0.6073390960693359
0.5139999389648438,0.6073390960693359
0.5001834869384766,0.5843650817871093
0.5001834869384766,0.5843650817871093
0.5096048355102539,0.5882280349731445
0.5096048355102539,0.5882280349731445
0.4952871322631835,0.5843914031982421
0.4952871322631835,0.5843914031982421
0.5004501342773438,0.5771312713623047
0.5004501342773438,0.5771312713623047
0.5023326873779297,0.5761104583740234
0.4905418395996093,0.5761104583740234
0.4981201171875000,0.5830535888671875
0.4981201171875000,0.5830535888671875
0.4959056854248047,0.5715625762939452
0.4959056854248047,0.5715625762939452
0.5054964065551758,0.5834306716918946
0.5054964065551758,0.5834306716918946
0.4901590347290039,0.5756452560424804
0.4901590347290039,0.5756452560424804
0.5045236587524414,0.5780788421630859
0.5045236587524414,0.5780788421630859
0.5000186920166015,0.5870836257934570
0.5000186920166015,0.5870836257934570
0.4987277984619141,0.5781234741210938
0.4987277984619141,0.5781234741210938
0.5084753036499023,0.5923238754272461
0.5084753036499023,0.5923238754272461
0.4970638275146484,0.5876964569091797
0.4970638275146484,0.5876964569091797
0.5113586425781250,0.5921413421630859
0.5113586425781250,0.5921413421630859
0.5074304580688477,0.6022470474243163
0.5074304580688477,0.6022470474243163
0.5047800064086914,0.5925802230834961
0.5047800064086914,0.5925802230834961
0.5168260574340821,0.6064870834350585
0.5168260574340821,0.6064870834350585
0.5032133102416992,0.5999078750610352
0.5032133102416992,0.5999078750610352
0.5163585662841796,0.6020748138427734
0.5163585662841796,0.6020748138427734
0.5102754592895508,0.6100450515747070
0.5176460266113281,0.6100450515747070
0.5095149993896484,0.5995182037353516
0.5095149993896484,0.5995182037353516
0.5197151184082031,0.6117719650268555
0.5197151184082031,0.6117719650268555
0.5055999755859375,0.6044963836669922
0.5055999755859375,0.6044963836669922
0.5168460845947266,0.6057655334472656
0.5168460845947266,0.6057655334472656
0.5135381698608398,0.6140413284301758
0.5135381698608398,0.6140413284301758
0.5112304687500000,0.6030887603759766
0.5112304687500000,0.6030887603759766
0.5212549209594727,0.6153076171874999
0.5212549209594727,0.6153076171874999
0.5057956695556640,0.6077116012573242
0.5057956695556640,0.6077116012573242
0.5201053619384766,0.6096982955932617
0.5201053619384766,0.6096982955932617
0.5156816482543946,0.6180376052856446
0.5227912902832031,0.6180376052856446
0.5131948471069335,0.6073757171630859
0.5131948471069335,0.6073757171630859
0.5220640182495117,0.6196249008178710
0.5220640182495117,0.6196249008178710
0.5095144271850586,0.6128002166748047
0.5241554260253906,0.6128002166748047
0.5224222183227539,0.6148738861083984
0.5224222183227539,0.6148738861083984
0.5181512832641602,0.6231525421142577
0.5181512832641602,0.6231525421142577
0.5142225265502930,0.6119384765625000
0.5142225265502930,0.6119384765625000
0.5258508682250976,0.6246328353881836
0.5258508682250976,0.6246328353881836
0.5120424270629883,0.6175191879272460
0.5120424270629883,0.6175191879272460
0.5245994567871094,0.6193010330200195
0.5245994567871094,0.6193010330200195
0.5189163208007812,0.6271854400634765
0.5189163208007812,0.6271854400634765
0.5177679061889648,0.6164932250976562
0.5162406921386719,0.6164932250976562
0.5279411315917969,0.6288385391235352
0.5279411315917969,0.6288385391235352
0.5138654708862305,0.6218187332153320
0.5138654708862305,0.6218187332153320
0.5250028610229492,0.6227766036987304
0.5250028610229492,0.6227766036987304
0.5221332550048828,0.6312046051025391
0.5221332550048828,0.6312046051025391
0.5195989608764648,0.6198085784912110
0.5195989608764648,0.6198085784912110
0.5294082641601562,0.6316864013671875
0.5294082641601562,0.6316864013671875
0.5134088516235351,0.6231542587280273
0.5134088516235351,0.6231542587280273
0.5264871597290038,0.6231914520263672
0.5264871597290038,0.6231914520263672
0.5210683822631835,0.6281805038452148
0.5210683822631835,0.6281805038452148
0.5158710479736328,0.6115304946899414
0.5158710479736328,0.6115304946899414
0.5211668014526367,0.6154575347900391
0.5211668014526367,0.6154575347900391
0.5034988403320312,0.5989311218261718
0.5034988403320312,0.5989311218261718
0.5119199752807617,0.5916801452636719
0.5119199752807617,0.5916801452636719
0.5040378570556641,0.5935403823852539
0.5040378570556641,0.5935403823852539
0.4973751068115234,0.5771850585937500
0.4973751068115234,0.5771850585937500
0.5071231842041015,0.5864421844482421
0.5071231842041015,0.5864421844482421
0.4917966842651367,0.5771060943603515
0.4917966842651367,0.5771060943603515
0.5035594940185547,0.5770116806030273
0.5035594940185547,0.5770116806030273
0.4978912353515625,0.5841339111328124
0.5044961929321289,0.5841339111328124
0.4959789276123047,0.5725427627563476
0.4959789276123047,0.5725427627563476
0.5064085006713867,0.5848028182983398
0.5064085006713867,0.5848028182983398
0.4922584533691406,0.5782230377197265
0.5066751480102539,0.5782230377197265
0.5037981033325195,0.5800363540649414
0.5037981033325195,0.5800363540649414
0.5020374298095703,0.5902839660644531
0.5020374298095703,0.5902839660644531
0.5001131057739258,0.5811195373535156
0.5001131057739258,0.5811195373535156
0.5114233016967773,0.5961833953857422
0.5047966003417969,0.5961833953857422
0.4971714019775391,0.5913414001464844
0.4971714019775391,0.5913414001464844
0.5122226715087891,0.5950378417968750
0.5122226715087891,0.5950378417968750
0.5097644805908202,0.6051973342895508
0.5097644805908202,0.6051973342895508
0.5071752548217773,0.5951934814453125
0.5071752548217773,0.5951934814453125
0.5165250778198242,0.6081968307495117
0.5165250778198242,0.6081968307495117
0.5039634704589844,0.6020353317260742
0.5039634704589844,0.6020353317260742
0.5164890289306641,0.6035253524780273
0.5164890289306641,0.6035253524780273
0.5132417678833008,0.6121885299682617
0.5132417678833008,0.6121885299682617
0.5085988998413086,0.6003673553466796
0.5085988998413086,0.6003673553466796
0.5203250885009766,0.6131309509277344
0.5203250885009766,0.6131309509277344
0.5062437057495117,0.6061843872070313
0.5062437057495117,0.6061843872070313
0.5183223724365235,0.6073722839355469
0.5183223724365235,0.6073722839355469
0.5135736465454102,0.6155244827270507
0.5135736465454102,0.6155244827270507
0.5116075515747071,0.6041341781616211
0.5116075515747071,0.6041341781616211
0.5220554351806640,0.6168279647827148
0.5220554351806640,0.6168279647827148
0.5078104019165038,0.6099317550659179
0.5078104019165038,0.6099317550659179
0.5188213348388672,0.6107654571533203
0.5188213348388672,0.6107654571533203
0.5170349121093750,0.6197530746459960
0.5170349121093750,0.6197530746459960
0.5137973785400390,0.6083621978759766
0.5137973785400390,0.6083621978759766
0.5242012023925781,0.6211566925048828
0.5242012023925781,0.6211566925048828
0.5085697174072266,0.6141471862792969
0.5085697174072266,0.6141471862792969
0.5224096298217773,0.6155073165893554
0.5224096298217773,0.6155073165893554
0.5194198608398437,0.6243312835693359
0.5194198608398437,0.6243312835693359
0.5159168243408203,0.6128963470458985
0.5150756835937500,0.6128963470458985
0.5250068664550781,0.6252977371215820
0.5250068664550781,0.6252977371215820
0.5122186660766601,0.6188615798950196
0.5122186660766601,0.6188615798950196
0.5247087478637695,0.6199327468872070
0.5247087478637695,0.6199327468872070
0.5215782165527344,0.6288122177124024
0.5215782165527344,0.6288122177124024
0.5165056228637696,0.6166460037231445
0.5165056228637696,0.6166460037231445
0.5284320831298828,0.6295503616333008
0.5211536407470703,0.6295503616333008
0.5141727447509765,0.6227846145629883
0.5141727447509765,0.6227846145629883
0.5262817382812500,0.6236200332641602
0.5262817382812500,0.6236200332641602
0.5218574523925781,0.6317481994628906
0.5218574523925781,0.6317481994628906
0.5193597793579101,0.6196838378906250
0.5193597793579101,0.6196838378906250
0.5297784805297852,0.6317029953002929
0.5214569091796875,0.6317029953002929
0.5145538330078124,0.6234695434570312
0.5145538330078124,0.6234695434570312
0.5240678787231445,0.6212963104248047
0.5240678787231445,0.6212963104248047
0.5206300735473632,0.6255580902099609
0.5206300735473632,0.6255580902099609
0.5137624740600586,0.6066324234008789
0.5137624740600586,0.6066324234008789
0.5197546005249023,0.6100862503051757
0.5197546005249023,0.6100862503051757
0.4995300292968750,0.5940771102905273
0.4995300292968750,0.5940771102905273
0.5092048645019531,0.5879905700683593
0.5092048645019531,0.5879905700683593
0.5038547515869141,0.5914215087890625
0.5038547515869141,0.5914215087890625
0.4978122711181641,0.5756813049316406
0.4966072082519531,0.5756813049316406
0.5054323196411132,0.5855913162231445
0.5054323196411132,0.5855913162231445
0.4916147232055664,0.5773286819458008
0.4916147232055664,0.5773286819458008
0.5031726837158202,0.5768783569335937
0.5031726837158202,0.5768783569335937
0.5003660202026367,0.5850746154785156
0.5003660202026367,0.5850746154785156
0.4947750091552734,0.5723825454711914
0.4947750091552734,0.5723825454711914
0.5066545486450195,0.5856616973876952
0.4992742538452148,0.5856616973876952
0.4929187774658203,0.5794990539550781
0.4929187774658203,0.5794990539550781
0.5052520751953125,0.5814926147460937
0.5052520751953125,0.5814926147460937
0.5022926330566406,0.5920217514038085
0.5022926330566406,0.5920217514038085
0.5007225036621094,0.5825792312622070
0.5007225036621094,0.5825792312622070
0.5126672744750976,0.5982290267944336
0.5126672744750976,0.5982290267944336
0.4995718002319336,0.5939432144165039
0.4995718002319336,0.5939432144165039
0.5112218856811523,0.5962366104125977
0.5112218856811523,0.5962366104125977
0.5110633850097656,0.6068572998046875
0.5110633850097656,0.6068572998046875
0.5077365875244141,0.5957742691040039
0.5077365875244141,0.5957742691040039
0.5184127807617187,0.6094087600708008
0.5104677200317382,0.6094087600708008
0.5030347824096679,0.6026893615722656
0.5030347824096679,0.6026893615722656
0.5162818908691406,0.6037193298339844
0.5162818908691406,0.6037193298339844
0.5141372680664062,0.6126331329345703
0.5141372680664062,0.6126331329345703
0.5099847793579101,0.6004360198974609
0.5099847793579101,0.6004360198974609
0.5191720962524414,0.6130708694458008
0.5191720962524414,0.6130708694458008
0.5062007904052734,0.6067474365234374
0.5062007904052734,0.6067474365234374
0.5182130813598632,0.6071926116943359
0.5182130813598632,0.6071926116943359
0.5158269882202148,0.6163415908813477
0.5158269882202148,0.6163415908813477
0.5102142333984375,0.6037427902221679
0.5102142333984375,0.6037427902221679
0.5222122192382812,0.6171014785766601
0.5222122192382812,0.6171014785766601
0.5080953598022461,0.6104759216308594
0.5080953598022461,0.6104759216308594
0.5198850631713867,0.6111425399780274
0.5198850631713867,0.6111425399780274
0.5164632797241211,0.6200157165527344
0.5164632797241211,0.6200157165527344
0.5135639190673827,0.6080680847167969
0.5135639190673827,0.6080680847167969
0.5244827270507812,0.6214250564575196
0.5244827270507812,0.6214250564575196
0.5102405548095703,0.6150169372558594
0.5249828338623047,0.6150169372558594
0.5206941604614258,0.6152006149291992
0.5206941604614258,0.6152006149291992
0.5201190948486328,0.6247518539428710
0.5201190948486328,0.6247518539428710
0.5157320022583007,0.6126251220703125
0.5161142349243164,0.6126251220703125
0.5266427993774414,0.6258556365966796
0.5266427993774414,0.6258556365966796
0.5109523773193360,0.6188793182373047
0.5109523773193360,0.6188793182373047
0.5240283966064453,0.6197719573974609
0.5240283966064453,0.6197719573974609
0.5223604202270508,0.6289203643798827
0.5275777816772461,0.6289203643798827
0.5177856445312500,0.6164016723632812
0.5177856445312500,0.6164016723632812
0.5269809722900390,0.6291206359863281
0.5269809722900390,0.6291206359863281
0.5272579193115234,0.6318174362182617
0.5272579193115234,0.6318174362182617
0.5251396179199218,0.6199115753173828
0.5236787796020508,0.6199115753173828
0.5288280487060547,0.6270132064819336
0.5288280487060547,0.6270132064819336
0.5180871963500976,0.6282131195068359
0.5180871963500976,0.6282131195068359
0.5217464447021484,0.6192203521728515
0.5217464447021484,0.6192203521728515
0.5257701873779297,0.6306444168090820
0.5257701873779297,0.6306444168090820
0.5128921508789063,0.6098733901977539
0.5128921508789063,0.6098733901977539
0.5217636108398437,0.6114938735961913
0.5217636108398437,0.6114938735961913
0.5077136993408203,0.6041336059570312
0.5166749954223633,0.6041336059570312
0.5064165115356445,0.5897174835205078
0.5064165115356445,0.5897174835205078
0.5087379455566406,0.5939786911010742
0.5087379455566406,0.5939786911010742
0.4956007003784180,0.5756504058837890
0.4956007003784180,0.5756504058837890
0.5070991516113281,0.5818622589111327
0.5070991516113281,0.5818622589111327
0.4950817108154297,0.5833311080932617
0.4950817108154297,0.5833311080932617
0.4978294372558594,0.5721994400024414
0.4978294372558594,0.5721994400024414
0.5029678344726562,0.5839113235473633
0.5029678344726562,0.5839113235473633
0.4930303573608398,0.5699483871459960
0.4930303573608398,0.5699483871459960
0.5052354812622070,0.5809616088867188
0.5052354812622070,0.5809616088867188
0.4950542449951172,0.5812986373901367
0.4950542449951172,0.5812986373901367
0.4986534118652344,0.5740808486938477
0.4986534118652344,0.5740808486938477
0.5058099746704101,0.5884014129638672
0.5058099746704101,0.5884014129638672
0.4957803726196289,0.5784845352172852
0.4957803726196289,0.5784845352172852
0.5096002578735351,0.5884723663330078
0.5096002578735351,0.5884723663330078
0.5002584457397461,0.5932828903198242
0.5002584457397461,0.5932828903198242
0.5058465957641601,0.5880392074584960
0.5058465957641601,0.5880392074584960
0.5125413894653320,0.6048603057861328
0.5125413894653320,0.6048603057861328
0.5029232025146484,0.5910964965820312
0.5029232025146484,0.5910964965820312
0.5162532806396484,0.6017509460449219
0.5162532806396484,0.6017509460449219
0.5071025848388672,0.6049993515014648
0.5071025848388672,0.6049993515014648
0.5102926254272461,0.5993923187255860
0.5102926254272461,0.5993923187255860
0.5166252136230468,0.6108312606811523
0.5166252136230468,0.6108312606811523
0.5059530258178710,0.5975269317626953
0.5059530258178710,0.5975269317626953
0.5194210052490235,0.6072412490844726
0.5194210052490235,0.6072412490844726
0.5090389251708984,0.6112386703491210
0.5090389251708984,0.6112386703491210
0.5123090744018555,0.6015878677368164
0.5123090744018555,0.6015878677368164
0.5185598373413086,0.6146518707275390
0.5185598373413086,0.6146518707275390
0.5086200714111327,0.6013212203979492
0.5086200714111327,0.6013212203979492
0.5208114624023438,0.6125696182250976
0.5208114624023438,0.6125696182250976
0.5108407974243164,0.6131040573120117
0.5108407974243164,0.6131040573120117
0.5137218475341797,0.6054193496704101
0.5137218475341797,0.6054193496704101
0.5209899902343750,0.6188100814819336
0.5209899902343750,0.6188100814819336
0.5101673126220703,0.6074123382568359
0.5101673126220703,0.6074123382568359
0.5229154586791992,0.6150438308715820
0.5229154586791992,0.6150438308715820
0.5130374908447265,0.6177761077880859
0.5130374908447265,0.6177761077880859
0.5169679641723632,0.6101308822631836
0.5169679641723632,0.6101308822631836
0.5230075836181640,0.6253778457641601
0.5230075836181640,0.6253778457641601
0.5125350952148438,0.6101875305175781
0.5125350952148438,0.6101875305175781
0.5247951507568359,0.6198715209960938
0.5247951507568359,0.6198715209960938
0.5160284042358398,0.6226146697998046
0.5160284042358398,0.6226146697998046
0.5187578201293945,0.6166557312011719
0.5187578201293945,0.6166557312011719
0.5250926971435547,0.6277988433837890
0.5250926971435547,0.6277988433837890
0.5146356582641601,0.6144041061401367
0.5146356582641601,0.6144041061401367
0.5276315689086913,0.6239650726318359
0.5276315689086913,0.6239650726318359
0.5176340103149414,0.6283332824707031
0.5176340103149414,0.6283332824707031
0.5205780029296875,0.6183448791503906
0.5205780029296875,0.6183448791503906
0.5265815734863281,0.6313001632690429
0.5265815734863281,0.6313001632690429
0.5167041778564453,0.6178573608398438
0.5167041778564453,0.6178573608398438
0.5287422180175781,0.6287052154541015
0.5287422180175781,0.6287052154541015
0.5187274932861328,0.6283985137939453
0.5187274932861328,0.6283985137939453
0.5209945678710938,0.6188249588012695
0.5209945678710938,0.6188249588012695
0.5268430709838867,0.6295257568359375
0.5268430709838867,0.6295257568359375
0.5135953903198242,0.6132122039794922
0.5135953903198242,0.6132122039794922
0.5230579376220703,0.6135097503662109
0.5230579376220703,0.6135097503662109
0.5086309432983398,0.6068881988525391
0.5086309432983398,0.6068881988525391
0.5078813552856445,0.5900190353393554
0.5078813552856445,0.5900190353393554
0.5098966598510742,0.5976791381835938
0.5098966598510742,0.5976791381835938
0.4963680267333984,0.5768709182739258
0.4963680267333984,0.5768709182739258
0.5067649841308594,0.5823383331298828
0.5067649841308594,0.5823383331298828
0.4963359832763672,0.5826238632202149
0.4963359832763672,0.5826238632202149
0.4978981018066406,0.5742324829101563
0.4978981018066406,0.5742324829101563
0.5037912368774414,0.5843570709228515
0.5037912368774414,0.5843570709228515
0.4924610137939453,0.5702127456665039
0.4924610137939453,0.5702127456665039
0.5055238723754882,0.5791929244995117
0.4935842514038086,0.5791929244995117
0.4957294464111328,0.5837104797363281
0.4957294464111328,0.5837104797363281
0.4985904693603516,0.5740493774414063
0.4985904693603516,0.5740493774414063
0.5055467605590820,0.5882108688354492
0.5031972885131836,0.5882108688354492
0.4961683273315429,0.5768325805664062
0.5056680679321289,0.5768325805664062
0.5092426300048828,0.5900207519531250
0.5092426300048828,0.5900207519531250
0.5013725280761718,0.5936021804809570
0.5013725280761718,0.5936021804809570
0.5047628402709960,0.5877502441406249
0.5047628402709960,0.5877502441406249
0.5133258819580078,0.6032867431640625
0.5133258819580078,0.6032867431640625
0.5031440734863281,0.5933269500732422
0.5031440734863281,0.5933269500732422
0.5162446975708007,0.6019048690795898
0.5162446975708007,0.6019048690795898
0.5073892593383789,0.6055744171142577
0.5073892593383789,0.6055744171142577
0.5107864379882813,0.5978656768798828
0.5107864379882813,0.5978656768798828
0.5172861099243163,0.6133449554443359
0.5172861099243163,0.6133449554443359
0.5066368103027343,0.5982398986816406
0.5066368103027343,0.5982398986816406
0.5186325073242187,0.6074775695800781
0.5186325073242187,0.6074775695800781
0.5103441238403320,0.6105411529541015
0.5103441238403320,0.6105411529541015
0.5124847412109375,0.6039665222167968
0.5124847412109375,0.6039665222167968
0.5192619323730469,0.6154008865356445
0.5192619323730469,0.6154008865356445
0.5085268020629883,0.6020450592041016
0.5179080963134766,0.6020450592041016
0.5213785171508789,0.6113954544067383
0.5213785171508789,0.6113954544067383
0.5118347167968750,0.6160989761352539
0.5229108810424804,0.6160989761352539
0.5144582748413086,0.6058742523193359
0.5144582748413086,0.6058742523193359
0.5207582473754883,0.6192861557006836
0.5207582473754883,0.6192861557006836
0.5110427856445312,0.6062776565551757
0.5110427856445312,0.6062776565551757
0.5228977203369141,0.6174413681030273
0.5228977203369141,0.6174413681030273
0.5140777587890625,0.6185279846191406
0.5140777587890625,0.6185279846191406
0.5164169311523438,0.6102098464965821
0.5164169311523438,0.6102098464965821
0.5238292694091796,0.6240509033203124
0.5238292694091796,0.6240509033203124
0.5127874374389648,0.6127046585083008
0.5127874374389648,0.6127046585083008
0.5251127243041992,0.6199293136596680
0.5251127243041992,0.6199293136596680
0.5157566070556641,0.6230209350585937
0.5157566070556641,0.6230209350585937
0.5191240310668945,0.6148126602172851
0.5191240310668945,0.6148126602172851
0.5255722045898438,0.6298273086547851
0.5255722045898438,0.6298273086547851
0.5149469375610352,0.6149545669555664
0.5149469375610352,0.6149545669555664
0.5270662307739258,0.6240257263183594
0.5270662307739258,0.6240257263183594
0.5187074661254882,0.6272443771362305
0.5187074661254882,0.6272443771362305
0.5206621170043945,0.6205026626586914
0.5206621170043945,0.6205026626586914
0.5274290084838867,0.6317173004150390
0.5274290084838867,0.6317173004150390
0.5161817550659179,0.6182933807373047
0.5161817550659179,0.6182933807373047
0.5291507720947265,0.6271442413330078
0.5291507720947265,0.6271442413330078
0.5196149826049804,0.6316886901855469
0.5196149826049804,0.6316886901855469
0.5214694976806641,0.6198961257934570
0.5214694976806641,0.6198961257934570
0.5274049758911132,0.6315999984741211
0.5274049758911132,0.6315999984741211
0.5158041000366210,0.6149202346801758
0.5237514495849609,0.6149202346801758
0.5250795364379882,0.6204763412475586
0.5250795364379882,0.6204763412475586
0.5126243591308594,0.6138965606689453
0.5126243591308594,0.6138965606689453
0.5101593017578124,0.5960369110107422
0.5101593017578124,0.5960369110107422
0.5133207321166992,0.6014739990234375
0.5133207321166992,0.6014739990234375
0.4989698410034180,0.5836177825927734
0.4989698410034180,0.5836177825927734
0.5085136413574218,0.5859209060668945
0.5085136413574218,0.5859209060668945
0.4979816436767578,0.5856645584106445
0.4979816436767578,0.5856645584106445
0.4994029998779297,0.5748167037963867
0.4994029998779297,0.5748167037963867
0.5050775527954101,0.5885255813598632
0.5050775527954101,0.5885255813598632
0.4939933776855469,0.5724655151367187
0.4939933776855469,0.5724655151367187
0.5053956985473632,0.5808288574218750
0.5053956985473632,0.5808288574218750
0.4973665237426758,0.5840120315551758
0.4973665237426758,0.5840120315551758
0.4994024276733398,0.5774019241333007
0.4994024276733398,0.5774019241333007
0.5067506790161133,0.5895910263061523
0.5067506790161133,0.5895910263061523
0.4965734481811523,0.5784164428710937
0.4965734481811523,0.5784164428710937
0.5101741790771485,0.5894783020019531
0.5101741790771485,0.5894783020019531
0.5022886276245117,0.5970657348632812
0.5022886276245117,0.5970657348632812
0.5056777954101562,0.5888683319091796
0.5056777954101562,0.5888683319091796
0.5134197235107422,0.6044660568237304
0.5134197235107422,0.6044660568237304
0.5043382644653320,0.5931404113769531
0.5043382644653320,0.5931404113769531
0.5167373657226563,0.6050954818725586
0.5167373657226563,0.6050954818725586
0.5085926055908203,0.6073299407958984
0.5085926055908203,0.6073299407958984
0.5109489440917968,0.5990203857421875
0.5109489440917968,0.5990203857421875
0.5186416625976562,0.6129747390747070
0.5186416625976562,0.6129747390747070
0.5073978424072265,0.6016965866088867
0.5073978424072265,0.6016965866088867
0.5194530487060547,0.6086706161499024
0.5194530487060547,0.6086706161499024
0.5104482650756835,0.6119201660156249
0.5211135864257812,0.6119201660156249
0.5135158538818360,0.6031425476074218
0.5135158538818360,0.6031425476074218
0.5201339721679688,0.6185634613037109
0.5201339721679688,0.6185634613037109
0.5092557907104492,0.6033954620361328
0.5092557907104492,0.6033954620361328
0.5211977005004883,0.6122102737426758
0.5211977005004883,0.6122102737426758
0.5131027221679687,0.6157865524291992
0.5131027221679687,0.6157865524291992
0.5147981643676758,0.6087432861328125
0.5147981643676758,0.6087432861328125
0.5219902038574219,0.6205175399780273
0.5185495376586914,0.6205175399780273
0.5108139038085937,0.6074043273925781
0.5204126358032226,0.6074043273925781
0.5235757827758789,0.6164188385009766
0.5235757827758789,0.6164188385009766
0.5149200439453124,0.6218519210815430
0.5149200439453124,0.6218519210815430
0.5168323516845703,0.6109771728515625
0.5168323516845703,0.6109771728515625
0.5239368438720703,0.6247186660766602
0.5239368438720703,0.6247186660766602
0.5137990951538086,0.6119453430175781
0.5137990951538086,0.6119453430175781
0.5253026962280273,0.6224000930786132
0.5253026962280273,0.6224000930786132
0.5170246124267578,0.6241109848022460
0.5170246124267578,0.6241109848022460
0.5185810089111328,0.6151559829711913
0.5185810089111328,0.6151559829711913
0.5265993118286133,0.6289752960205078
0.5265993118286133,0.6289752960205078
0.5151580810546875,0.6178768157958984
0.5151580810546875,0.6178768157958984
0.5272933959960937,0.6245006561279297
0.5272933959960937,0.6245006561279297
0.5188808441162109,0.6280334472656249
0.5188808441162109,0.6280334472656249
0.5212194442749023,0.6190830230712890
0.5212194442749023,0.6190830230712890
0.5280344009399414,0.6345062255859375
0.5280344009399414,0.6345062255859375
0.5171161651611328,0.6194435119628906
0.5171161651611328,0.6194435119628906
0.5284652709960938,0.6277193069458008
0.5284652709960938,0.6277193069458008
0.5208801269531250,0.6311136245727539
0.5208801269531250,0.6311136245727539
0.5220966339111328,0.6234420776367188
0.5220966339111328,0.6234420776367188
0.5287960052490234,0.6338693618774414
0.5287960052490234,0.6338693618774414
0.5170766830444335,0.6188844680786133
0.5170766830444335,0.6188844680786133
0.5279548645019531,0.6242677688598632
0.5279548645019531,0.6242677688598632
0.5169393539428710,0.6245292663574219
0.5169393539428710,0.6245292663574219
0.5153657913208007,0.6062427520751953
0.5153657913208007,0.6062427520751953
0.5178543090820312,0.6109989166259765
0.5178543090820312,0.6109989166259765
0.5037912368774414,0.5903308868408202
0.5037912368774414,0.5903308868408202
0.5117900848388671,0.5940851211547852
0.5117900848388671,0.5940851211547852
0.5011287689208984,0.5913293838500976
0.5011287689208984,0.5913293838500976
0.5009788513183594,0.5788433074951171
0.5009788513183594,0.5788433074951171
0.5075838088989257,0.5905260086059571
0.5075838088989257,0.5905260086059571
0.4954971313476562,0.5777921676635742
0.4954971313476562,0.5777921676635742
0.5069183349609375,0.5834363937377930
0.5069183349609375,0.5834363937377930
0.4981258392333984,0.5868209838867188
0.4981258392333984,0.5868209838867188
0.5007076263427734,0.5778928756713867
0.5007076263427734,0.5778928756713867
0.5079454421997071,0.5937744140625000
0.5044973373413085,0.5937744140625000
0.4975233078002930,0.5804672241210938
0.4975233078002930,0.5804672241210938
0.5101472854614257,0.5905723571777344
0.5101472854614257,0.5905723571777344
0.5035949707031250,0.5969472885131836
0.5035949707031250,0.5969472885131836
0.5062294006347656,0.5920967102050781
0.5062294006347656,0.5920967102050781
0.5149274826049804,0.6063148498535156
0.5149274826049804,0.6063148498535156
0.5044275283813476,0.5953697204589844
0.5044275283813476,0.5953697204589844
0.5179876327514649,0.6052007675170898
0.5179876327514649,0.6052007675170898
0.5101667404174804,0.6120231628417968
0.5101667404174804,0.6120231628417968
0.5121397018432617,0.6016502380371094
0.5121397018432617,0.6016502380371094
0.5197940826416015,0.6157974243164063
0.5160169601440430,0.6157974243164063
0.5094200134277344,0.6035556793212891
0.5094200134277344,0.6035556793212891
0.5209287643432617,0.6134948730468750
0.5209287643432617,0.6134948730468750
0.5129419326782226,0.6155611038208008
0.5129419326782226,0.6155611038208008
0.5141412734985351,0.6063142776489258
0.5141412734985351,0.6063142776489258
0.5223197937011719,0.6201410293579102
0.5223197937011719,0.6201410293579102
0.5107343673706054,0.6092794418334960
0.5107343673706054,0.6092794418334960
0.5228199005126953,0.6154077529907226
0.5228199005126953,0.6154077529907226
0.5147048950195312,0.6193273544311523
0.5147048950195312,0.6193273544311523
0.5167682647705077,0.6101314544677734
0.5167682647705077,0.6101314544677734
0.5238492965698242,0.6257949829101562
0.5199251174926758,0.6257949829101562
0.5127674102783203,0.6111877441406249
0.5127674102783203,0.6111877441406249
0.5241725921630859,0.6190303802490235
0.5241725921630859,0.6190303802490235
0.5170297622680664,0.6231657028198242
0.5170297622680664,0.6231657028198242
0.5182456970214844,0.6158294677734375
0.5182456970214844,0.6158294677734375
0.5256483078002929,0.6276729583740234
0.5256483078002929,0.6276729583740234
0.5145086288452149,0.6151977539062500
0.5145086288452149,0.6151977539062500
0.5270954132080078,0.6231525421142577
0.5270954132080078,0.6231525421142577
0.5187211990356445,0.6293626785278320
0.5290981292724609,0.6293626785278320
0.5202535629272461,0.6181262969970703
0.5202535629272461,0.6181262969970703
0.5273872375488281,0.6319484710693359
0.5273872375488281,0.6319484710693359
0.5172191619873047,0.6195442199707031
0.5172191619873047,0.6195442199707031
0.5286718368530273,0.6291967391967773
0.5286718368530273,0.6291967391967773
0.5206249237060546,0.6313058853149414
0.5206249237060546,0.6313058853149414
0.5220960617065430,0.6218702316284179
0.5220960617065430,0.6218702316284179
0.5300394058227539,0.6356357574462891
0.5300394058227539,0.6356357574462891
0.5183492660522461,0.6248794555664062
0.5183492660522461,0.6248794555664062
0.5302459716796875,0.6304058074951172
0.5302459716796875,0.6304058074951172
0.5217876434326172,0.6342819213867187
0.5217876434326172,0.6342819213867187
0.5239265441894531,0.6246734619140625
0.5239265441894531,0.6246734619140625
0.5308416366577148,0.6398557662963867
0.5308416366577148,0.6398557662963867
0.5190959930419922,0.6241584777832031
0.5190959930419922,0.6241584777832031
0.5301744461059570,0.6300687789916992
0.5301744461059570,0.6300687789916992
0.5215667724609375,0.6317705154418946
0.5215667724609375,0.6317705154418946
0.5205774307250977,0.6198749542236328
0.5205774307250977,0.6198749542236328
0.5253936767578125,0.6255552291870117
0.5253936767578125,0.6255552291870117
0.5100048065185546,0.6054193496704101
0.5100048065185546,0.6054193496704101
0.5190010070800781,0.6052757263183594
0.5190010070800781,0.6052757263183594
0.5073314666748047,0.6049501419067382
0.5073314666748047,0.6049501419067382
0.5059387207031250,0.5885484695434570
0.5059387207031250,0.5885484695434570
0.5117774963378906,0.5989854812622070
0.5117774963378906,0.5989854812622070
0.4996570587158203,0.5843965530395507
0.4996570587158203,0.5843965530395507
0.5104368209838867,0.5923570632934571
0.5104368209838867,0.5923570632934571
0.5021009445190430,0.5938928604125976
0.5021009445190430,0.5938928604125976
0.5029014587402344,0.5840452194213867
0.5029014587402344,0.5840452194213867
0.5115308761596680,0.5981403350830078
0.5115308761596680,0.5981403350830078
0.5001342773437499,0.5885112762451171
0.5001342773437499,0.5885112762451171
0.5127777099609375,0.5954961776733398
0.5127777099609375,0.5954961776733398
0.5058643341064453,0.6020874023437500
0.5058643341064453,0.6020874023437500
0.5089485168457031,0.5952621459960937
0.5089485168457031,0.5952621459960937
0.5175922393798827,0.6131950378417969
0.5175922393798827,0.6131950378417969
0.5070659637451171,0.6007678985595702
0.5178995132446289,0.6007678985595702
0.5194524765014649,0.6096405029296875
0.5194524765014649,0.6096405029296875
0.5131021499633789,0.6152023315429688
0.5131021499633789,0.6152023315429688
0.5142591476440429,0.6083890914916992
0.5142591476440429,0.6083890914916992
0.5223329544067382,0.6204477310180664
0.5223329544067382,0.6204477310180664
0.5109889984130859,0.6084520339965820
0.5109889984130859,0.6084520339965820
0.5235643386840820,0.6160554885864258
0.5235643386840820,0.6160554885864258
0.5154653549194336,0.6224029541015624
0.5154653549194336,0.6224029541015624
0.5166732788085937,0.6108564376831055
0.5166732788085937,0.6108564376831055
0.5239786148071289,0.6244514465332031
0.5239786148071289,0.6244514465332031
0.5132589340209961,0.6124288558959960
0.5132589340209961,0.6124288558959960
0.5248924255371094,0.6215269088745117
0.5248924255371094,0.6215269088745117
0.5171184539794922,0.6238054275512696
0.5171184539794922,0.6238054275512696
0.5182697296142578,0.6142564773559570
0.5182697296142578,0.6142564773559570
0.5265455245971680,0.6279647827148437
0.5265455245971680,0.6279647827148437
0.5144994735717773,0.6177057266235352
0.5144994735717773,0.6177057266235352
0.5264539718627930,0.6227382659912110
0.5264539718627930,0.6227382659912110
0.5183629989624023,0.6271997451782226
0.5183629989624023,0.6271997451782226
0.5203508377075196,0.6177171707153321
0.5203508377075196,0.6177171707153321
0.5276441574096680,0.6332113265991210
0.5276441574096680,0.6332113265991210
0.5161725997924804,0.6190469741821288
0.5161725997924804,0.6190469741821288
0.5280218124389648,0.6259986877441406
0.5280218124389648,0.6259986877441406
0.5209173202514649,0.6305997848510742
0.5209173202514649,0.6305997848510742
0.5216445922851562,0.6230730056762696
0.5216445922851562,0.6230730056762696
0.5295272827148437,0.6345560073852539
0.5295272827148437,0.6345560073852539
0.5174468994140625,0.6224979400634766
0.5174468994140625,0.6224979400634766
0.5303455352783203,0.6296957015991210
0.5303455352783203,0.6296957015991210
0.5221950531005859,0.6361736297607422
0.5221950531005859,0.6361736297607422
0.5233732223510742,0.6244817733764648
0.5233732223510742,0.6244817733764648
0.5310619354248046,0.6379714965820312
0.5310619354248046,0.6379714965820312
0.5199537277221680,0.6261783599853515
0.5199537277221680,0.6261783599853515
0.5316410064697266,0.6348421096801757
0.5200029373168945,0.6348421096801757
0.5238281250000000,0.6372093200683594
0.5238281250000000,0.6372093200683594
0.5243631362915039,0.6273359298706055
0.5243631362915039,0.6273359298706055
0.5328603744506836,0.6405881881713867
0.5328603744506836,0.6405881881713867
0.5203216552734374,0.6295755386352538
0.5203216552734374,0.6295755386352538
0.5316038131713867,0.6327478408813476
0.5316038131713867,0.6327478408813476
0.5227197647094727,0.6349416732788086
0.5227197647094727,0.6349416732788086
0.5226264953613281,0.6214485168457031
0.5226264953613281,0.6214485168457031
0.5273992538452148,0.6310638427734375
0.5214529037475586,0.6310638427734375
0.5123027801513672,0.6097246170043945
0.5123027801513672,0.6097246170043945
0.5201208114624023,0.6087409973144531
0.5201208114624023,0.6087409973144531
0.5098388671874999,0.6068504333496093
0.5098388671874999,0.6068504333496093
0.5076662063598633,0.5937835693359375
0.5076662063598633,0.5937835693359375
0.5134105682373047,0.6015363693237304
0.5134105682373047,0.6015363693237304
0.5003379821777344,0.5871728897094727
0.5003379821777344,0.5871728897094727
0.5119091033935547,0.5923015594482421
0.5119091033935547,0.5923015594482421
0.5033809661865234,0.5975183486938477
0.5033809661865234,0.5975183486938477
0.5039783477783203,0.5854139328002930
0.5039783477783203,0.5854139328002930
0.5112888336181640,0.5989803314208985
0.5112888336181640,0.5989803314208985
0.5007648468017578,0.5875574111938476
0.5007648468017578,0.5875574111938476
0.5128623962402343,0.5972156524658203
0.5128623962402343,0.5972156524658203
0.5061017990112304,0.6017389297485352
0.5082155227661133,0.5938694000244140
0.5082155227661133,0.5938694000244140
0.5145893096923828,0.6097869873046875
0.5145893096923828,0.6002895355224609
0.5145893096923828,0.6015895843505860
0.5156370162963867,0.6135681152343749
0.5196681976318359,0.6135681152343749
0.5087602615356445,0.6015701293945312
0.5087602615356445,0.6015701293945312
0.5217950820922851,0.6162225723266601
0.5217950820922851,0.6162225723266601
0.5090675354003906,0.6129598617553711
0.5090675354003906,0.6129598617553711
0.5192052841186523,0.6110057830810547
0.5192052841186523,0.6110057830810547
0.5183933258056640,0.6210319519042968
0.5183933258056640,0.6210319519042968
0.5133316040039062,0.6081996917724609
0.5133316040039062,0.6081996917724609
0.5248392105102538,0.6214365005493164
0.5158607482910156,0.6214365005493164
0.5115091323852539,0.6177434921264648
0.5115091323852539,0.6177434921264648
0.5199445724487305,0.6147834777832031
0.5199445724487305,0.6147834777832031
0.5214906692504883,0.6250900268554688
0.5214906692504883,0.6250900268554688
0.5150402069091796,0.6117485046386718
0.5150402069091796,0.6117485046386718
0.5183395385742188,0.6150495529174804
0.5183395385742188,0.6150495529174804
0.5148244857788086,0.6166070938110352
0.5254211425781250,0.6291475296020508
0.5233514785766601,0.6284568786621093
0.5269283294677735,0.6273822784423828
0.5269283294677735,0.6274028778076172
0.5194782257080078,0.6177892684936523
0.5194782257080078,0.6177892684936523
0.5282690048217773,0.6314666748046874
0.5282690048217773,0.6314666748046874
0.5160701751708984,0.6216939926147461
0.5160701751708984,0.6216939926147461
0.5282587051391602,0.6260742187500000
0.5282587051391602,0.6260742187500000
0.5207050323486327,0.6309356689453125
0.5207050323486327,0.6309356689453125
0.5221469879150390,0.6214914321899414
0.5221469879150390,0.6214914321899414
0.5296268463134766,0.6369907379150390
0.5296268463134766,0.6369907379150390
0.5178903579711914,0.6233373641967773
0.5178903579711914,0.6233373641967773
0.5296749114990235,0.6297306060791016
0.5296749114990235,0.6297306060791016
0.5230922698974609,0.6346647262573242
0.5230922698974609,0.6346647262573242
0.5232049942016601,0.6270492553710937
0.5232049942016601,0.6270492553710937
0.5310419082641601,0.6380630493164062
0.5310419082641601,0.6380630493164062
0.5193380355834961,0.6269285202026367
0.5193380355834961,0.6269285202026367
0.5324438095092773,0.6330270767211914
0.5324438095092773,0.6330270767211914
0.5243316650390625,0.6394712448120117
0.5243316650390625,0.6394712448120117
0.5249856948852539,0.6284339904785156
0.5249856948852539,0.6284339904785156
0.5319534301757812,0.6405870437622070
0.5319534301757812,0.6405870437622070
0.5209373474121094,0.6289455413818359
0.5209373474121094,0.6289455413818359
0.5323522567749023,0.6353410720825196
0.5323522567749023,0.6353410720825196
0.5237073898315430,0.6358623504638672
0.5237073898315430,0.6358623504638672
0.5227094650268554,0.6232538223266602
0.5227094650268554,0.6232538223266602
0.5283863067626953,0.6306781768798828
0.5283863067626953,0.6306781768798828
0.5130311965942382,0.6144149780273437
0.5130311965942382,0.6144149780273437
0.5217184066772461,0.6103317260742187
0.5217184066772461,0.6103317260742187
0.5101261138916016,0.6080904006958008
0.5101261138916016,0.6080904006958008
0.5086898803710938,0.5937664031982421
0.5086898803710938,0.5937664031982421
0.5136314392089844,0.6040157318115235
0.5087997436523437,0.6040157318115235
0.5004884719848632,0.5885684967041015
0.5004884719848632,0.5885684967041015
0.5120367050170899,0.5924108505249023
0.5120367050170899,0.5924108505249023
0.5042593002319335,0.5960992813110352
0.5042593002319335,0.5960992813110352
0.5040916442871094,0.5882366180419921
0.5040916442871094,0.5882366180419921
0.5117162704467774,0.5989070892333984
0.5117162704467774,0.5989070892333984
0.4997343063354492,0.5883167266845702
0.4997343063354492,0.5883167266845702
0.5135667800903320,0.5952049255371094
0.5135667800903320,0.5952049255371094
0.5063444137573242,0.6036237716674805
0.5063444137573242,0.6036237716674805
0.5081434249877930,0.5950366973876953
0.5081434249877930,0.5950366973876953
0.5170120239257813,0.6102670669555664
0.5135375976562500,0.6102670669555664
0.5069921493530273,0.6018196105957031
0.5069921493530273,0.6018196105957031
0.5202518463134765,0.6112266540527344
0.5202518463134765,0.6112266540527344
0.5133487701416015,0.6157150268554688
0.5133487701416015,0.6157150268554688
0.5142574310302734,0.6077859878540038
0.5142574310302734,0.6077859878540038
0.5230733871459960,0.6210851669311523
0.5230733871459960,0.6210851669311523
0.5112293243408202,0.6125953674316406
0.5112293243408202,0.6125953674316406
0.5239957809448242,0.6165756225585938
0.5239957809448242,0.6165756225585938
0.5165468215942383,0.6216791152954101
0.5165468215942383,0.6216791152954101
0.5175899505615235,0.6127882003784180
0.5175899505615235,0.6127882003784180
0.5248764038085937,0.6274560928344727
0.5248764038085937,0.6274560928344727
0.5133516311645507,0.6146478652954102
0.5133516311645507,0.6146478652954102
0.5253833770751953,0.6201393127441406
0.5253833770751953,0.6201393127441406
0.5187177658081055,0.6251981735229492
0.5187177658081055,0.6251981735229492
0.5188110351562499,0.6180971145629882
0.5188110351562499,0.6180971145629882
0.5265272140502929,0.6286462783813477
0.5265272140502929,0.6286462783813477
0.5148571014404296,0.6178401947021485
0.5148571014404296,0.6178401947021485
0.5277614593505859,0.6234489440917969
0.5277614593505859,0.6234489440917969
0.5198684692382812,0.6303829193115235
0.5198684692382812,0.6303829193115235
0.5204092025756836,0.6192775726318359
0.5204092025756836,0.6192775726318359
0.5277145385742187,0.6319164276123047
0.5277145385742187,0.6319164276123047
0.5167316436767578,0.6212162017822266
0.5167316436767578,0.6212162017822266
0.5290735244750976,0.6285816192626953
0.5290735244750976,0.6285816192626953
0.5216886520385742,0.6316240310668945
0.5216886520385742,0.6316240310668945
0.5221218109130860,0.6226581573486328
0.5221218109130860,0.6226581573486328
0.5303346633911132,0.6355327606201172
0.5303346633911132,0.6355327606201172
0.5181776046752929,0.6266956329345703
0.5181776046752929,0.6266956329345703
0.5308479309082031,0.6301094055175781
0.5308479309082031,0.6301094055175781
0.5229372024536133,0.6351224899291992
0.5229372024536133,0.6351224899291992
0.5243659973144531,0.6263196945190429
0.5243659973144531,0.6263196945190429
0.5317073822021484,0.6409709930419921
0.5317073822021484,0.6409709930419921
0.5199789047241211,0.6280340194702149
0.5199789047241211,0.6280340194702149
0.5324678421020508,0.6334436416625976
0.5206787109375000,0.6334436416625976
0.5253850936889648,0.6385877609252929
0.5253850936889648,0.6385877609252929
0.5255390167236328,0.6314289093017578
0.5255390167236328,0.6314289093017578
0.5331384658813476,0.6417726516723633
0.5331384658813476,0.6417726516723633
0.5207330703735351,0.6303348541259766
0.5207330703735351,0.6303348541259766
0.5337490081787110,0.6350086212158202
0.5337490081787110,0.6350086212158202
0.5250217437744140,0.6404016494750976
0.5250217437744140,0.6404016494750976
0.5245548248291015,0.6269731521606445
0.5245548248291015,0.6269731521606445
0.5305652618408203,0.6358188629150391
0.5305652618408203,0.6358188629150391
0.5167076110839843,0.6198165893554687
0.5167076110839843,0.6198165893554687
0.5258995056152344,0.6202669143676758
0.5258995056152344,0.6202669143676758
0.5147363662719726,0.6162477493286133
0.5147363662719726,0.6162477493286133
0.5117145538330078,0.6008840560913086
0.5117145538330078,0.6008840560913086
0.5177181243896484,0.6088119506835937
0.5177181243896484,0.6088119506835937
0.5035211563110351,0.5961130142211913
0.5035211563110351,0.5961130142211913
0.5144771575927735,0.5971052169799804
0.5144771575927735,0.5971052169799804
0.5062185287475586,0.6008520126342773
0.5154424667358398,0.6008520126342773
0.5068199157714843,0.5901660919189453
0.5068199157714843,0.5901660919189453
0.5142316818237305,0.6050319671630859
0.5142316818237305,0.6050319671630859
0.5024488449096679,0.5926660537719727
0.5024488449096679,0.5926660537719727
0.5149406433105469,0.5986873626708984
0.5149406433105469,0.5986873626708984
0.5088912963867187,0.6055109024047851
0.5088912963867187,0.6055109024047851
0.5098875045776367,0.6002552032470703
0.5098875045776367,0.6002552032470703
0.5189775466918946,0.6133489608764648
0.5189775466918946,0.6133489608764648
0.5081880569458007,0.6051063537597656
0.5081880569458007,0.6051063537597656
0.5224142074584961,0.6125335693359375
0.5224142074584961,0.6125335693359375
0.5154144287109375,0.6211355209350585
0.5154144287109375,0.6211355209350585
0.5164501190185546,0.6112249374389648
0.5164501190185546,0.6112249374389648
0.5242052078247070,0.6247289657592773
0.5242052078247070,0.6247289657592773
0.5135925292968749,0.6147274017333985
0.5135925292968749,0.6147274017333985
0.5259967803955078,0.6222084045410156
0.5259967803955078,0.6222084045410156
0.5186462402343750,0.6254545211791992
0.5186462402343750,0.6254545211791992
0.5190536499023437,0.6165973663330078
0.5190536499023437,0.6165973663330078
0.5273231506347656,0.6292837142944335
0.5273231506347656,0.6292837142944335
0.5150625228881835,0.6204751968383789
0.5150625228881835,0.6204751968383789
0.5277425765991210,0.6236326217651367
0.5277425765991210,0.6236326217651367
0.5198650360107422,0.6289020538330078
0.5198650360107422,0.6289020538330078
0.5210803985595703,0.6197776794433594
0.5210803985595703,0.6197776794433594
0.5285316467285156,0.6341520309448242
0.5285316467285156,0.6341520309448242
0.5166303634643554,0.6215738296508789
0.5166303634643554,0.6215738296508789
0.5293235778808594,0.6265211105346680
0.5169799804687499,0.6265211105346680
0.5220268249511718,0.6320875167846679
0.5220268249511718,0.6320875167846679
0.5222030639648437,0.6243021011352539
0.5167596817016601,0.6243021011352539
0.5303947448730468,0.6353668212890625
0.5303947448730468,0.6353668212890625
0.5177593231201172,0.6242414474487304
0.5177593231201172,0.6242414474487304
0.5307649612426758,0.6297380447387695
0.5307649612426758,0.6297380447387695
0.5231918334960938,0.6370742797851562
0.5231918334960938,0.6370742797851562
0.5236719131469726,0.6251747131347656
0.5236719131469726,0.6251747131347656
0.5314556121826172,0.6383640289306640
0.5314556121826172,0.6383640289306640
0.5200326919555663,0.6279933929443359
0.5312662124633789,0.6279933929443359
0.5323728561401367,0.6350006103515625
0.5323728561401367,0.6350006103515625
0.5250102996826171,0.6381774902343750
0.5250102996826171,0.6381774902343750
0.5249931335449218,0.6286588668823242
0.5249931335449218,0.6286588668823242
0.5340694427490235,0.6415649414062500
0.5340694427490235,0.6415649414062500
0.5212903976440429,0.6333091735839843
0.5212903976440429,0.6333091735839843
0.5339721679687500,0.6362251281738281
0.5339721679687500,0.6362251281738281
0.5264476776123047,0.6413280487060546
0.5264476776123047,0.6413280487060546
0.5271171569824219,0.6323896408081054
0.5271171569824219,0.6323896408081054
0.5346673965454102,0.6468738555908203
0.5346673965454102,0.6468738555908203
0.5226734161376952,0.6339563369750977
0.5226734161376952,0.6339563369750977
0.5347023010253906,0.6384807586669922
0.5347023010253906,0.6384807586669922
0.5278049468994140,0.6431631088256836
0.5278049468994140,0.6431631088256836
0.5271446228027343,0.6346612930297851
0.5271446228027343,0.6346612930297851
0.5284166336059570,0.6306421279907226
0.5284166336059570,0.6318460464477539
0.5284166336059570,0.6318460464477539
0.5289144515991211,0.6385917663574219
0.5289144515991211,0.6385917663574219
0.5197145462036132,0.6198108673095702
0.5197145462036132,0.6198108673095702
0.5284160614013672,0.6260833740234375
0.5284160614013672,0.6260833740234375
0.5100711822509766,0.6160663604736328
0.5100711822509766,0.6160663604736328
0.5177404403686523,0.6071228027343750
0.5177404403686523,0.6071228027343750
0.5163814544677734,0.6134548187255859
0.5163814544677734,0.6134548187255859
0.5074241638183593,0.5959733963012696
0.5074241638183593,0.5959733963012696
0.5168804168701172,0.6059583663940430
0.5168804168701172,0.6059583663940430
0.5036739349365235,0.6023872375488281
0.5036739349365235,0.6023872375488281
0.5130432128906249,0.5984516143798828
0.5130432128906249,0.5984516143798828
0.5140497207641601,0.6094888687133789
0.5140497207641601,0.6094888687133789
0.5056989669799804,0.5958005905151367
0.5056989669799804,0.5958005905151367
0.5196962356567383,0.6100605010986327
0.5196962356567383,0.6100605010986327
0.5068559646606445,0.6092302322387695
0.5068559646606445,0.6092302322387695
0.5174846649169922,0.6080749511718749
0.5174846649169922,0.6080749511718749
0.5183343887329102,0.6207075119018555
0.5183343887329102,0.6207075119018555
0.5131290435791015,0.6086917877197265
0.5131290435791015,0.6086917877197265
0.5261152267456054,0.6226175308227538
0.5261152267456054,0.6226175308227538
0.5129247665405273,0.6212190628051758
0.5129247665405273,0.6212190628051758
0.5213459014892577,0.6179294586181641
0.5213459014892577,0.6179294586181641
0.5239974975585937,0.6295320510864257
0.5239974975585937,0.6295320510864257
0.5169467926025391,0.6156314849853516
0.5169467926025391,0.6156314849853516
0.5292308807373046,0.6285198211669921
0.5292308807373046,0.6285198211669921
0.5139747619628906,0.6256788253784179
0.5139747619628906,0.6256788253784179
0.5246847152709960,0.6224355697631836
0.5155311584472656,0.6224355697631836
0.5259801864624023,0.6331850051879883
0.5259801864624023,0.6331850051879883
0.5185735702514648,0.6191808700561523
0.5185735702514648,0.6191808700561523
0.5291851043701171,0.6311136245727539
0.5291851043701171,0.6311136245727539
0.5166046142578125,0.6287429809570312
0.5166046142578125,0.6287429809570312
0.5260179519653320,0.6250997543334961
0.5260179519653320,0.6250997543334961
0.5271949768066406,0.6359905242919922
0.5271949768066406,0.6359905242919922
0.5184762954711913,0.6211492538452148
0.5184762954711913,0.6211492538452148
0.5317457199096679,0.6339117050170898
0.5317457199096679,0.6339117050170898
0.5180940628051758,0.6312870025634766
0.5332500457763671,0.6312870025634766
0.5273986816406250,0.6279447555541992
0.5177227020263672,0.6279447555541992
0.5270301818847656,0.6381042480468749
0.5270301818847656,0.6381042480468749
0.5209276199340820,0.6242019653320312
0.5209276199340820,0.6242019653320312
0.5331476211547851,0.6365272521972656
0.5331476211547851,0.6365272521972656
0.5194307327270508,0.6341749191284179
0.5194307327270508,0.6341749191284179
0.5274667739868164,0.6303577423095703
0.5274667739868164,0.6303577423095703
0.5298179626464844,0.6414642333984375
0.5298179626464844,0.6414642333984375
0.5227912902832031,0.6271877288818359
0.5227912902832031,0.6271877288818359
0.5348115921020508,0.6398918151855468
0.5348115921020508,0.6398918151855468
0.5195863723754882,0.6369981765747070
0.5195863723754882,0.6369981765747070
0.5303174972534179,0.6337303161621094
0.5303174972534179,0.6337303161621094
0.5314590454101562,0.6447069168090820
0.5314590454101562,0.6447069168090820
0.5242784500122070,0.6305311203002929
0.5242784500122070,0.6305311203002929
0.5349374771118164,0.6426715850830078
0.5349374771118164,0.6426715850830078
0.5224210739135742,0.6402803421020508
0.5224210739135742,0.6402803421020508
0.5319551467895508,0.6365936279296874
0.5319551467895508,0.6365936279296874
0.5328477859497071,0.6473018646240234
0.5328477859497071,0.6473018646240234
0.5239099502563477,0.6321962356567382
0.5239099502563477,0.6321962356567382
0.5369144439697265,0.6440723419189452
0.5369144439697265,0.6440723419189452
0.5222866058349609,0.6397195816040039
0.5222866058349609,0.6397195816040039
0.5305618286132813,0.6337314605712890
0.5199743270874023,0.6337314605712890
0.5284870147705077,0.6401882171630859
0.5284870147705077,0.6401882171630859
0.5198518753051757,0.6206640243530274
0.5198518753051757,0.6206640243530274
0.5287364959716797,0.6259340286254883
0.5287364959716797,0.6259340286254883
0.5111412048339844,0.6158781051635742
0.5111412048339844,0.6158781051635742
0.5158063888549804,0.6056150436401367
0.5158063888549804,0.6056150436401367
0.5153680801391601,0.6116025924682617
0.5153680801391601,0.6116025924682617
0.5061275482177734,0.5936319351196289
0.5061275482177734,0.5936319351196289
0.5168844223022461,0.6038366317749023
0.5168844223022461,0.6038366317749023
0.5009777069091796,0.5991994857788085
0.5009777069091796,0.5991994857788085
0.5110616683959961,0.5950801849365234
0.5110616683959961,0.5950801849365234
0.5122386932373046,0.6057237625122071
0.5122386932373046,0.6057237625122071
0.5050563812255859,0.5917819976806641
0.5050563812255859,0.5917819976806641
0.5161022186279297,0.6047704696655273
0.5161022186279297,0.6047704696655273
0.5040739059448242,0.6039779663085937
0.5040739059448242,0.6039779663085937
0.5146087646484375,0.6024690628051758
0.5146087646484375,0.6024690628051758
0.5168809890747070,0.6157585144042969
0.5168809890747070,0.6157585144042969
0.5094017028808594,0.6034378051757813
0.5094017028808594,0.6034378051757813
0.5238109588623047,0.6182241439819336
0.5238109588623047,0.6182241439819336
0.5109386444091797,0.6170808792114257
0.5109386444091797,0.6170808792114257
0.5209030151367188,0.6149076461791992
0.5209030151367188,0.6149076461791992
0.5210929870605469,0.6261623382568359
0.5241737365722656,0.6261623382568359
0.5152238845825196,0.6128076553344727
0.5152238845825196,0.6128076553344727
0.5276773452758788,0.6257966995239258
0.5276773452758788,0.6257966995239258
0.5141796112060547,0.6234289169311523
0.5141796112060547,0.6234289169311523
0.5221240997314452,0.6196352005004883
0.5221240997314452,0.6196352005004883
0.5245880126953125,0.6308229446411132
0.5245880126953125,0.6308229446411132
0.5174079895019531,0.6166963577270508
0.5174079895019531,0.6166963577270508
0.5295381546020508,0.6294267654418945
0.5295381546020508,0.6294267654418945
0.5143020629882812,0.6263225555419921
0.5143020629882812,0.6263225555419921
0.5249130249023437,0.6230461120605468
0.5249130249023437,0.6230461120605468
0.5260374069213867,0.6338344573974609
0.5288864135742187,0.6338344573974609
0.5188974380493164,0.6196987152099609
0.5188974380493164,0.6196987152099609
0.5294466018676758,0.6316291809082031
0.5294466018676758,0.6316291809082031
0.5169685363769531,0.6293300628662110
0.5169685363769531,0.6293300628662110
0.5264894485473632,0.6257875442504882
0.5264894485473632,0.6257875442504882
0.5274702072143554,0.6367990493774414
0.5274702072143554,0.6367990493774414
0.5188516616821289,0.6221254348754882
0.5188516616821289,0.6221254348754882
0.5321331024169922,0.6349582672119141
0.5321331024169922,0.6349582672119141
0.5185455322265625,0.6324319839477539
0.5185455322265625,0.6324319839477539
0.5279182434082031,0.6289443969726562
0.5279182434082031,0.6289443969726562
0.5276882171630859,0.6396480560302734
0.5306035995483398,0.6396480560302734
0.5217412948608399,0.6257097244262695
0.5217412948608399,0.6257097244262695
0.5340425491333007,0.6383256912231445
0.5340425491333007,0.6383256912231445
0.5201333999633789,0.6358131408691406
0.5201333999633789,0.6358131408691406
0.5281471252441406,0.6317945480346679
0.5281471252441406,0.6317945480346679
0.5305784225463867,0.6430606842041016
0.5305784225463867,0.6430606842041016
0.5233039855957031,0.6288551330566406
0.5233039855957031,0.6288551330566406
0.5353769302368164,0.6413640975952148
0.5353769302368164,0.6413640975952148
0.5202072143554687,0.6382169723510742
0.5202072143554687,0.6382169723510742
0.5308170318603516,0.6347906112670898
0.5216508865356445,0.6347906112670898
0.5318721771240235,0.6453186035156250
0.5344402313232421,0.6453186035156250
0.5242893218994140,0.6305814743041992
0.5242893218994140,0.6305814743041992
0.5343446731567383,0.6416793823242187
0.5343446731567383,0.6416793823242187
0.5211238861083984,0.6373054504394531
0.5211238861083984,0.6373054504394531
0.5291072845458984,0.6310060501098632
0.5291072845458984,0.6310060501098632
0.5282403945922851,0.6373918533325195
0.5282403945922851,0.6373918533325195
0.5169725418090820,0.6169389724731446
0.5169725418090820,0.6169389724731446
0.5268304824829101,0.6226587295532227
0.5268304824829101,0.6226587295532227
0.5099452972412110,0.6130479812622071
0.5099452972412110,0.6130479812622071
0.5162235260009765,0.6040483474731445
0.5162235260009765,0.6040483474731445
0.5135576248168945,0.6101245880126953
0.5135576248168945,0.6101245880126953
0.5058059692382812,0.5928720474243164
0.5058059692382812,0.5928720474243164
0.5166681289672851,0.6032077789306640
0.5066047668457031,0.6032077789306640
0.5021982192993164,0.5992767333984375
0.5021982192993164,0.5992767333984375
0.5099916458129883,0.5947151184082031
0.5099916458129883,0.5947151184082031
0.5119920730590820,0.6054983139038086
0.5119920730590820,0.6054983139038086
0.5050746917724609,0.5915222167968750
0.5050746917724609,0.5915222167968750
0.5173673629760742,0.6051681518554687
0.5173673629760742,0.6051681518554687
0.5029054641723633,0.6033061981201172
0.5029054641723633,0.6033061981201172
0.5144966125488281,0.6024112701416016
0.5144966125488281,0.6024112701416016
0.5166921615600586,0.6153614044189453
0.5166921615600586,0.6153614044189453
0.5106142044067382,0.6034315109252929
0.5106142044067382,0.6034315109252929
0.5222293853759765,0.6175764083862304
0.5222293853759765,0.6175764083862304
0.5104482650756835,0.6164651870727539
0.5104482650756835,0.6164651870727539
0.5206838607788086,0.6142049789428711
0.5206838607788086,0.6142049789428711
0.5221035003662109,0.6258230209350586
0.5221035003662109,0.6258230209350586
0.5137504577636719,0.6118314743041992
0.5137504577636719,0.6118314743041992
0.5272418975830078,0.6250156402587891
0.5272418975830078,0.6250156402587891
0.5136835098266601,0.6223096847534180
0.5136835098266601,0.6223096847534180
0.5231300354003906,0.6191099166870117
0.5231300354003906,0.6191099166870117
0.5226957321166992,0.6295612335205077
0.5257123947143555,0.6295612335205077
0.5168043136596679,0.6155445098876953
0.5168043136596679,0.6155445098876953
0.5289710998535156,0.6282594680786132
0.5289710998535156,0.6282594680786132
0.5152467727661133,0.6254390716552735
0.5152467727661133,0.6254390716552735
0.5231946945190430,0.6217660903930664
0.5231946945190430,0.6217660903930664
0.5253473281860351,0.6327495574951172
0.5253473281860351,0.6327495574951172
0.5182777404785156,0.6186332702636719
0.5224233627319336,0.6186332702636719
0.5303226470947265,0.6312950134277343
0.5303226470947265,0.6312950134277343
0.5152816772460938,0.6280025482177735
0.5152816772460938,0.6280025482177735
0.5258743286132812,0.6250413894653321
0.5258743286132812,0.6250413894653321
0.5270484924316406,0.6358022689819336
0.5298522949218750,0.6358022689819336
0.5198547363281250,0.6217151641845703
0.5198547363281250,0.6217151641845703
0.5304388046264649,0.6340713500976562
0.5304388046264649,0.6340713500976562
0.5179561614990235,0.6314506530761719
0.5179561614990235,0.6314506530761719
0.5193729400634766,0.6286354064941406
0.5193729400634766,0.6286354064941406
0.5316335678100585,0.6324153900146484
0.5316335678100585,0.6324153900146484
0.5242029190063476,0.6377174377441406
0.5242029190063476,0.6377174377441406
0.5252397537231445,0.6280803680419922
0.5252397537231445,0.6280803680419922
0.5331418991088867,0.6433948516845703
0.5331418991088867,0.6433948516845703
0.5210672378540039,0.6300310134887696
0.5210672378540039,0.6300310134887696
0.5328666687011718,0.6356168746948242
0.5328666687011718,0.6356168746948242
0.5262090682983398,0.6409561157226562
0.5353546142578125,0.6409561157226562
0.5264350891113281,0.6330224990844726
0.5209739685058593,0.6330224990844726
0.5345724105834960,0.6441993713378906
0.5345724105834960,0.6441993713378906
0.5222156524658202,0.6326059341430664
0.5222156524658202,0.6326059341430664
0.5347709655761719,0.6380773544311523
0.5347709655761719,0.6380773544311523
0.5266994476318360,0.6446880340576172
0.5266994476318360,0.6446880340576172
0.5267629623413086,0.6314775466918945
0.5267629623413086,0.6314775466918945
0.5335401535034180,0.6430189132690429
0.5335401535034180,0.6430189132690429
0.5209945678710938,0.6285844802856445
0.5209945678710938,0.6285844802856445
0.5306087493896484,0.6314552307128906
0.5306087493896484,0.6314552307128906
0.5202581405639648,0.6281352996826172
0.5202581405639648,0.6281352996826172
0.5172025680541992,0.6107391357421875
0.5172025680541992,0.6107391357421875
0.5222127914428710,0.6172817230224609
0.5222127914428710,0.6172817230224609
0.5068433761596679,0.6021961212158203
0.5068433761596679,0.6021961212158203
0.5167201995849610,0.6015850067138672
0.5167201995849610,0.6015850067138672
0.5073120117187500,0.6038108825683594
0.5073120117187500,0.6038108825683594
0.5077383041381835,0.5922288894653320
0.5077383041381835,0.5922288894653320
0.5148496627807617,0.6064985275268554
0.5148496627807617,0.6064985275268554
0.5025770187377929,0.5925155639648437
0.5025770187377929,0.5925155639648437
0.5146007537841797,0.5980905532836914
0.5146007537841797,0.5980905532836914
0.5078281402587891,0.6039665222167968
0.5078281402587891,0.6039665222167968
0.5085021972656250,0.5969627380371093
0.5085021972656250,0.5969627380371093
0.5174377441406249,0.6101251602172851
0.5174377441406249,0.6101251602172851
0.5060903549194335,0.6008937835693359
0.5060903549194335,0.6008937835693359
0.5201946258544922,0.6094036102294922
0.5201946258544922,0.6094036102294922
0.5135828018188476,0.6185543060302734
0.5135828018188476,0.6185543060302734
0.5152101516723633,0.6084892272949218
0.5152101516723633,0.6084892272949218
0.5239643096923828,0.6233545303344726
0.5239643096923828,0.6233545303344726
0.5129035949707031,0.6128849029541016
0.5129035949707031,0.6128849029541016
0.5250783920288086,0.6214799880981445
0.5250783920288086,0.6214799880981445
0.5178091049194335,0.6245212554931641
0.5178091049194335,0.6245212554931641
0.5181306838989258,0.6149385452270507
0.5181306838989258,0.6149385452270507
0.5271257400512696,0.6287521362304688
0.5271257400512696,0.6287521362304688
0.5147764205932617,0.6192083358764648
0.5147764205932617,0.6192083358764648
0.5268831253051758,0.6228080749511719
0.5268831253051758,0.6228080749511719
0.5191846847534179,0.6278097152709960
0.5191846847534179,0.6278097152709960
0.5202798843383789,0.6178710937499999
0.5202798843383789,0.6178710937499999
0.5279331207275391,0.6332101821899414
0.5279331207275391,0.6332101821899414
0.5157886505126953,0.6194337844848633
0.5157886505126953,0.6194337844848633
0.5275325775146484,0.6250865936279296
0.5275325775146484,0.6250865936279296
0.5206260681152344,0.6300252914428711
0.5206260681152344,0.6300252914428711
0.5209402084350586,0.6218564987182617
0.5209402084350586,0.6218564987182617
0.5288961410522460,0.6330059051513671
0.5288961410522460,0.6330059051513671
0.5167264938354492,0.6210742950439453
0.5167264938354492,0.6210742950439453
0.5292343139648438,0.6270973205566406
0.5292343139648438,0.6270973205566406
0.5212451934814453,0.6339574813842773
0.5212451934814453,0.6339574813842773
0.5219409942626952,0.6218914031982422
0.5219409942626952,0.6218914031982422
0.5294969558715820,0.6351894378662110
0.5294969558715820,0.6351894378662110
0.5183572769165039,0.6236429214477539
0.5183572769165039,0.6236429214477539
0.5301034927368163,0.6317882537841797
0.5301034927368163,0.6317882537841797
0.5225658416748047,0.6346017837524414
0.5225658416748047,0.6346017837524414
0.5233188629150390,0.6246917724609374
0.5233188629150390,0.6246917724609374
0.5317102432250976,0.6382644653320312
0.5317102432250976,0.6382644653320312
0.5194782257080078,0.6285730361938476
0.5194782257080078,0.6285730361938476
0.5315237045288086,0.6325590133666992
0.5315237045288086,0.6325590133666992
0.5235048294067383,0.6373941421508789
0.5235048294067383,0.6373941421508789
0.5251710891723632,0.6275030136108398
0.5251710891723632,0.6275030136108398
0.5326023101806641,0.6429651260375976
0.5326023101806641,0.6429651260375976
0.5206060409545898,0.6290119171142577
0.5206060409545898,0.6290119171142577
0.5326492309570312,0.6348352432250977
0.5326492309570312,0.6348352432250977
0.5254405975341797,0.6395233154296874
0.5254405975341797,0.6395233154296874
0.5255401611328124,0.6309694290161133
0.5194988250732422,0.6309694290161133
0.5327064514160156,0.6405652999877930
0.5327064514160156,0.6405652999877930
0.5191246032714844,0.6259929656982421
0.5191246032714844,0.6259929656982421
0.5299896240234375,0.6278223037719727
0.5299896240234375,0.6278223037719727
0.5192190170288086,0.6285867691040039
0.5192190170288086,0.6285867691040039
0.5165782928466797,0.6091638565063476
0.5165782928466797,0.6091638565063476
0.5208257675170899,0.6156595230102538
0.5208257675170899,0.6156595230102538
0.5063615798950195,0.5983726501464843
0.5063615798950195,0.5983726501464843
0.5157365798950195,0.6021045684814453
0.5157365798950195,0.6021045684814453
0.5066648483276367,0.6021011352539062
0.5066648483276367,0.6021011352539062
0.5059879302978515,0.5903091430664062
0.5059879302978515,0.5903091430664062
0.5141452789306641,0.6027248382568359
0.5141452789306641,0.6027248382568359
0.5015682220458985,0.5923427581787110
0.5015682220458985,0.5923427581787110
0.5135238647460937,0.5963224411010742
0.5135238647460937,0.5963224411010742
0.5060657501220703,0.6013332366943359
0.5060657501220703,0.6013332366943359
0.5075992584228516,0.5925344467163086
0.5075992584228516,0.5925344467163086
0.5157560348510742,0.6092811584472656
0.5157560348510742,0.6092811584472656
0.5049722671508788,0.5974164962768554
0.5049722671508788,0.5974164962768554
0.5177621841430664,0.6060430526733398
0.5177621841430664,0.6060430526733398
0.5120807647705078,0.6134330749511718
0.5120807647705078,0.6134330749511718
0.5136697769165038,0.6077728271484375
0.5136697769165038,0.6077728271484375
0.5225732803344726,0.6207841873168946
0.5182548522949219,0.6207841873168946
0.5112545013427734,0.6102813720703125
0.5112545013427734,0.6102813720703125
0.5242652893066406,0.6176233291625977
0.5242652893066406,0.6176233291625977
0.5166418075561523,0.6250791549682617
0.5166418075561523,0.6250791549682617
0.5178136825561523,0.6136814117431640
0.5178136825561523,0.6136814117431640
0.5255287170410156,0.6274858474731445
0.5255287170410156,0.6274858474731445
0.5145973205566406,0.6159318923950196
0.5145973205566406,0.6159318923950196
0.5263383865356445,0.6244148254394531
0.5263383865356445,0.6244148254394531
0.5187120437622070,0.6271539688110351
0.5187120437622070,0.6271539688110351
0.5196378707885742,0.6172885894775391
0.5196378707885742,0.6172885894775391
0.5278696060180664,0.6309968948364257
0.5278696060180664,0.6309968948364257
0.5157560348510742,0.6210691452026367
0.5157560348510742,0.6210691452026367
0.5278553009033203,0.6253612518310546
0.5278553009033203,0.6253612518310546
0.5198478698730469,0.6301191329956054
0.5198478698730469,0.6301191329956054
0.5215124130249024,0.6205066680908203
0.5215124130249024,0.6205066680908203
0.5290145874023438,0.6359939575195312
0.5290145874023438,0.6359939575195312
0.5172843933105469,0.6218719482421875
0.5172843933105469,0.6218719482421875
0.5291696548461914,0.6283521652221680
0.5291696548461914,0.6283521652221680
0.5219472885131836,0.6331546783447265
0.5219472885131836,0.6331546783447265
0.5226179122924804,0.6255077362060547
0.5226179122924804,0.6255077362060547
0.5304777145385742,0.6367853164672851
0.5304777145385742,0.6367853164672851
0.5183961868286132,0.6249143600463867
0.5290037155151367,0.6249143600463867
0.5311277389526367,0.6316595077514648
0.5311277389526367,0.6316595077514648
0.5230665206909180,0.6383388519287109
0.5230665206909180,0.6383388519287109
0.5242103576660156,0.6266819000244140
0.5242103576660156,0.6266819000244140
0.5319952011108399,0.6402729034423827
0.5319952011108399,0.6402729034423827
0.5207828521728516,0.6284437179565430
0.5207828521728516,0.6284437179565430
0.5324850082397461,0.6370576858520508
0.5324850082397461,0.6370576858520508
0.5247751235961914,0.6396537780761719
0.5247751235961914,0.6396537780761719
0.5253484725952148,0.6299417495727538
0.5253484725952148,0.6299417495727538
0.5340459823608398,0.6436231613159179
0.5340459823608398,0.6436231613159179
0.5219604492187500,0.6335008621215820
0.5219604492187500,0.6335008621215820
0.5338800430297851,0.6377855300903320
0.5338800430297851,0.6377855300903320
0.5261346817016601,0.6420501708984375
0.5261346817016601,0.6420501708984375
0.5271789550781250,0.6317344665527344
0.5271789550781250,0.6317344665527344
0.5341844558715820,0.6466026306152344
0.5341844558715820,0.6466026306152344
0.5218002319335937,0.6306667327880859
0.5218002319335937,0.6306667327880859
0.5321044921875000,0.6347431182861328
0.5321044921875000,0.6347431182861328
0.5233840942382812,0.6352815628051758
0.5233840942382812,0.6352815628051758
0.5214397430419921,0.6221065521240234
0.5141510009765625,0.6221065521240234
0.5260723114013671,0.6267293930053711
0.5260723114013671,0.6267293930053711
0.5108825683593750,0.6076532363891601
0.5108825683593750,0.6076532363891601
0.5202833175659179,0.6089635848999023
0.5202833175659179,0.6089635848999023
0.5100042343139648,0.6110715866088867
0.5100042343139648,0.6110715866088867
0.5092535018920898,0.5962869644165039
0.5092535018920898,0.5962869644165039
0.5156124114990234,0.6078546524047851
0.5156124114990234,0.6078546524047851
0.5042581558227539,0.5948158264160156
0.5042581558227539,0.5948158264160156
0.5156078338623047,0.6031202316284180
0.5040555953979492,0.6031202316284180
0.5079580307006836,0.6057861328124999
0.5079580307006836,0.6057861328124999
0.5092678070068359,0.5967653274536132
0.5092678070068359,0.5967653274536132
0.5180431365966797,0.6118377685546875
0.5180431365966797,0.6118377685546875
0.5069160461425781,0.6037044525146484
0.5069160461425781,0.6037044525146484
0.5200561523437500,0.6107002258300781
0.5200561523437500,0.6107002258300781
0.5130947113037109,0.6174562454223632
0.5130947113037109,0.6174562454223632
0.5159191131591797,0.6098258972167968
0.5159191131591797,0.6098258972167968
0.5242223739624023,0.6269348144531249
0.5242223739624023,0.6269348144531249
0.5132612228393555,0.6137758255004883
0.5132612228393555,0.6137758255004883
0.5254943847656249,0.6215372085571289
0.5140108108520508,0.6215372085571289
0.5186347961425781,0.6267368316650390
0.5186347961425781,0.6267368316650390
0.5195222854614258,0.6193971633911133
0.5195222854614258,0.6193971633911133
0.5227443695068359,0.6212459564208984
0.5227443695068359,0.6212459564208984
0.5244810104370117,0.6320869445800781
0.5280532836914062,0.6320869445800781
0.5178176879882812,0.6181446075439453
0.5178176879882812,0.6181446075439453
0.5296966552734375,0.6312280654907226
0.5296966552734375,0.6312280654907226
0.5146739959716796,0.6266372680664062
0.5146739959716796,0.6266372680664062
0.5254709243774414,0.6246986389160156
0.5254709243774414,0.6246986389160156
0.5260631561279296,0.6350515365600585
0.5260631561279296,0.6350515365600585
0.5193918228149413,0.6211395263671875
0.5226007461547851,0.6211395263671875
0.5296508789062500,0.6336816787719727
0.5296508789062500,0.6336816787719727
0.5172019958496094,0.6296739578247070
0.5172019958496094,0.6296739578247070
0.5268201828002930,0.6273153305053710
0.5268201828002930,0.6273153305053710
0.5273271560668945,0.6378559112548828
0.5304622650146484,0.6378559112548828
0.5192802429199218,0.6233184814453124
0.5192802429199218,0.6233184814453124
0.5322566986083984,0.6367086410522461
0.5322566986083984,0.6367086410522461
0.5187280654907226,0.6323535919189452
0.5187280654907226,0.6323535919189452
0.5282758712768555,0.6302209854125976
0.5282758712768555,0.6302209854125976
0.5272619247436523,0.6403215408325195
0.5272619247436523,0.6403215408325195
0.5219799041748047,0.6266258239746093
0.5256219863891601,0.6266258239746093
0.5337919235229492,0.6396028518676757
0.5337919235229492,0.6396028518676757
0.5202718734741211,0.6354377746582031
0.5202718734741211,0.6354377746582031
0.5284074783325196,0.6330196380615234
0.5192155838012695,0.6330196380615234
0.5300125122070313,0.6438377380371093
0.5300125122070313,0.6438377380371093
0.5236885070800781,0.6297391891479492
0.5236885070800781,0.6297391891479492
0.5353860855102539,0.6428472518920898
0.5353860855102539,0.6428472518920898
0.5202793121337891,0.6381797790527344
0.5202793121337891,0.6381797790527344
0.5309600830078125,0.6363418579101562
0.5309600830078125,0.6363418579101562
0.5315603256225586,0.6466243743896484
0.5315603256225586,0.6466243743896484
0.5250469207763672,0.6324497222900390
0.5280773162841796,0.6324497222900390
0.5352602005004883,0.6449323654174804
0.5352602005004883,0.6449323654174804
0.5226196289062500,0.6403369903564453
0.5226196289062500,0.6403369903564453
0.5320816040039062,0.6374799728393554
0.5320816040039062,0.6374799728393554
0.5316907882690429,0.6466318130493164
0.5316907882690429,0.6466318130493164
0.5228450775146484,0.6301849365234374
0.5228450775146484,0.6301849365234374
0.5342960357666016,0.6405069351196289
0.5342960357666016,0.6405069351196289
0.5187498092651367,0.6315771102905273
0.5187498092651367,0.6315771102905273
0.5258794784545898,0.6243816375732422
0.5258794784545898,0.6243816375732422
0.5219026565551758,0.6283155441284179
0.5219026565551758,0.6283155441284179
0.5138196945190430,0.6088668823242187
0.5160415649414062,0.6088668823242187
0.5231929779052734,0.6174745559692383
0.5231929779052734,0.6174745559692383
0.5078533172607421,0.6098310470581054
0.5078533172607421,0.6098310470581054
0.5147724151611328,0.6051509857177734
0.5147724151611328,0.6051509857177734
0.5157205581665039,0.6145809173583984
0.5157205581665039,0.6145809173583984
0.5089994430541992,0.6002420425415039
0.5089994430541992,0.6002420425415039
0.5208000183105469,0.6137248992919921
0.5208000183105469,0.6137248992919921
0.5063306808471679,0.6098562240600586
0.5063306808471679,0.6098562240600586
0.5177890777587890,0.6096485137939452
0.5177890777587890,0.6096485137939452
0.5192665100097656,0.6222410202026367
0.5192665100097656,0.6222410202026367
0.5138099670410156,0.6103328704833985
0.5172861099243163,0.6103328704833985
0.5250635147094727,0.6249595642089844
0.5250635147094727,0.6249595642089844
0.5134431838989257,0.6220945358276367
0.5134431838989257,0.6220945358276367
0.5236564636230469,0.6211641311645507
0.5236564636230469,0.6211641311645507
0.5245079040527344,0.6323856353759766
0.5245079040527344,0.6323856353759766
0.5169645309448242,0.6186635971069335
0.5169645309448242,0.6186635971069335
0.5299209594726563,0.6324319839477539
0.5299209594726563,0.6324319839477539
0.5166011810302734,0.6280649185180663
0.5166011810302734,0.6280649185180663
0.5262771606445312,0.6261806488037109
0.5262771606445312,0.6261806488037109
0.5252140045166015,0.6361495971679687
0.5252140045166015,0.6361495971679687
0.5198656082153320,0.6223337173461914
0.5232627868652343,0.6223337173461914
0.5314270019531250,0.6353101730346680
0.5314270019531250,0.6353101730346680
0.5178606033325195,0.6307565689086914
0.5178606033325195,0.6307565689086914
0.5261730194091797,0.6283252716064452
0.5169330596923828,0.6283252716064452
0.5274690628051758,0.6387886047363281
0.5274690628051758,0.6387886047363281
0.5210792541503906,0.6246568679809570
0.5210792541503906,0.6246568679809570
0.5326629638671875,0.6378101348876953
0.5323883056640625,0.6325223922729492
0.5283559799194336,0.6307405471801758
0.5195526123046875,0.6307405471801758
0.5285150527954101,0.6409429550170899
0.5285150527954101,0.6409429550170899
0.5222402572631836,0.6269462585449218
0.5222402572631836,0.6269462585449218
0.5323837280273437,0.6396114349365234
0.5323837280273437,0.6396114349365234
0.5198587417602539,0.6351253509521484
0.5198587417602539,0.6351253509521484
0.5296571731567382,0.6333103179931641
0.5296571731567382,0.6333103179931641
0.5298614501953125,0.6436655044555664
0.5298614501953125,0.6436655044555664
0.5221601486206054,0.6291589736938477
0.5221601486206054,0.6291589736938477
0.5348596572875977,0.6426692962646484
0.5348596572875977,0.6426692962646484
0.5212165832519531,0.6378919601440429
0.5212165832519531,0.6378919601440429
0.5310934066772460,0.6361066818237304
0.5310934066772460,0.6361066818237304
0.5296915054321288,0.6459383010864258
0.5296915054321288,0.6459383010864258
0.5246938705444336,0.6322614669799804
0.5279193878173828,0.6322614669799804
0.5364320755004882,0.6454805374145508
0.5364320755004882,0.6454805374145508
0.5226636886596679,0.6406425476074219
0.5226636886596679,0.6406425476074219
0.5308513641357422,0.6383857727050781
0.5308513641357422,0.6383857727050781
0.5323064804077148,0.6487323760986328
0.5323064804077148,0.6487323760986328
0.5258085250854492,0.6346223831176757
0.5258085250854492,0.6346223831176757
0.5374271392822265,0.6474317550659180
0.5374271392822265,0.6474317550659180
0.5219169616699219,0.6414270401000977
0.5219169616699219,0.6414270401000977
0.5323568344116211,0.6388137817382812
0.5323568344116211,0.6388137817382812
0.5317245483398437,0.6471342086791992
0.5317245483398437,0.6471342086791992
0.5241943359375000,0.6303611755371094
0.5241943359375000,0.6303611755371094
0.5321228027343750,0.6385139465332031
0.5321228027343750,0.6385139465332031
0.5170280456542968,0.6282703399658203
0.5170280456542968,0.6282703399658203
0.5235671997070312,0.6196844100952148
0.5235671997070312,0.6196844100952148
0.5204927444458007,0.6233505249023438
0.5204927444458007,0.6233505249023438
0.5100723266601562,0.6038520812988281
0.5100723266601562,0.6038520812988281
0.5206180572509765,0.6133203506469727
0.5206180572509765,0.6133203506469727
0.5056509017944336,0.6055166244506835
0.5056509017944336,0.6055166244506835
0.5143329620361328,0.6021589279174805
0.5143329620361328,0.6021589279174805
0.5125911712646484,0.6111316680908203
0.5125911712646484,0.6111316680908203
0.5073554992675781,0.5972808837890625
0.5105072021484375,0.5972808837890625
0.5190073013305664,0.6108787536621093
0.5102291107177734,0.6108787536621093
0.5060073852539062,0.6070770263671875
0.5060073852539062,0.6070770263671875
0.5151735305786133,0.6067474365234374
0.5151735305786133,0.6067474365234374
0.5174091339111327,0.6193593978881836
0.5174091339111327,0.6193593978881836
0.5124172210693360,0.6076623916625976
0.5124172210693360,0.6076623916625976
0.5249753952026367,0.6230209350585937
0.5249753952026367,0.6230209350585937
0.5109088897705077,0.6192192077636719
0.5109088897705077,0.6192192077636719
0.5224908828735352,0.6191431045532226
0.5224908828735352,0.6191431045532226
0.5229269027709961,0.6301340103149414
0.5229269027709961,0.6301340103149414
0.5172506332397461,0.6170476913452149
0.5198575973510742,0.6170476913452149
0.5275526046752930,0.6302507400512695
0.5275526046752930,0.6302507400512695
0.5152238845825196,0.6256147384643554
0.5152238845825196,0.6256147384643554
0.5251985549926758,0.6241481781005859
0.5251985549926758,0.6241481781005859
0.5252403259277344,0.6343482971191406
0.5252403259277344,0.6343482971191406
0.5176300048828125,0.6201896667480469
0.5176300048828125,0.6201896667480469
0.5302625656127929,0.6334653854370117
0.5302625656127929,0.6334653854370117
0.5166389465332031,0.6283807754516602
0.5166389465332031,0.6283807754516602
0.5264877319335938,0.6268684387207031
0.5171230316162109,0.6268684387207031
0.5250743865966797,0.6365987777709960
0.5250743865966797,0.6365987777709960
0.5196327209472656,0.6228315353393554
0.5196327209472656,0.6228315353393554
0.5316432952880860,0.6359252929687500
0.5316432952880860,0.6359252929687500
0.5178468704223632,0.6307737350463867
0.5178468704223632,0.6307737350463867
0.5262920379638671,0.6288265228271485
0.5262920379638671,0.6288265228271485
0.5273054122924804,0.6390666961669922
0.5273054122924804,0.6390666961669922
0.5211908340454101,0.6252330780029297
0.5211908340454101,0.6252330780029297
0.5327997207641602,0.6384229660034180
0.5327997207641602,0.6384229660034180
0.5176952362060546,0.6329635620117188
0.5176952362060546,0.6329635620117188
0.5287210464477539,0.6317390441894531
0.5287210464477539,0.6317390441894531
0.5288372039794922,0.6418968200683594
0.5288372039794922,0.6418968200683594
0.5227615356445312,0.6278154373168945
0.5253015518188476,0.6278154373168945
0.5328643798828124,0.6411455154418945
0.5328643798828124,0.6411455154418945
0.5204086303710938,0.6362594604492188
0.5204086303710938,0.6362594604492188
0.5302991867065430,0.6348501205444336
0.5302991867065430,0.6348501205444336
0.5304754257202148,0.6451715469360352
0.5304754257202148,0.6451715469360352
0.5230150222778320,0.6309173583984374
0.5230150222778320,0.6309173583984374
0.5354352951049804,0.6443195343017578
0.5354352951049804,0.6443195343017578
0.5220233917236328,0.6391187667846679
0.5220233917236328,0.6391187667846679
0.5316822052001953,0.6375595092773437
0.5316822052001953,0.6375595092773437
0.5302814483642578,0.6471691131591797
0.5302814483642578,0.6471691131591797
0.5250904083251953,0.6331592559814453
0.5250904083251953,0.6331592559814453
0.5362323760986328,0.6457094192504883
0.5362323760986328,0.6457094192504883
0.5221807479858398,0.6394947052001952
0.5221807479858398,0.6394947052001952
0.5298007965087891,0.6356935501098633
0.5298007965087891,0.6356935501098633
0.5294488906860352,0.6430418014526367
0.5294488906860352,0.6430418014526367
0.5213104248046875,0.6245389938354492
0.5213104248046875,0.6245389938354492
0.5299072265625000,0.6317207336425781
0.5299072265625000,0.6317207336425781
0.5114810943603515,0.6187734603881836
0.5114810943603515,0.6187734603881836
0.5189666748046875,0.6106887817382812
0.5189666748046875,0.6106887817382812
0.5160753250122070,0.6154020309448242
0.5160753250122070,0.6154020309448242
0.5078252792358399,0.5973976135253906
0.5078252792358399,0.5973976135253906
0.5163408279418945,0.6073848724365234
0.5163408279418945,0.6073848724365234
0.5027795791625976,0.6005996704101563
0.5027795791625976,0.6005996704101563
0.5136085510253906,0.5961553573608398
0.5119028091430664,0.5961553573608398
0.5155122756958007,0.6020484924316406
0.5155122756958007,0.6020484924316406
0.5069274902343750,0.6058353424072266
0.5069274902343750,0.6058353424072266
0.5096317291259765,0.5974634170532226
0.5096317291259765,0.5974634170532226
0.5172254562377929,0.6145969390869140
0.5172254562377929,0.6145969390869140
0.5071523666381835,0.6015031814575195
0.5071523666381835,0.6015031814575195
0.5200675964355469,0.6119585037231445
0.5200675964355469,0.6119585037231445
0.5132177352905273,0.6177303314208984
0.5132177352905273,0.6177303314208984
0.5155380249023437,0.6124580383300781
0.5155380249023437,0.6124580383300781
0.5236272811889648,0.6253097534179687
0.5201625823974609,0.6253097534179687
0.5127079010009765,0.6132556915283203
0.5127079010009765,0.6132556915283203
0.5257095336914063,0.6223262786865235
0.5257095336914063,0.6223262786865235
0.5173604965209960,0.6284254074096679
0.5173604965209960,0.6284254074096679
0.5191280364990234,0.6172834396362304
0.5191280364990234,0.6172834396362304
0.5264511108398438,0.6308807373046875
0.5264511108398438,0.6308807373046875
0.5157400131225586,0.6179391860961914
0.5157400131225586,0.6179391860961914
0.5273454666137695,0.6282068252563476
0.5273454666137695,0.6282068252563476
0.5190341949462890,0.6295452117919922
0.5294837951660156,0.6295452117919922
0.5203479766845703,0.6201044082641601
0.5203479766845703,0.6201044082641601
0.5281133651733398,0.6336444854736328
0.5281133651733398,0.6336444854736328
0.5167196273803710,0.6226083755493164
0.5167196273803710,0.6226083755493164
0.5285642623901367,0.6285392761230468
0.5285642623901367,0.6285392761230468
0.5200590133666992,0.6318511962890625
0.5200590133666992,0.6318511962890625
0.5222316741943359,0.6226690292358398
0.5222316741943359,0.6226690292358398
0.5290077209472656,0.6382347106933594
0.5290077209472656,0.6382347106933594
0.5181169509887695,0.6229139328002929
0.5181169509887695,0.6229139328002929
0.5294414520263672,0.6311519622802734
0.5294414520263672,0.6311519622802734
0.5218317031860351,0.6348884582519531
0.5218317031860351,0.6348884582519531
0.5230298995971679,0.6277067184448242
0.5230298995971679,0.6277067184448242
0.5304016113281250,0.6391485214233398
0.5304016113281250,0.6391485214233398
0.5194478988647461,0.6260690689086914
0.5194478988647461,0.6260690689086914
0.5317754745483398,0.6345239639282226
0.5317754745483398,0.6345239639282226
0.5231145858764649,0.6401224136352539
0.5231145858764649,0.6401224136352539
0.5248752593994140,0.6288087844848632
0.5248752593994140,0.6288087844848632
0.5316764831542968,0.6421108245849609
0.5316764831542968,0.6421108245849609
0.5213871002197266,0.6292814254760742
0.5213871002197266,0.6292814254760742
0.5328752517700195,0.6396366119384765
0.5328752517700195,0.6396366119384765
0.5245176315307617,0.6408599853515625
0.5245176315307617,0.6408599853515625
0.5261844635009766,0.6315862655639648
0.5261844635009766,0.6315862655639648
0.5337512969970702,0.6452356338500976
0.5337512969970702,0.6452356338500976
0.5221996307373047,0.6338092803955078
0.5221996307373047,0.6338092803955078
0.5340293884277344,0.6396314620971679
0.5340293884277344,0.6396314620971679
0.5247550964355469,0.6421697616577148
0.5247550964355469,0.6421697616577148
0.5266565322875977,0.6316944122314453
0.5266565322875977,0.6316944122314453
0.5323688507080078,0.6448534011840820
0.5323688507080078,0.6448534011840820
0.5196533203125000,0.6253555297851562
0.5196533203125000,0.6253555297851562
0.5287090301513672,0.6276609420776367
0.5287090301513672,0.6276609420776367
0.5168609619140625,0.6233522415161132
0.5168609619140625,0.6233522415161132
0.5144142150878906,0.6081121444702148
0.5144142150878906,0.6081121444702148
0.5180505752563477,0.6130182266235351
0.5180505752563477,0.6130182266235351
0.5037906646728515,0.5948020935058593
0.5037906646728515,0.5948020935058593
0.5145853042602538,0.5997739791870117
0.5145853042602538,0.5997739791870117
0.5046970367431640,0.6029005050659180
0.5046970367431640,0.6029005050659180
0.5055187225341796,0.5901294708251953
0.5055187225341796,0.5901294708251953
0.5121408462524414,0.6025737762451172
0.5121408462524414,0.6025737762451172
0.5011631011962890,0.5888854980468750
0.5011631011962890,0.5888854980468750
0.5126380920410156,0.5990043640136719
0.5126380920410156,0.5990043640136719
0.5043806076049805,0.6007495880126953
0.5043806076049805,0.6007495880126953
0.5062093734741211,0.5926168441772460
0.5062093734741211,0.5926168441772460
0.5148221969604492,0.6079330444335938
0.5148221969604492,0.6079330444335938
0.5046100616455078,0.5988801956176758
0.5046100616455078,0.5988801956176758
0.5177427291870117,0.6076108932495117
0.5177427291870117,0.6076108932495117
0.5102954864501953,0.6131401062011719
0.5102954864501953,0.6131401062011719
0.5133213043212891,0.6059560775756836
0.5133213043212891,0.6059560775756836
0.5209510803222656,0.6227416992187500
0.5209510803222656,0.6227416992187500
0.5105089187622071,0.6085298538208007
0.5105089187622071,0.6085298538208007
0.5223615646362304,0.6176090240478516
0.5223615646362304,0.6176090240478516
0.5149509429931640,0.6215034484863281
0.5253181457519531,0.6215034484863281
0.5165782928466797,0.6146547317504882
0.5165782928466797,0.6146547317504882
0.5236267089843750,0.6262390136718750
0.5236267089843750,0.6262390136718750
0.5127788543701172,0.6130353927612304
0.5127788543701172,0.6130353927612304
0.5250148773193359,0.6215784072875976
0.5250148773193359,0.6215784072875976
0.5164043426513671,0.6268821716308594
0.5164043426513671,0.6268821716308594
0.5181381225585937,0.6156538009643554
0.5181381225585937,0.6156538009643554
0.5246921539306640,0.6291938781738281
0.5246921539306640,0.6291938781738281
0.5144886016845703,0.6159753799438477
0.5144886016845703,0.6159753799438477
0.5262239456176757,0.6262556076049804
0.5262239456176757,0.6262556076049804
0.5176271438598633,0.6276260375976562
0.5176271438598633,0.6276260375976562
0.5193363189697265,0.6183843612670898
0.5193363189697265,0.6183843612670898
0.5268739700317383,0.6318380355834960
0.5268739700317383,0.6318380355834960
0.5157079696655273,0.6208133697509766
0.5157079696655273,0.6208133697509766
0.5276252746582031,0.6273336410522461
0.5276252746582031,0.6273336410522461
0.5188018798828125,0.6308200836181640
0.5188018798828125,0.6308200836181640
0.5213962554931640,0.6218885421752930
0.5213962554931640,0.6218885421752930
0.5282398223876953,0.6375102996826172
0.5282398223876953,0.6375102996826172
0.5174091339111327,0.6223903656005859
0.5174091339111327,0.6223903656005859
0.5293144226074219,0.6307428359985351
0.5293144226074219,0.6307428359985351
0.5210866928100586,0.6343448638916015
0.5210866928100586,0.6343448638916015
0.5226745605468750,0.6273250579833984
0.5226745605468750,0.6273250579833984
0.5299615859985352,0.6389093399047852
0.5299615859985352,0.6389093399047852
0.5185901641845703,0.6256399154663086
0.5185901641845703,0.6256399154663086
0.5312479019165038,0.6342699050903320
0.5312479019165038,0.6342699050903320
0.5224182128906250,0.6395587921142578
0.5224182128906250,0.6395587921142578
0.5243179321289062,0.6281301498413085
0.5243179321289062,0.6281301498413085
0.5312158584594726,0.6416204452514648
0.5312158584594726,0.6416204452514648
0.5205207824707031,0.6280986785888671
0.5205207824707031,0.6280986785888671
0.5319517135620117,0.6380613327026367
0.5319517135620117,0.6380613327026367
0.5228364944458007,0.6381820678710938
0.5228364944458007,0.6381820678710938
0.5235374450683593,0.6271905899047852
0.5235374450683593,0.6271905899047852
0.5298746109008788,0.6376350402832031
0.5298746109008788,0.6376350402832031
0.5163757324218750,0.6214302062988281
0.5163757324218750,0.6214302062988281
0.5253353118896484,0.6210571289062500
0.5253353118896484,0.6210571289062500
0.5128463745117188,0.6165699005126953
0.5128463745117188,0.6165699005126953
0.5114347457885742,0.6004880905151367
0.5114347457885742,0.6004880905151367
0.5151941299438476,0.6102619171142578
0.5151941299438476,0.6102619171142578
0.5019384384155273,0.5907382965087891
0.5019384384155273,0.5907382965087891
0.5118902206420898,0.5961879730224610
0.5118902206420898,0.5961879730224610
0.5029083251953125,0.5977169036865234
0.5029083251953125,0.5977169036865234
0.5039148330688477,0.5894668579101562
0.5039148330688477,0.5894668579101562
0.5107315063476562,0.6003170013427734
0.5107315063476562,0.6003170013427734
0.4996238708496094,0.5869245529174805
0.4996238708496094,0.5869245529174805
0.5122661590576172,0.5959419250488281
0.5122661590576172,0.5959419250488281
0.5038730621337890,0.6023151397705078
0.5038730621337890,0.6023151397705078
0.5064857482910156,0.5930494308471680
0.5064857482910156,0.5930494308471680
0.5141561508178710,0.6088130950927734
0.5141561508178710,0.6088130950927734
0.5052864074707031,0.5980562210083008
0.5052864074707031,0.5980562210083008
0.5181198120117188,0.6109062194824219
0.5181198120117188,0.6109062194824219
0.5105272293090820,0.6141277313232422
0.5105272293090820,0.6141277313232422
0.5132446289062500,0.6065752029418945
0.5132446289062500,0.6065752029418945
0.5212360382080078,0.6212562561035156
0.5177444458007813,0.6212562561035156
0.5104225158691406,0.6106184005737304
0.5104225158691406,0.6106184005737304
0.5227506637573242,0.6176937103271484
0.5227506637573242,0.6176937103271484
0.5138957977294921,0.6212591171264649
0.5138957977294921,0.6212591171264649
0.5166521072387695,0.6125347137451171
0.5166521072387695,0.6125347137451171
0.5235219955444336,0.6280860900878906
0.5235219955444336,0.6280860900878906
0.5126312255859374,0.6127183914184570
0.5126312255859374,0.6127183914184570
0.5244089126586914,0.6212671279907226
0.5128000259399413,0.6212671279907226
0.5162172317504883,0.6245767593383789
0.5162172317504883,0.6245767593383789
0.5178108215332031,0.6173675537109374
0.5178108215332031,0.6173675537109374
0.5247848510742187,0.6288099288940430
0.5247848510742187,0.6288099288940430
0.5134786605834961,0.6155130386352539
0.5134786605834961,0.6155130386352539
0.5261507034301758,0.6241355895996094
0.5261507034301758,0.6241355895996094
0.5172266006469727,0.6293357849121094
0.5172266006469727,0.6293357849121094
0.5191858291625976,0.6181446075439453
0.5191858291625976,0.6181446075439453
0.5261524200439452,0.6317052841186523
0.5261524200439452,0.6317052841186523
0.5156976699829101,0.6186040878295899
0.5156976699829101,0.6186040878295899
0.5272899627685547,0.6292367935180664
0.5272899627685547,0.6292367935180664
0.5189460754394531,0.6304773330688477
0.5294689178466797,0.6304773330688477
0.5203931808471679,0.6214513778686523
0.5203931808471679,0.6214513778686523
0.5281660079956054,0.6351837158203125
0.5281660079956054,0.6351837158203125
0.5170097351074219,0.6239931106567382
0.5170097351074219,0.6239931106567382
0.5290603637695312,0.6305906295776367
0.5290603637695312,0.6305906295776367
0.5203868865966796,0.6337766647338867
0.5203868865966796,0.6337766647338867
0.5226036071777344,0.6248805999755859
0.5226036071777344,0.6248805999755859
0.5293653488159179,0.6403861999511719
0.5293653488159179,0.6403861999511719
0.5184459686279297,0.6249040603637696
0.5184459686279297,0.6249040603637696
0.5300542831420898,0.6335277557373047
0.5300542831420898,0.6335277557373047
0.5221338272094727,0.6369375228881836
0.5221338272094727,0.6369375228881836
0.5238052368164062,0.6298427581787109
0.5238052368164062,0.6298427581787109
0.5307626724243164,0.6409578323364258
0.5268247604370117,0.6311954498291016
0.5315855026245117,0.6408514022827149
0.5315855026245117,0.6344038009643554
0.5213550567626953,0.6263740539550781
0.5213550567626953,0.6263740539550781
0.5319625854492187,0.6381877899169922
0.5221933364868164,0.6381877899169922
0.5155019760131836,0.6293992996215820
0.5155019760131836,0.6293992996215820
0.5247453689575196,0.6242300033569336
0.5247453689575196,0.6242300033569336
0.5215787887573242,0.6280134201049804
0.5215787887573242,0.6280134201049804
0.5123857498168946,0.6067125320434570
0.5123857498168946,0.6067125320434570
0.5184190750122070,0.6120346069335937
0.5184190750122070,0.6120346069335937
0.5025026321411132,0.6004091262817383
0.5025026321411132,0.6004091262817383
0.5102073669433593,0.5947500228881836
0.5102073669433593,0.5947500228881836
0.5081171035766602,0.6016273498535156
0.5081171035766602,0.6016273498535156
0.4998905181884765,0.5854768753051758
0.4998905181884765,0.5854768753051758
0.5114971160888672,0.5977226257324219
0.5114971160888672,0.5977226257324219
0.4974288940429688,0.5914701461791992
0.4974288940429688,0.5914701461791992
0.5077114105224609,0.5904745101928711
0.5077114105224609,0.5904745101928711
0.5062534332275390,0.6004829406738281
0.5062534332275390,0.6004829406738281
0.5019624710083007,0.5881805419921875
0.5019624710083007,0.5881805419921875
0.5141040802001953,0.6030630111694336
0.5056154251098632,0.6030630111694336
0.5013284683227539,0.5995450973510742
0.5013284683227539,0.5995450973510742
0.5114233016967773,0.6006454467773438
0.5114233016967773,0.6006454467773438
0.5131925582885742,0.6130725860595703
0.5131925582885742,0.6130725860595703
0.5083992004394531,0.6014482498168945
0.5083992004394531,0.6014482498168945
0.5206529617309570,0.6162683486938476
0.5206529617309570,0.6162683486938476
0.5061075210571289,0.6112306594848632
0.5061075210571289,0.6112306594848632
0.5178279876708984,0.6113004684448242
0.5178279876708984,0.6113004684448242
0.5179338455200195,0.6217123031616211
0.5179338455200195,0.6217123031616211
0.5123600006103516,0.6085464477539062
0.5123600006103516,0.6085464477539062
0.5223243713378906,0.6216201782226562
0.5136079788208008,0.6216201782226562
0.5096832275390625,0.6163255691528320
0.5096832275390625,0.6163255691528320
0.5198616027832031,0.6152658462524414
0.5198616027832031,0.6152658462524414
0.5197162628173828,0.6253183364868163
0.5197162628173828,0.6253183364868163
0.5124956130981445,0.6111877441406249
0.5124956130981445,0.6111877441406249
0.5248455047607422,0.6249052047729492
0.5248455047607422,0.6249052047729492
0.5111766815185547,0.6191053390502930
0.5111766815185547,0.6191053390502930
0.5215055465698242,0.6181325912475586
0.5215055465698242,0.6181325912475586
0.5196710586547851,0.6276260375976562
0.5196710586547851,0.6276260375976562
0.5149726867675781,0.6144041061401367
0.5149726867675781,0.6144041061401367
0.5262868881225585,0.6277336120605469
0.5262868881225585,0.6277336120605469
0.5126764297485351,0.6220911026000976
0.5273403167724610,0.6220911026000976
0.5217000961303710,0.6207624435424804
0.5217000961303710,0.6207624435424804
0.5222934722900391,0.6310661315917968
0.5222934722900391,0.6310661315917968
0.5167293548583984,0.6175546646118164
0.5167293548583984,0.6175546646118164
0.5281093597412109,0.6311353683471680
0.5281093597412109,0.6311353683471680
0.5129602432250976,0.6250837326049804
0.5129602432250976,0.6250837326049804
0.5244134902954102,0.6245693206787110
0.5153337478637695,0.6245693206787110
0.5240221023559570,0.6345451354980468
0.5240221023559570,0.6345451354980468
0.5185146331787109,0.6210514068603515
0.5185146331787109,0.6210514068603515
0.5283525466918945,0.6340930938720702
0.5194862365722656,0.6340930938720702
0.5156404495239257,0.6285753250122070
0.5156404495239257,0.6285753250122070
0.5261106491088867,0.6274967193603516
0.5261106491088867,0.6274967193603516
0.5256769180297851,0.6375766754150390
0.5256769180297851,0.6375766754150390
0.5185472488403320,0.6234781265258789
0.5205059051513672,0.6234781265258789
0.5307529449462890,0.6369049072265625
0.5307529449462890,0.6369049072265625
0.5167928695678711,0.6308927536010742
0.5167928695678711,0.6308927536010742
0.5270153045654297,0.6295578002929687
0.5270153045654297,0.6295578002929687
0.5247642517089843,0.6380859375000000
0.5247642517089843,0.6380859375000000
0.5193019866943359,0.6227542877197265
0.5211650848388671,0.6227542877197265
0.5291656494140625,0.6326145172119141
0.5291656494140625,0.6326145172119141
0.5129613876342773,0.6214817047119140
0.5129613876342773,0.6214817047119140
0.5182394027709961,0.6123464584350585
0.5182394027709961,0.6123464584350585
0.5145584106445312,0.6135114669799805
0.5145584106445312,0.6135114669799805
0.5045974731445312,0.5921396255493164
0.5045974731445312,0.5921396255493164
0.5127771377563476,0.5995651245117187
0.5127771377563476,0.5995651245117187
0.4953266143798828,0.5891521453857421
0.4953266143798828,0.5891521453857421
0.5050426483154297,0.5853137969970703
0.5050426483154297,0.5853137969970703
0.5036613464355468,0.5933132171630859
0.5036613464355468,0.5933132171630859
0.4973093032836914,0.5784690856933593
0.4973093032836914,0.5784690856933593
0.5068239212036133,0.5907285690307617
0.5068239212036133,0.5907285690307617
0.4940179824829101,0.5849184036254883
0.4940179824829101,0.5849184036254883
0.5042570114135742,0.5840360641479492
0.5042570114135742,0.5840360641479492
0.5042490005493164,0.5946023941040038
0.5042490005493164,0.5946023941040038
0.4977075576782226,0.5817249298095702
0.5001176834106446,0.5817249298095702
0.5107080459594726,0.5970056533813476
0.5026319503784179,0.5970056533813476
0.4980491638183593,0.5934453964233398
0.4980491638183593,0.5934453964233398
0.5095024108886719,0.5949497222900391
0.5095024108886719,0.5949497222900391
0.5089759826660156,0.6066867828369140
0.5089759826660156,0.6066867828369140
0.5052583694458007,0.5951820373535156
0.5052583694458007,0.5951820373535156
0.5173702239990234,0.6100770950317382
0.5173702239990234,0.6100770950317382
0.5041488647460938,0.6055274963378906
0.5041488647460938,0.6055274963378906
0.5136371612548828,0.6048774719238281
0.5136371612548828,0.6048774719238281
0.5145298004150390,0.6155965805053710
0.5145298004150390,0.6155965805053710
0.5090938568115234,0.6023151397705078
0.5090938568115234,0.6023151397705078
0.5204338073730469,0.6155731201171875
0.5204338073730469,0.6155731201171875
0.5053361892700196,0.6096548080444336
0.5053361892700196,0.6096548080444336
0.5165857315063477,0.6089904785156249
0.5076261520385742,0.6089904785156249
0.5161811828613281,0.6188833236694335
0.5161811828613281,0.6188833236694335
0.5106073379516601,0.6053592681884765
0.5106073379516601,0.6053592681884765
0.5204990386962890,0.6182052612304687
0.5204990386962890,0.6182052612304687
0.5077405929565429,0.6126194000244141
0.5077405929565429,0.6126194000244141
0.5182468414306640,0.6117994308471679
0.5182468414306640,0.6117994308471679
0.5177129745483399,0.6217769622802735
0.5177129745483399,0.6217769622802735
0.5107875823974609,0.6079925537109375
0.5107875823974609,0.6079925537109375
0.5231426239013671,0.6216539382934571
0.5231426239013671,0.6216539382934571
0.5094114303588867,0.6161293029785156
0.5094114303588867,0.6161293029785156
0.5200338363647461,0.6157035827636719
0.5200338363647461,0.6157035827636719
0.5184293746948242,0.6255157470703124
0.5184293746948242,0.6255157470703124
0.5140165328979492,0.6125267028808593
0.5140165328979492,0.6125267028808593
0.5254274368286133,0.6262247085571289
0.5254274368286133,0.6262247085571289
0.5117940902709961,0.6207498550415039
0.5117940902709961,0.6207498550415039
0.5209465026855469,0.6198343276977539
0.5116235733032226,0.6198343276977539
0.5216897964477539,0.6300951004028320
0.5216897964477539,0.6300951004028320
0.5160169601440430,0.6168457031250000
0.5160169601440430,0.6168457031250000
0.5274467468261719,0.6303405761718750
0.5274467468261719,0.6303405761718750
0.5124143600463867,0.6241189956665039
0.5273345947265625,0.6241189956665039
0.5237337112426758,0.6235845565795898
0.5237337112426758,0.6235845565795898
0.5234001159667968,0.6334402084350585
0.5234001159667968,0.6334402084350585
0.5176139831542969,0.6198863983154297
0.5176139831542969,0.6198863983154297
0.5274003982543946,0.6325361251831054
0.5274003982543946,0.6325361251831054
0.5144937515258788,0.6263179779052734
0.5144937515258788,0.6263179779052734
0.5243076324462891,0.6243793487548828
0.5243076324462891,0.6243793487548828
0.5230876922607421,0.6323598861694336
0.5230876922607421,0.6323598861694336
0.5142923355102539,0.6143360137939453
0.5142923355102539,0.6143360137939453
0.5237720489501952,0.6217597961425781
0.5237720489501952,0.6217597961425781
0.5059576034545898,0.6071302413940429
0.5059576034545898,0.6071302413940429
0.5118370056152344,0.5973649978637695
0.5118370056152344,0.5973649978637695
0.5059043884277343,0.5993253707885742
0.5059043884277343,0.5993253707885742
0.4982282638549804,0.5805221557617187
0.4982282638549804,0.5805221557617187
0.5075099945068359,0.5900293350219726
0.5075099945068359,0.5900293350219726
0.4924758911132812,0.5816757202148437
0.5065143585205077,0.5816757202148437
0.5005674362182617,0.5785892486572265
0.5005674362182617,0.5785892486572265
0.5005565643310547,0.5876638412475585
0.5005565643310547,0.5876638412475585
0.4945060729980468,0.5733467102050781
0.4945060729980468,0.5733467102050781
0.5056549072265625,0.5863122940063477
0.4965780258178711,0.5863122940063477
0.4905303955078125,0.5801261901855469
0.4905303955078125,0.5801261901855469
0.5020837783813477,0.5800134658813476
0.5020837783813477,0.5800134658813476
0.5020763397216796,0.5907646179199219
0.5020763397216796,0.5907646179199219
0.4971765518188476,0.5787723541259765
0.4971765518188476,0.5787723541259765
0.5080490112304688,0.5939174652099609
0.5080490112304688,0.5939174652099609
0.4964962005615234,0.5907474517822265
0.4964962005615234,0.5907474517822265
0.5081691741943359,0.5923456192016602
0.5081691741943359,0.5923456192016602
0.5087408065795899,0.6043653488159180
0.5087408065795899,0.6043653488159180
0.5027458190917968,0.5923301696777343
0.5027458190917968,0.5923301696777343
0.5157497406005859,0.6072521209716797
0.5157497406005859,0.6072521209716797
0.5024185180664062,0.6023866653442382
0.5024185180664062,0.6023866653442382
0.5133098602294922,0.6024124145507812
0.5133098602294922,0.6024124145507812
0.5117591857910156,0.6121152877807617
0.5117591857910156,0.6121152877807617
0.5072622299194336,0.5989871978759765
0.5072622299194336,0.5989871978759765
0.5186262130737305,0.6124992370605469
0.5186262130737305,0.6124992370605469
0.5048446655273438,0.6066810607910156
0.5048446655273438,0.6066810607910156
0.5138437271118164,0.6055086135864257
0.5138437271118164,0.6055086135864257
0.5143495559692383,0.6155559539794921
0.5143495559692383,0.6155559539794921
0.5087608337402344,0.6020095825195312
0.5087608337402344,0.6020095825195312
0.5200492858886718,0.6155851364135742
0.5200492858886718,0.6155851364135742
0.5049997329711914,0.6092777252197266
0.5049997329711914,0.6092777252197266
0.5163608551025390,0.6088354110717773
0.5163608551025390,0.6088354110717773
0.5160507202148438,0.6188907623291016
0.5160507202148438,0.6188907623291016
0.5105884552001952,0.6057626724243164
0.5105884552001952,0.6057626724243164
0.5206186294555664,0.6190332412719727
0.5206186294555664,0.6190332412719727
0.5080232620239258,0.6137163162231445
0.5080232620239258,0.6137163162231445
0.5102554321289062,0.6117570877075195
0.5102554321289062,0.6117570877075195
0.5102554321289062,0.6115001678466797
0.5226379394531250,0.6186218261718750
0.5112201690673828,0.6186218261718750
0.5138574600219726,0.6220470428466797
0.5138574600219726,0.6220470428466797
0.5165496826171875,0.6136539459228515
0.5165496826171875,0.6136539459228515
0.5233125686645508,0.6294548034667968
0.5233125686645508,0.6294548034667968
0.5127016067504883,0.6141471862792969
0.5127016067504883,0.6141471862792969
0.5245136260986328,0.6232337951660156
0.5245136260986328,0.6232337951660156
0.5163597106933594,0.6264518737792969
0.5163597106933594,0.6264518737792969
0.5183538436889649,0.6197084426879883
0.5183538436889649,0.6197084426879883
0.5251556396484375,0.6310810089111328
0.5251556396484375,0.6310810089111328
0.5142969131469727,0.6177017211914062
0.5142969131469727,0.6177017211914062
0.5267297744750976,0.6265062332153321
0.5267297744750976,0.6265062332153321
0.5174062728881835,0.6312194824218750
0.5174062728881835,0.6312194824218750
0.5194793701171875,0.6198904037475585
0.5194793701171875,0.6198904037475585
0.5255510330200195,0.6323759078979492
0.5255510330200195,0.6323759078979492
0.5145687103271485,0.6171369552612305
0.5145687103271485,0.6171369552612305
0.5247917175292969,0.6242420196533203
0.5247917175292969,0.6242420196533203
0.5132011413574219,0.6194503784179687
0.5132011413574219,0.6194503784179687
0.5114725112915038,0.6020250320434570
0.5022748947143555,0.6020250320434570
0.5140291213989258,0.6064607620239257
0.5140291213989258,0.6064607620239257
0.4988056182861328,0.5871202468872070
0.4988056182861328,0.5871202468872070
0.5077508926391602,0.5881696701049804
0.5077508926391602,0.5881696701049804
0.4962501525878906,0.5871505737304688
0.4962501525878906,0.5871505737304688
0.4976783752441406,0.5756074905395507
0.4901401519775390,0.5756074905395507
0.5033597946166992,0.5891155242919922
0.5033597946166992,0.5891155242919922
0.4918350219726562,0.5725576400756835
0.5010915756225586,0.5725576400756835
0.5036870956420898,0.5805644989013672
0.5036870956420898,0.5805644989013672
0.4949146270751953,0.5833362579345703
0.4949146270751953,0.5833362579345703
0.4968046188354492,0.5763015747070312
0.4968046188354492,0.5763015747070312
0.5038106918334960,0.5882034301757812
0.5038106918334960,0.5882034301757812
0.4930154800415039,0.5756000518798828
0.4930154800415039,0.5756000518798828
0.5064662933349610,0.5859981536865234
0.5064662933349610,0.5859981536865234
0.4981435775756836,0.5930156707763672
0.4981435775756836,0.5930156707763672
0.5016534805297851,0.5846883773803710
0.5016534805297851,0.5846883773803710
0.5096712112426758,0.6005447387695312
0.5096712112426758,0.6005447387695312
0.5003374099731445,0.5894451141357422
0.5003374099731445,0.5894451141357422
0.5132080078125000,0.6020364761352539
0.5132080078125000,0.6020364761352539
0.5049682617187500,0.6043825149536133
0.5049682617187500,0.6043825149536133
0.5073394775390625,0.5965078353881835
0.5073394775390625,0.5965078353881835
0.5150899887084961,0.6105525970458984
0.5150899887084961,0.6105525970458984
0.5041877746582031,0.5994941711425781
0.5041877746582031,0.5994941711425781
0.5164506912231445,0.6064498901367187
0.5164506912231445,0.6064498901367187
0.5074413299560546,0.6094041824340820
0.5074413299560546,0.6094041824340820
0.5100328445434570,0.6005784988403320
0.5100328445434570,0.6005784988403320
0.5165697097778320,0.6157699584960937
0.5165697097778320,0.6157699584960937
0.5056022644042969,0.6001996994018555
0.5056022644042969,0.6001996994018555
0.5173524856567383,0.6089538574218750
0.5173524856567383,0.6089538574218750
0.5090154647827149,0.6118886947631835
0.5090154647827149,0.6118886947631835
0.5108642578125000,0.6049758911132812
0.5108642578125000,0.6049758911132812
0.5176992416381836,0.6162185668945312
0.5176992416381836,0.6162185668945312
0.5067930221557617,0.6027477264404296
0.5067930221557617,0.6027477264404296
0.5192853927612304,0.6115322113037109
0.5192853927612304,0.6115322113037109
0.5099584579467773,0.6165149688720702
0.5099584579467773,0.6165149688720702
0.5122661590576172,0.6057186126708984
0.5122661590576172,0.6057186126708984
0.5187566757202148,0.6190744400024414
0.5187566757202148,0.6190744400024414
0.5087190628051758,0.6059703826904297
0.5087190628051758,0.6059703826904297
0.5205654144287110,0.6169338226318359
0.5205654144287110,0.6169338226318359
0.5116498947143554,0.6179065704345703
0.5116498947143554,0.6179065704345703
0.5139495849609375,0.6091358184814453
0.5071386337280274,0.6091358184814453
0.5210380554199219,0.6227800369262695
0.5210380554199219,0.6227800369262695
0.5100820541381835,0.6114074707031250
0.5100820541381835,0.6114074707031250
0.5222906112670899,0.6182298660278320
0.5222906112670899,0.6182298660278320
0.5130037307739258,0.6212934494018555
0.5130037307739258,0.6212934494018555
0.5158710479736328,0.6124774932861328
0.5158710479736328,0.6124774932861328
0.5222568511962891,0.6279338836669922
0.5222568511962891,0.6279338836669922
0.5115159988403321,0.6122634887695312
0.5115159988403321,0.6122634887695312
0.5235832214355468,0.6208408355712890
0.5235832214355468,0.6208408355712890
0.5146099090576172,0.6235828399658203
0.5146099090576172,0.6235828399658203
0.5162120819091797,0.6157442092895508
0.5162120819091797,0.6157442092895508
0.5223369598388672,0.6253349304199218
0.5223369598388672,0.6253349304199218
0.5094972610473633,0.6083656311035156
0.5094972610473633,0.6083656311035156
0.5200069427490234,0.6119213104248047
0.5200069427490234,0.6119213104248047
0.5069675445556641,0.6087724685668945
0.5069675445556641,0.6087724685668945
0.5048955917358399,0.5893856048583984
0.5048955917358399,0.5893856048583984
0.5077468872070312,0.5955934524536133
0.5077468872070312,0.5955934524536133
0.4943796157836914,0.5768783569335937
0.5024917602539062,0.5768783569335937
0.5042644500732422,0.5837350845336914
0.5042644500732422,0.5837350845336914
0.4938989639282226,0.5822467803955078
0.4938989639282226,0.5822467803955078
0.4949083328247070,0.5715934753417968
0.4949083328247070,0.5715934753417968
0.5015653610229492,0.5838380813598633
0.5015653610229492,0.5838380813598633
0.4902088165283203,0.5712810516357422
0.4902088165283203,0.5712810516357422
0.5021112442016601,0.5777126312255859
0.5021112442016601,0.5777126312255859
0.4927825927734375,0.5802686691284179
0.4927825927734375,0.5802686691284179
0.4954153060913086,0.5715751647949219
0.4954153060913086,0.5715751647949219
0.5020969390869140,0.5871751785278320
0.5020969390869140,0.5871751785278320
0.4915792465209960,0.5723917007446289
0.4915792465209960,0.5723917007446289
0.5040063858032227,0.5825563430786133
0.5040063858032227,0.5825563430786133
0.4962450027465820,0.5872323989868163
0.4962450027465820,0.5872323989868163
0.4993211746215820,0.5822559356689453
0.4931505203247070,0.5822559356689453
0.5071586608886719,0.5956552505493163
0.5071586608886719,0.5956552505493163
0.4971696853637695,0.5840148925781250
0.4971696853637695,0.5840148925781250
0.5105455398559570,0.5947168350219726
